# EIG2DOS: Utility for SIESTA to obtain the electronic density of states
#  E. Artacho, Apr 1999, A. Garcia, Apr 2012
#  Nick R. Papior, Feb 2017
# ------------------------------------------
# Eigenvalues calculated from a non-polarized calculation
# Eigenvalues read from siesta.EIG
# Kpoint weights read from siesta.KP
# Using smearing parameter:   0.0500
# Using 1000 points in the energy range
# Selected bands: 1 to: 2981
# Emin, Emax in file for selected band(s):    -27.2516409    218.3696470
# Nbands, Nspin, Nk   =   2981     1     1
# E_F                 =    -4.2293 eV --> (shifted to ZERO)
# Broadening          =     0.0500 eV
#
#        E            N(up)  (=)   N(down)         Ntot
     -5.000000     32.182847     32.182847     64.365694
     -4.989990     36.704640     36.704640     73.409280
     -4.979980     40.886382     40.886382     81.772765
     -4.969970     44.054772     44.054772     88.109545
     -4.959960     45.638168     45.638168     91.276336
     -4.949950     45.354457     45.354457     90.708915
     -4.939940     43.313616     43.313616     86.627231
     -4.929930     40.005022     40.005022     80.010043
     -4.919920     36.193013     36.193013     72.386025
     -4.909910     32.770179     32.770179     65.540357
     -4.899900     30.604874     30.604874     61.209749
     -4.889890     30.388641     30.388641     60.777282
     -4.879880     32.477406     32.477406     64.954813
     -4.869870     36.745920     36.745920     73.491839
     -4.859860     42.517444     42.517444     85.034889
     -4.849850     48.644601     48.644601     97.289203
     -4.839840     53.771043     53.771043    107.542086
     -4.829830     56.711993     56.711993    113.423986
     -4.819820     56.811231     56.811231    113.622462
     -4.809810     54.121805     54.121805    108.243610
     -4.799800     49.333823     49.333823     98.667647
     -4.789790     43.493164     43.493164     86.986329
     -4.779780     37.647450     37.647450     75.294901
     -4.769770     32.568256     32.568256     65.136513
     -4.759760     28.634367     28.634367     57.268733
     -4.749750     25.870076     25.870076     51.740151
     -4.739740     24.070831     24.070831     48.141662
     -4.729730     22.939384     22.939384     45.878769
     -4.719720     22.184705     22.184705     44.369410
     -4.709710     21.573793     21.573793     43.147587
     -4.699700     20.952152     20.952152     41.904304
     -4.689690     20.255528     20.255528     40.511056
     -4.679680     19.525886     19.525886     39.051772
     -4.669670     18.926288     18.926288     37.852575
     -4.659660     18.735392     18.735392     37.470784
     -4.649650     19.304434     19.304434     38.608869
     -4.639640     20.977456     20.977456     41.954913
     -4.629630     23.994641     23.994641     47.989283
     -4.619620     28.403978     28.403978     56.807955
     -4.609610     33.999010     33.999010     67.998020
     -4.599600     40.295053     40.295053     80.590107
     -4.589590     46.561838     46.561838     93.123675
     -4.579580     51.935360     51.935360    103.870721
     -4.569570     55.613659     55.613659    111.227319
     -4.559560     57.095291     57.095291    114.190582
     -4.549550     56.371550     56.371550    112.743100
     -4.539540     53.974009     53.974009    107.948017
     -4.529530     50.827696     50.827696    101.655392
     -4.519520     47.947592     47.947592     95.895184
     -4.509510     46.094193     46.094193     92.188387
     -4.499499     45.528397     45.528397     91.056794
     -4.489489     45.962774     45.962774     91.925547
     -4.479479     46.718156     46.718156     93.436313
     -4.469469     47.006433     47.006433     94.012866
     -4.459459     46.215013     46.215013     92.430026
     -4.449449     44.084099     44.084099     88.168198
     -4.439439     40.731017     40.731017     81.462033
     -4.429429     36.550219     36.550219     73.100438
     -4.419419     32.064195     32.064195     64.128391
     -4.409409     27.798809     27.798809     55.597619
     -4.399399     24.215016     24.215016     48.430033
     -4.389389     21.679968     21.679968     43.359935
     -4.379379     20.439065     20.439065     40.878130
     -4.369369     20.569386     20.569386     41.138771
     -4.359359     21.934712     21.934712     43.869424
     -4.349349     24.187246     24.187246     48.374493
     -4.339339     26.847319     26.847319     53.694638
     -4.329329     29.447879     29.447879     58.895757
     -4.319319     31.687091     31.687091     63.374182
     -4.309309     33.520068     33.520068     67.040136
     -4.299299     35.145895     35.145895     70.291790
     -4.289289     36.890935     36.890935     73.781870
     -4.279279     39.030045     39.030045     78.060090
     -4.269269     41.610710     41.610710     83.221420
     -4.259259     44.349944     44.349944     88.699888
     -4.249249     46.659193     46.659193     93.318386
     -4.239239     47.813566     47.813566     95.627132
     -4.229229     47.220361     47.220361     94.440723
     -4.219219     44.681577     44.681577     89.363154
     -4.209209     40.525649     40.525649     81.051299
     -4.199199     35.531706     35.531706     71.063411
     -4.189189     30.669193     30.669193     61.338387
     -4.179179     26.770573     26.770573     53.541146
     -4.169169     24.286241     24.286241     48.572481
     -4.159159     23.221365     23.221365     46.442730
     -4.149149     23.257880     23.257880     46.515760
     -4.139139     23.979009     23.979009     47.958019
     -4.129129     25.079164     25.079164     50.158329
     -4.119119     26.464069     26.464069     52.928138
     -4.109109     28.204298     28.204298     56.408595
     -4.099099     30.374165     30.374165     60.748329
     -4.089089     32.864302     32.864302     65.728603
     -4.079079     35.278042     35.278042     70.556084
     -4.069069     36.990711     36.990711     73.981422
     -4.059059     37.369726     37.369726     74.739452
     -4.049049     36.059207     36.059207     72.118415
     -4.039039     33.183519     33.183519     66.367038
     -4.029029     29.358180     29.358180     58.716360
     -4.019019     25.498472     25.498472     50.996943
     -4.009009     22.522427     22.522427     45.044855
     -3.998999     21.089739     21.089739     42.179477
     -3.988989     21.479581     21.479581     42.959161
     -3.978979     23.622428     23.622428     47.244855
     -3.968969     27.223983     27.223983     54.447967
     -3.958959     31.896754     31.896754     63.793507
     -3.948949     37.247101     37.247101     74.494202
     -3.938939     42.916851     42.916851     85.833702
     -3.928929     48.606840     48.606840     97.213681
     -3.918919     54.099144     54.099144    108.198289
     -3.908909     59.264351     59.264351    118.528703
     -3.898899     64.025460     64.025460    128.050921
     -3.888889     68.270420     68.270420    136.540840
     -3.878879     71.748262     71.748262    143.496525
     -3.868869     74.015132     74.015132    148.030264
     -3.858859     74.488240     74.488240    148.976480
     -3.848849     72.616494     72.616494    145.232989
     -3.838839     68.111977     68.111977    136.223953
     -3.828829     61.143257     61.143257    122.286513
     -3.818819     52.395957     52.395957    104.791914
     -3.808809     42.958625     42.958625     85.917251
     -3.798799     34.066641     34.066641     68.133281
     -3.788789     26.795240     26.795240     53.590481
     -3.778779     21.807301     21.807301     43.614602
     -3.768769     19.231096     19.231096     38.462193
     -3.758759     18.690051     18.690051     37.380102
     -3.748749     19.458085     19.458085     38.916169
     -3.738739     20.686457     20.686457     41.372914
     -3.728729     21.641158     21.641158     43.282316
     -3.718719     21.895725     21.895725     43.791449
     -3.708709     21.436213     21.436213     42.872425
     -3.698699     20.651332     20.651332     41.302664
     -3.688689     20.203404     20.203404     40.406807
     -3.678679     20.805574     20.805574     41.611147
     -3.668669     22.963494     22.963494     45.926988
     -3.658659     26.763787     26.763787     53.527575
     -3.648649     31.790670     31.790670     63.581341
     -3.638639     37.214612     37.214612     74.429224
     -3.628629     42.029735     42.029735     84.059471
     -3.618619     45.350032     45.350032     90.700064
     -3.608609     46.647675     46.647675     93.295349
     -3.598599     45.849477     45.849477     91.698953
     -3.588589     43.280417     43.280417     86.560835
     -3.578579     39.509089     39.509089     79.018178
     -3.568569     35.171203     35.171203     70.342407
     -3.558559     30.824418     30.824418     61.648835
     -3.548549     26.853077     26.853077     53.706155
     -3.538539     23.424638     23.424638     46.849277
     -3.528529     20.501232     20.501232     41.002464
     -3.518519     17.908748     17.908748     35.817497
     -3.508509     15.447606     15.447606     30.895213
     -3.498498     13.004737     13.004737     26.009474
     -3.488488     10.619109     10.619109     21.238218
     -3.478478      8.474454      8.474454     16.948907
     -3.468468      6.828842      6.828842     13.657684
     -3.458458      5.916533      5.916533     11.833066
     -3.448448      5.860095      5.860095     11.720191
     -3.438438      6.617681      6.617681     13.235363
     -3.428428      7.977155      7.977155     15.954310
     -3.418418      9.601689      9.601689     19.203379
     -3.408408     11.123410     11.123410     22.246820
     -3.398398     12.264858     12.264858     24.529715
     -3.388388     12.947665     12.947665     25.895329
     -3.378378     13.341252     13.341252     26.682505
     -3.368368     13.824366     13.824366     27.648731
     -3.358358     14.871696     14.871696     29.743393
     -3.348348     16.911177     16.911177     33.822353
     -3.338338     20.201558     20.201558     40.403116
     -3.328328     24.754933     24.754933     49.509867
     -3.318318     30.300076     30.300076     60.600152
     -3.308308     36.277504     36.277504     72.555009
     -3.298298     41.878345     41.878345     83.756691
     -3.288288     46.157838     46.157838     92.315675
     -3.278278     48.237154     48.237154     96.474308
     -3.268268     47.551822     47.551822     95.103645
     -3.258258     44.050588     44.050588     88.101175
     -3.248248     38.245191     38.245191     76.490381
     -3.238238     31.074388     31.074388     62.148777
     -3.228228     23.637567     23.637567     47.275134
     -3.218218     16.913824     16.913824     33.827648
     -3.208208     11.574925     11.574925     23.149850
     -3.198198      7.937562      7.937562     15.875124
     -3.188188      6.027726      6.027726     12.055452
     -3.178178      5.690597      5.690597     11.381194
     -3.168168      6.686301      6.686301     13.372601
     -3.158158      8.747579      8.747579     17.495158
     -3.148148     11.609148     11.609148     23.218296
     -3.138138     15.028209     15.028209     30.056418
     -3.128128     18.800845     18.800845     37.601690
     -3.118118     22.759760     22.759760     45.519521
     -3.108108     26.738662     26.738662     53.477324
     -3.098098     30.514015     30.514015     61.028030
     -3.088088     33.766065     33.766065     67.532129
     -3.078078     36.105991     36.105991     72.211982
     -3.068068     37.180023     37.180023     74.360047
     -3.058058     36.804695     36.804695     73.609391
     -3.048048     35.053974     35.053974     70.107949
     -3.038038     32.239984     32.239984     64.479969
     -3.028028     28.794454     28.794454     57.588908
     -3.018018     25.121397     25.121397     50.242794
     -3.008008     21.506424     21.506424     43.012848
     -2.997998     18.125147     18.125147     36.250294
     -2.987988     15.126263     15.126263     30.252525
     -2.977978     12.721703     12.721703     25.443406
     -2.967968     11.220732     11.220732     22.441465
     -2.957958     10.984073     10.984073     21.968146
     -2.947948     12.316569     12.316569     24.633138
     -2.937938     15.340497     15.340497     30.680994
     -2.927928     19.895241     19.895241     39.790483
     -2.917918     25.501970     25.501970     51.003940
     -2.907908     31.418354     31.418354     62.836708
     -2.897898     36.784964     36.784964     73.569929
     -2.887888     40.831088     40.831088     81.662177
     -2.877878     43.074920     43.074920     86.149841
     -2.867868     43.441563     43.441563     86.883126
     -2.857858     42.246251     42.246251     84.492501
     -2.847848     40.044791     40.044791     80.089581
     -2.837838     37.413450     37.413450     74.826900
     -2.827828     34.754386     34.754386     69.508772
     -2.817818     32.209833     32.209833     64.419667
     -2.807808     29.712982     29.712982     59.425964
     -2.797798     27.134160     27.134160     54.268320
     -2.787788     24.434799     24.434799     48.869599
     -2.777778     21.743853     21.743853     43.487705
     -2.767768     19.320165     19.320165     38.640329
     -2.757758     17.431819     17.431819     34.863638
     -2.747748     16.230775     16.230775     32.461551
     -2.737738     15.700504     15.700504     31.401007
     -2.727728     15.705738     15.705738     31.411476
     -2.717718     16.106233     16.106233     32.212465
     -2.707708     16.853269     16.853269     33.706539
     -2.697698     17.998647     17.998647     35.997294
     -2.687688     19.606741     19.606741     39.213482
     -2.677678     21.631657     21.631657     43.263315
     -2.667668     23.853184     23.853184     47.706368
     -2.657658     25.930956     25.930956     51.861912
     -2.647648     27.555853     27.555853     55.111706
     -2.637638     28.606490     28.606490     57.212981
     -2.627628     29.209213     29.209213     58.418425
     -2.617618     29.661320     29.661320     59.322640
     -2.607608     30.265996     30.265996     60.531991
     -2.597598     31.179275     31.179275     62.358549
     -2.587588     32.349400     32.349400     64.698800
     -2.577578     33.558323     33.558323     67.116646
     -2.567568     34.512456     34.512456     69.024912
     -2.557558     34.920887     34.920887     69.841775
     -2.547548     34.540184     34.540184     69.080367
     -2.537538     33.209876     33.209876     66.419751
     -2.527528     30.908036     30.908036     61.816072
     -2.517518     27.819769     27.819769     55.639539
     -2.507508     24.370902     24.370902     48.741805
     -2.497497     21.175742     21.175742     42.351484
     -2.487487     18.889231     18.889231     37.778463
     -2.477477     18.011093     18.011093     36.022187
     -2.467467     18.723818     18.723818     37.447637
     -2.457457     20.837586     20.837586     41.675171
     -2.447447     23.870040     23.870040     47.740080
     -2.437437     27.230104     27.230104     54.460208
     -2.427427     30.428367     30.428367     60.856734
     -2.417417     33.222375     33.222375     66.444750
     -2.407407     35.632016     35.632016     71.264031
     -2.397397     37.819455     37.819455     75.638910
     -2.387387     39.894078     39.894078     79.788155
     -2.377377     41.743458     41.743458     83.486916
     -2.367367     42.984376     42.984376     85.968752
     -2.357357     43.072951     43.072951     86.145902
     -2.347347     41.533921     41.533921     83.067843
     -2.337337     38.205035     38.205035     76.410070
     -2.327327     33.379286     33.379286     66.758571
     -2.317317     27.775676     27.775676     55.551351
     -2.307307     22.352517     22.352517     44.705034
     -2.297297     18.047791     18.047791     36.095583
     -2.287287     15.550791     15.550791     31.101581
     -2.277277     15.175815     15.175815     30.351630
     -2.267267     16.852228     16.852228     33.704455
     -2.257257     20.201081     20.201081     40.402162
     -2.247247     24.652749     24.652749     49.305498
     -2.237237     29.566130     29.566130     59.132261
     -2.227227     34.323953     34.323953     68.647906
     -2.217217     38.392739     38.392739     76.785479
     -2.207207     41.349908     41.349908     82.699816
     -2.197197     42.893718     42.893718     85.787435
     -2.187187     42.857871     42.857871     85.715741
     -2.177177     41.243224     41.243224     82.486449
     -2.167167     38.254368     38.254368     76.508736
     -2.157157     34.304486     34.304486     68.608973
     -2.147147     29.951064     29.951064     59.902128
     -2.137137     25.758459     25.758459     51.516918
     -2.127127     22.134214     22.134214     44.268429
     -2.117117     19.217025     19.217025     38.434050
     -2.107107     16.876860     16.876860     33.753721
     -2.097097     14.828056     14.828056     29.656112
     -2.087087     12.793314     12.793314     25.586627
     -2.077077     10.633020     10.633020     21.266040
     -2.067067      8.383207      8.383207     16.766414
     -2.057057      6.202948      6.202948     12.405895
     -2.047047      4.278251      4.278251      8.556502
     -2.037037      2.739329      2.739329      5.478658
     -2.027027      1.624820      1.624820      3.249639
     -2.017017      0.893150      0.893150      1.786301
     -2.007007      0.459647      0.459647      0.919295
     -1.996997      0.235715      0.235715      0.471430
     -1.986987      0.156850      0.156850      0.313699
     -1.976977      0.198350      0.198350      0.396701
     -1.966967      0.383875      0.383875      0.767750
     -1.956957      0.791031      0.791031      1.582061
     -1.946947      1.552604      1.552604      3.105207
     -1.936937      2.845961      2.845961      5.691922
     -1.926927      4.860944      4.860944      9.721887
     -1.916917      7.741598      7.741598     15.483195
     -1.906907     11.509736     11.509736     23.019472
     -1.896897     15.994130     15.994130     31.988260
     -1.886887     20.799411     20.799411     41.598823
     -1.876877     25.344673     25.344673     50.689347
     -1.866867     28.980131     28.980131     57.960261
     -1.856857     31.157014     31.157014     62.314028
     -1.846847     31.595107     31.595107     63.190214
     -1.836837     30.380391     30.380391     60.760782
     -1.826827     27.943201     27.943201     55.886401
     -1.816817     24.913291     24.913291     49.826582
     -1.806807     21.904171     21.904171     43.808342
     -1.796797     19.316370     19.316370     38.632741
     -1.786787     17.243993     17.243993     34.487985
     -1.776777     15.519080     15.519080     31.038159
     -1.766767     13.859619     13.859619     27.719237
     -1.756757     12.038972     12.038972     24.077944
     -1.746747      9.994450      9.994450     19.988900
     -1.736737      7.837084      7.837084     15.674168
     -1.726727      5.782277      5.782277     11.564553
     -1.716717      4.056211      4.056211      8.112423
     -1.706707      2.829586      2.829586      5.659172
     -1.696697      2.198889      2.198889      4.397779
     -1.686687      2.201028      2.201028      4.402056
     -1.676677      2.830423      2.830423      5.660845
     -1.666667      4.034868      4.034868      8.069736
     -1.656657      5.689426      5.689426     11.378853
     -1.646647      7.571304      7.571304     15.142608
     -1.636637      9.368086      9.368086     18.736173
     -1.626627     10.739161     10.739161     21.478322
