# EIG2DOS: Utility for SIESTA to obtain the electronic density of states
#  E. Artacho, Apr 1999, A. Garcia, Apr 2012
#  Nick R. Papior, Feb 2017
# ------------------------------------------
# Eigenvalues calculated from a non-polarized calculation
# Eigenvalues read from siesta.EIG
# Kpoint weights read from siesta.KP
# Using smearing parameter:   0.0500
# Using 1000 points in the energy range
# Selected bands: 1 to: 2981
# Emin, Emax in file for selected band(s):    -27.1048105    218.3419360
# Nbands, Nspin, Nk   =   2981     1     1
# E_F                 =    -4.2640 eV --> (shifted to ZERO)
# Broadening          =     0.0500 eV
#
#        E            N(up)  (=)   N(down)         Ntot
     -5.000000     35.820132     35.820132     71.640263
     -4.989990     39.109954     39.109954     78.219907
     -4.979980     41.591669     41.591669     83.183338
     -4.969970     42.919414     42.919414     85.838828
     -4.959960     42.913115     42.913115     85.826230
     -4.949950     41.605825     41.605825     83.211651
     -4.939940     39.247265     39.247265     78.494531
     -4.929930     36.273859     36.273859     72.547718
     -4.919920     33.263670     33.263670     66.527339
     -4.909910     30.883686     30.883686     61.767373
     -4.899900     29.815403     29.815403     59.630805
     -4.889890     30.633065     30.633065     61.266131
     -4.879880     33.627975     33.627975     67.255949
     -4.869870     38.622792     38.622792     77.245584
     -4.859860     44.871262     44.871262     89.742523
     -4.849850     51.143119     51.143119    102.286239
     -4.839840     56.024470     56.024470    112.048939
     -4.829830     58.347103     58.347103    116.694207
     -4.819820     57.568765     57.568765    115.137531
     -4.809810     53.929251     53.929251    107.858502
     -4.799800     48.313972     48.313972     96.627944
     -4.789790     41.903660     41.903660     83.807321
     -4.779780     35.783740     35.783740     71.567480
     -4.769770     30.676694     30.676694     61.353387
     -4.759760     26.867499     26.867499     53.734998
     -4.749750     24.287380     24.287380     48.574760
     -4.739740     22.666469     22.666469     45.332939
     -4.729730     21.673633     21.673633     43.347265
     -4.719720     21.002625     21.002625     42.005249
     -4.709710     20.403723     20.403723     40.807445
     -4.699700     19.683706     19.683706     39.367413
     -4.689690     18.704631     18.704631     37.409262
     -4.679680     17.405121     17.405121     34.810242
     -4.669670     15.848013     15.848013     31.696027
     -4.659660     14.272662     14.272662     28.545324
     -4.649650     13.113893     13.113893     26.227785
     -4.639640     12.953520     12.953520     25.907041
     -4.629630     14.393012     14.393012     28.786025
     -4.619620     17.866949     17.866949     35.733897
     -4.609610     23.447042     23.447042     46.894084
     -4.599600     30.708855     30.708855     61.417710
     -4.589590     38.736672     38.736672     77.473344
     -4.579580     46.310312     46.310312     92.620624
     -4.569570     52.246652     52.246652    104.493303
     -4.559560     55.783531     55.783531    111.567063
     -4.549550     56.844992     56.844992    113.689983
     -4.539540     56.056743     56.056743    112.113487
     -4.529530     54.487358     54.487358    108.974716
     -4.519520     53.220611     53.220611    106.441221
     -4.509510     52.945181     52.945181    105.890362
     -4.499499     53.734254     53.734254    107.468508
     -4.489489     55.089406     55.089406    110.178813
     -4.479479     56.197427     56.197427    112.394855
     -4.469469     56.263076     56.263076    112.526151
     -4.459459     54.773600     54.773600    109.547201
     -4.449449     51.612427     51.612427    103.224855
     -4.439439     47.024495     47.024495     94.048991
     -4.429429     41.495951     41.495951     82.991901
     -4.419419     35.622582     35.622582     71.245164
     -4.409409     30.012403     30.012403     60.024807
     -4.399399     25.225266     25.225266     50.450533
     -4.389389     21.724586     21.724586     43.449173
     -4.379379     19.818100     19.818100     39.636200
     -4.369369     19.591016     19.591016     39.182031
     -4.359359     20.864305     20.864305     41.728611
     -4.349349     23.218437     23.218437     46.436874
     -4.339339     26.098374     26.098374     52.196748
     -4.329329     28.972287     28.972287     57.944575
     -4.319319     31.482742     31.482742     62.965483
     -4.309309     33.528246     33.528246     67.056492
     -4.299299     35.245264     35.245264     70.490529
     -4.289289     36.904199     36.904199     73.808399
     -4.279279     38.762077     38.762077     77.524154
     -4.269269     40.921022     40.921022     81.842044
     -4.259259     43.235145     43.235145     86.470290
     -4.249249     45.300787     45.300787     90.601575
     -4.239239     46.552293     46.552293     93.104585
     -4.229229     46.453577     46.453577     92.907155
     -4.219219     44.724703     44.724703     89.449406
     -4.209209     41.501681     41.501681     83.003363
     -4.199199     37.337295     37.337295     74.674589
     -4.189189     33.022936     33.022936     66.045873
     -4.179179     29.308776     29.308776     58.617551
     -4.169169     26.657948     26.657948     53.315897
     -4.159159     25.150025     25.150025     50.300050
     -4.149149     24.564549     24.564549     49.129099
     -4.139139     24.581736     24.581736     49.163473
     -4.129129     24.986135     24.986135     49.972270
     -4.119119     25.768339     25.768339     51.536678
     -4.109109     27.075836     27.075836     54.151672
     -4.099099     29.039714     29.039714     58.079429
     -4.089089     31.570511     31.570511     63.141022
     -4.079079     34.244701     34.244701     68.489402
     -4.069069     36.370326     36.370326     72.740653
     -4.059059     37.229255     37.229255     74.458510
     -4.049049     36.388285     36.388285     72.776570
     -4.039039     33.918184     33.918184     67.836367
     -4.029029     30.401276     30.401276     60.802552
     -4.019019     26.724310     26.724310     53.448620
     -4.009009     23.769940     23.769940     47.539880
     -3.998999     22.162329     22.162329     44.324658
     -3.988989     22.169109     22.169109     44.338218
     -3.978979     23.758176     23.758176     47.516353
     -3.968969     26.726779     26.726779     53.453559
     -3.958959     30.809575     30.809575     61.619150
     -3.948949     35.723762     35.723762     71.447524
     -3.938939     41.172889     41.172889     82.345777
     -3.928929     46.856213     46.856213     93.712427
     -3.918919     52.504945     52.504945    105.009890
     -3.908909     57.920717     57.920717    115.841435
     -3.898899     62.969918     62.969918    125.939836
     -3.888889     67.511708     67.511708    135.023415
     -3.878879     71.290583     71.290583    142.581166
     -3.868869     73.865929     73.865929    147.731859
     -3.858859     74.648378     74.648378    149.296756
     -3.848849     73.062447     73.062447    146.124895
     -3.838839     68.783738     68.783738    137.567476
     -3.828829     61.947391     61.947391    123.894782
     -3.818819     53.223824     53.223824    106.447648
     -3.808809     43.711321     43.711321     87.422641
     -3.798799     34.675519     34.675519     69.351038
     -3.788789     27.230627     27.230627     54.461254
     -3.778779     22.074818     22.074818     44.149636
     -3.768769     19.360459     19.360459     38.720919
     -3.758759     18.722670     18.722670     37.445341
     -3.748749     19.437747     19.437747     38.875495
     -3.738739     20.654070     20.654070     41.308140
     -3.728729     21.632134     21.632134     43.264268
     -3.718719     21.937949     21.937949     43.875897
     -3.708709     21.547181     21.547181     43.094362
     -3.698699     20.834209     20.834209     41.668417
     -3.688689     20.442956     20.442956     40.885912
     -3.678679     21.066164     21.066164     42.132329
     -3.668669     23.192127     23.192127     46.384254
     -3.658659     26.900601     26.900601     53.801202
     -3.648649     31.786325     31.786325     63.572650
     -3.638639     37.049478     37.049478     74.098957
     -3.628629     41.726389     41.726389     83.452778
     -3.618619     44.971549     44.971549     89.943099
     -3.608609     46.280203     46.280203     92.560406
     -3.598599     45.575489     45.575489     91.150978
     -3.588589     43.153917     43.153917     86.307833
     -3.578579     39.542702     39.542702     79.085403
     -3.568569     35.338643     35.338643     70.677286
     -3.558559     31.074526     31.074526     62.149051
     -3.548549     27.127744     27.127744     54.255489
     -3.538539     23.673720     23.673720     47.347439
     -3.528529     20.691252     20.691252     41.382504
     -3.518519     18.025730     18.025730     36.051460
     -3.508509     15.495942     15.495942     30.991884
     -3.498498     13.003795     13.003795     26.007590
     -3.488488     10.598456     10.598456     21.196911
     -3.478478      8.468036      8.468036     16.936071
     -3.468468      6.868337      6.868337     13.736673
     -3.458458      6.024120      6.024120     12.048239
     -3.448448      6.041301      6.041301     12.082602
     -3.438438      6.855922      6.855922     13.711844
     -3.428428      8.232651      8.232651     16.465301
     -3.418418      9.817352      9.817352     19.634704
     -3.408408     11.238108     11.238108     22.476216
     -3.398398     12.230767     12.230767     24.461534
     -3.388388     12.745407     12.745407     25.490814
     -3.378378     12.986091     12.986091     25.972182
     -3.368368     13.358828     13.358828     26.717656
     -3.358358     14.342788     14.342788     28.685576
     -3.348348     16.332809     16.332809     32.665618
     -3.338338     19.506517     19.506517     39.013033
     -3.328328     23.748163     23.748163     47.496327
     -3.318318     28.635195     28.635195     57.270390
     -3.308308     33.483859     33.483859     66.967718
     -3.298298     37.456438     37.456438     74.912875
     -3.288288     39.732774     39.732774     79.465548
     -3.278278     39.723095     39.723095     79.446190
     -3.268268     37.257355     37.257355     74.514709
     -3.258258     32.665614     32.665614     65.331229
     -3.248248     26.695991     26.695991     53.391981
     -3.238238     20.292570     20.292570     40.585140
     -3.228228     14.327192     14.327192     28.654384
     -3.218218      9.397314      9.397314     18.794628
     -3.208208      5.758138      5.758138     11.516275
     -3.198198      3.385183      3.385183      6.770365
     -3.188188      2.109839      2.109839      4.219678
     -3.178178      1.758287      1.758287      3.516574
     -3.168168      2.244799      2.244799      4.489597
     -3.158158      3.600288      3.600288      7.200576
     -3.148148      5.939345      5.939345     11.878689
     -3.138138      9.381720      9.381720     18.763441
     -3.128128     13.953139     13.953139     27.906278
     -3.118118     19.498010     19.498010     38.996019
     -3.108108     25.639007     25.639007     51.278013
     -3.098098     31.808904     31.808904     63.617809
     -3.088088     37.356658     37.356658     74.713317
     -3.078078     41.699109     41.699109     83.398217
     -3.068068     44.464544     44.464544     88.929089
     -3.058058     45.568753     45.568753     91.137507
     -3.048048     45.186951     45.186951     90.373903
     -3.038038     43.632473     43.632473     87.264947
     -3.028028     41.204087     41.204087     82.408173
     -3.018018     38.086161     38.086161     76.172322
     -3.008008     34.358155     34.358155     68.716309
     -2.997998     30.103172     30.103172     60.206344
     -2.987988     25.542550     25.542550     51.085100
     -2.977978     21.107994     21.107994     42.215988
     -2.967968     17.403188     17.403188     34.806376
     -2.957958     15.070194     15.070194     30.140389
     -2.947948     14.618405     14.618405     29.236810
     -2.937938     16.276523     16.276523     32.553047
     -2.927928     19.905942     19.905942     39.811883
     -2.917918     24.992660     24.992660     49.985320
     -2.907908     30.724360     30.724360     61.448721
     -2.897898     36.149114     36.149114     72.298228
     -2.887888     40.389889     40.389889     80.779778
     -2.877878     42.858450     42.858450     85.716900
     -2.867868     43.394222     43.394222     86.788443
     -2.857858     42.268828     42.268828     84.537656
     -2.847848     40.047234     40.047234     80.094469
     -2.837838     37.359724     37.359724     74.719448
     -2.827828     34.681438     34.681438     69.362875
     -2.817818     32.212704     32.212704     64.425408
     -2.807808     29.902918     29.902918     59.805836
     -2.797798     27.588784     27.588784     55.177568
     -2.787788     25.162526     25.162526     50.325052
     -2.777778     22.676972     22.676972     45.353944
     -2.767768     20.336573     20.336573     40.673145
     -2.757758     18.392055     18.392055     36.784110
     -2.747748     17.011975     17.011975     34.023951
     -2.737738     16.214172     16.214172     32.428344
     -2.727728     15.898019     15.898019     31.796038
     -2.717718     15.950268     15.950268     31.900537
     -2.707708     16.346690     16.346690     32.693379
     -2.697698     17.173204     17.173204     34.346407
     -2.687688     18.545176     18.545176     37.090353
     -2.677678     20.476866     20.476866     40.953731
     -2.667668     22.794239     22.794239     45.588479
     -2.657658     25.161993     25.161993     50.323986
     -2.647648     27.221049     27.221049     54.442098
     -2.637638     28.755873     28.755873     57.511746
     -2.627628     29.786568     29.786568     59.573136
     -2.617618     30.528510     30.528510     61.057019
     -2.607608     31.249277     31.249277     62.498555
     -2.597598     32.115609     32.115609     64.231219
     -2.587588     33.117577     33.117577     66.235154
     -2.577578     34.092799     34.092799     68.185597
     -2.567568     34.805692     34.805692     69.611383
     -2.557558     35.018584     35.018584     70.037168
     -2.547548     34.528608     34.528608     69.057216
     -2.537538     33.193395     33.193395     66.386790
     -2.527528     30.980086     30.980086     61.960172
     -2.517518     28.036534     28.036534     56.073069
     -2.507508     24.737502     24.737502     49.475004
     -2.497497     21.648555     21.648555     43.297110
     -2.487487     19.390068     19.390068     38.780136
     -2.477477     18.445254     18.445254     36.890508
     -2.467467     18.996221     18.996221     37.992441
     -2.457457     20.865705     20.865705     41.731411
     -2.447447     23.594911     23.594911     47.189822
     -2.437437     26.625817     26.625817     53.251633
     -2.427427     29.508792     29.508792     59.017585
     -2.417417     32.043866     32.043866     64.087731
     -2.407407     34.292308     34.292308     68.584616
     -2.397397     36.453266     36.453266     72.906533
     -2.387387     38.663460     38.663460     77.326921
     -2.377377     40.818382     40.818382     81.636764
     -2.367367     42.510822     42.510822     85.021645
     -2.357357     43.133626     43.133626     86.267252
     -2.347347     42.115926     42.115926     84.231852
     -2.337337     39.191374     39.191374     78.382748
     -2.327327     34.572618     34.572618     69.145236
     -2.317317     28.947365     28.947365     57.894730
     -2.307307     23.297950     23.297950     46.595900
     -2.297297     18.627841     18.627841     37.255683
     -2.287287     15.708530     15.708530     31.417060
     -2.277277     14.929740     14.929740     29.859480
     -2.267267     16.275002     16.275002     32.550004
     -2.257257     19.394214     19.394214     38.788427
     -2.247247     23.725211     23.725211     47.450422
     -2.237237     28.621461     28.621461     57.242922
     -2.227227     33.456527     33.456527     66.913055
     -2.217217     37.689598     37.689598     75.379196
     -2.207207     40.891358     40.891358     81.782715
     -2.197197     42.746496     42.746496     85.492993
     -2.187187     43.059907     43.059907     86.119813
     -2.177177     41.786232     41.786232     83.572464
     -2.167167     39.074908     39.074908     78.149816
     -2.157157     35.292092     35.292092     70.584184
     -2.147147     30.974095     30.974095     61.948190
     -2.137137     26.698844     26.698844     53.397689
     -2.127127     22.916850     22.916850     45.833699
     -2.117117     19.821725     19.821725     39.643451
     -2.107107     17.329436     17.329436     34.658873
     -2.097097     15.177141     15.177141     30.354282
     -2.087087     13.085310     13.085310     26.170620
     -2.077077     10.896085     10.896085     21.792171
     -2.067067      8.624480      8.624480     17.248959
     -2.057057      6.415869      6.415869     12.831738
     -2.047047      4.453107      4.453107      8.906214
     -2.037037      2.871002      2.871002      5.742004
     -2.027027      1.715345      1.715345      3.430689
     -2.017017      0.950102      0.950102      1.900204
     -2.007007      0.492884      0.492884      0.985767
     -1.996997      0.254524      0.254524      0.509047
     -1.986987      0.168060      0.168060      0.336119
     -1.976977      0.204345      0.204345      0.408690
     -1.966967      0.378091      0.378091      0.756183
     -1.956957      0.747671      0.747671      1.495342
     -1.946947      1.407617      1.407617      2.815234
     -1.936937      2.469320      2.469320      4.938641
     -1.926927      4.026951      4.026951      8.053902
     -1.916917      6.113250      6.113250     12.226500
     -1.906907      8.659818      8.659818     17.319636
     -1.896897     11.481586     11.481586     22.963171
     -1.886887     14.299287     14.299287     28.598573
     -1.876877     16.798177     16.798177     33.596353
     -1.866867     18.705229     18.705229     37.410458
     -1.856857     19.860516     19.860516     39.721031
     -1.846847     20.263085     20.263085     40.526170
     -1.836837     20.080016     20.080016     40.160031
     -1.826827     19.612592     19.612592     39.225184
     -1.816817     19.218254     19.218254     38.436509
     -1.806807     19.199160     19.199160     38.398321
     -1.796797     19.688530     19.688530     39.377059
     -1.786787     20.581103     20.581103     41.162206
     -1.776777     21.546912     21.546912     43.093824
     -1.766767     22.134549     22.134549     44.269097
     -1.756757     21.927781     21.927781     43.855561
     -1.746747     20.692810     20.692810     41.385620
     -1.736737     18.458257     18.458257     36.916514
     -1.726727     15.502224     15.502224     31.004449
     -1.716717     12.261988     12.261988     24.523976
     -1.706707      9.210777      9.210777     18.421554
     -1.696697      6.750162      6.750162     13.500324
     -1.686687      5.147203      5.147203     10.294406
     -1.676677      4.516529      4.516529      9.033058
     -1.666667      4.827185      4.827185      9.654371
     -1.656657      5.914021      5.914021     11.828041
     -1.646647      7.490656      7.490656     14.981313
     -1.636637      9.179794      9.179794     18.359587
     -1.626627     10.579147     10.579147     21.158294
