# EIG2DOS: Utility for SIESTA to obtain the electronic density of states
#  E. Artacho, Apr 1999, A. Garcia, Apr 2012
#  Nick R. Papior, Feb 2017
# ------------------------------------------
# Eigenvalues calculated from a non-polarized calculation
# Eigenvalues read from siesta.EIG
# Kpoint weights read from siesta.KP
# Using smearing parameter:   0.0500
# Using 1000 points in the energy range
# Selected bands: 1 to: 2981
# Emin, Emax in file for selected band(s):    -27.0758382    218.3268720
# Nbands, Nspin, Nk   =   2981     1     1
# E_F                 =    -4.2807 eV --> (shifted to ZERO)
# Broadening          =     0.0500 eV
#
#        E            N(up)  (=)   N(down)         Ntot
     -5.000000     45.819441     45.819441     91.638883
     -4.989990     48.317615     48.317615     96.635230
     -4.979980     49.461038     49.461038     98.922076
     -4.969970     49.227102     49.227102     98.454203
     -4.959960     47.723145     47.723145     95.446289
     -4.949950     45.162982     45.162982     90.325964
     -4.939940     41.851818     41.851818     83.703636
     -4.929930     38.183515     38.183515     76.367030
     -4.919920     34.644388     34.644388     69.288776
     -4.909910     31.807554     31.807554     63.615107
     -4.899900     30.292060     30.292060     60.584119
     -4.889890     30.659274     30.659274     61.318547
     -4.879880     33.239829     33.239829     66.479658
     -4.869870     37.932894     37.932894     75.865788
     -4.859860     44.073135     44.073135     88.146269
     -4.849850     50.474302     50.474302    100.948603
     -4.839840     55.698515     55.698515    111.397030
     -4.829830     58.483361     58.483361    116.966723
     -4.819820     58.153698     58.153698    116.307396
     -4.809810     54.828403     54.828403    109.656805
     -4.799800     49.327647     49.327647     98.655294
     -4.789790     42.838541     42.838541     85.677082
     -4.779780     36.509417     36.509417     73.018834
     -4.769770     31.149547     31.149547     62.299094
     -4.759760     27.122755     27.122755     54.245510
     -4.749750     24.411582     24.411582     48.823163
     -4.739740     22.763644     22.763644     45.527288
     -4.729730     21.834171     21.834171     43.668341
     -4.719720     21.280395     21.280395     42.560789
     -4.709710     20.805471     20.805471     41.610942
     -4.699700     20.172525     20.172525     40.345051
     -4.689690     19.214493     19.214493     38.428985
     -4.679680     17.858440     17.858440     35.716881
     -4.669670     16.167184     16.167184     32.334368
     -4.659660     14.381309     14.381309     28.762619
     -4.649650     12.931759     12.931759     25.863517
     -4.639640     12.395455     12.395455     24.790911
     -4.629630     13.383026     13.383026     26.766052
     -4.619620     16.370691     16.370691     32.741383
     -4.609610     21.512237     21.512237     43.024473
     -4.599600     28.489298     28.489298     56.978595
     -4.589590     36.471154     36.471154     72.942307
     -4.579580     44.241323     44.241323     88.482645
     -4.569570     50.494191     50.494191    100.988381
     -4.559560     54.223237     54.223237    108.446475
     -4.549550     55.056146     55.056146    110.112291
     -4.539540     53.389331     53.389331    106.778662
     -4.529530     50.250431     50.250431    100.500861
     -4.519520     46.937388     46.937388     93.874777
     -4.509510     44.582346     44.582346     89.164693
     -4.499499     43.814604     43.814604     87.629207
     -4.489489     44.639812     44.639812     89.279623
     -4.479479     46.547727     46.547727     93.095453
     -4.469469     48.764576     48.764576     97.529152
     -4.459459     50.523725     50.523725    101.047451
     -4.449449     51.252430     51.252430    102.504860
     -4.439439     50.639983     50.639983    101.279966
     -4.429429     48.620411     48.620411     97.240822
     -4.419419     45.332377     45.332377     90.664755
     -4.409409     41.098194     41.098194     82.196389
     -4.399399     36.414576     36.414576     72.829152
     -4.389389     31.911238     31.911238     63.822477
     -4.379379     28.241074     28.241074     56.482149
     -4.369369     25.914477     25.914477     51.828955
     -4.359359     25.143759     25.143759     50.287517
     -4.349349     25.778857     25.778857     51.557715
     -4.339339     27.377213     27.377213     54.754425
     -4.329329     29.382185     29.382185     58.764370
     -4.319319     31.329644     31.329644     62.659288
     -4.309309     32.993481     32.993481     65.986963
     -4.299299     34.417590     34.417590     68.835180
     -4.289289     35.836219     35.836219     71.672439
     -4.279279     37.524994     37.524994     75.049988
     -4.269269     39.638591     39.638591     79.277182
     -4.259259     42.087253     42.087253     84.174506
     -4.249249     44.496188     44.496188     88.992377
     -4.239239     46.278311     46.278311     92.556621
     -4.229229     46.818524     46.818524     93.637047
     -4.219219     45.714512     45.714512     91.429024
     -4.209209     42.971002     42.971002     85.942004
     -4.199199     39.043568     39.043568     78.087136
     -4.189189     34.693197     34.693197     69.386393
     -4.179179     30.713185     30.713185     61.426370
     -4.169169     27.661197     27.661197     55.322393
     -4.159159     25.723278     25.723278     51.446556
     -4.149149     24.759175     24.759175     49.518349
     -4.139139     24.481537     24.481537     48.963075
     -4.129129     24.661451     24.661451     49.322902
     -4.119119     25.252614     25.252614     50.505228
     -4.109109     26.374931     26.374931     52.749863
     -4.099099     28.168759     28.168759     56.337519
     -4.089089     30.597234     30.597234     61.194469
     -4.079079     33.310427     33.310427     66.620854
     -4.069069     35.667880     35.667880     71.335761
     -4.059059     36.940368     36.940368     73.880735
     -4.049049     36.609071     36.609071     73.218141
     -4.039039     34.612243     34.612243     69.224486
     -4.029029     31.406561     31.406561     62.813121
     -4.019019     27.809891     27.809891     55.619782
     -4.009009     24.712171     24.712171     49.424341
     -3.998999     22.803681     22.803681     45.607362
     -3.988989     22.438841     22.438841     44.877682
     -3.978979     23.658397     23.658397     47.316795
     -3.968969     26.303344     26.303344     52.606688
     -3.958959     30.126585     30.126585     60.253171
     -3.948949     34.848527     34.848527     69.697054
     -3.938939     40.167096     40.167096     80.334192
     -3.928929     45.767550     45.767550     91.535100
     -3.918919     51.360548     51.360548    102.721097
     -3.908909     56.730841     56.730841    113.461682
     -3.898899     61.748437     61.748437    123.496875
     -3.888889     66.308593     66.308593    132.617185
     -3.878879     70.218273     70.218273    140.436547
     -3.868869     73.097850     73.097850    146.195700
     -3.858859     74.379111     74.379111    148.758222
     -3.848849     73.440284     73.440284    146.880568
     -3.838839     69.844468     69.844468    139.688936
     -3.828829     63.581214     63.581214    127.162427
     -3.818819     55.192648     55.192648    110.385296
     -3.808809     45.710221     45.710221     91.420441
     -3.798799     36.413441     36.413441     72.826882
     -3.788789     28.500791     28.500791     57.001581
     -3.778779     22.794153     22.794153     45.588306
     -3.768769     19.572019     19.572019     39.144039
     -3.758759     18.566992     18.566992     37.133984
     -3.748749     19.105014     19.105014     38.210028
     -3.738739     20.329949     20.329949     40.659898
     -3.728729     21.449173     21.449173     42.898347
     -3.718719     21.942886     21.942886     43.885772
     -3.708709     21.692039     21.692039     43.384078
     -3.698699     20.994697     20.994697     41.989394
     -3.688689     20.461089     20.461089     40.922178
     -3.678679     20.806223     20.806223     41.612447
     -3.668669     22.592583     22.592583     45.185166
     -3.658659     26.003063     26.003063     52.006127
     -3.648649     30.728993     30.728993     61.457987
     -3.638639     36.026292     36.026292     72.052583
     -3.628629     40.928300     40.928300     81.856600
     -3.618619     44.534236     44.534236     89.068473
     -3.608609     46.257622     46.257622     92.515244
     -3.598599     45.943770     45.943770     91.887540
     -3.588589     43.835252     43.835252     87.670504
     -3.578579     40.433516     40.433516     80.867032
     -3.568569     36.331781     36.331781     72.663562
     -3.558559     32.074302     32.074302     64.148604
     -3.548549     28.061095     28.061095     56.122189
     -3.538539     24.498318     24.498318     48.996636
     -3.528529     21.397246     21.397246     42.794493
     -3.518519     18.627698     18.627698     37.255395
     -3.508509     16.016687     16.016687     32.033374
     -3.498498     13.457130     13.457130     26.914260
     -3.488488     10.979162     10.979162     21.958324
     -3.478478      8.753055      8.753055     17.506110
     -3.468468      7.027439      7.027439     14.054879
     -3.458458      6.034794      6.034794     12.069588
     -3.448448      5.902372      5.902372     11.804745
     -3.438438      6.595640      6.595640     13.191280
     -3.428428      7.908021      7.908021     15.816042
     -3.418418      9.502751      9.502751     19.005502
     -3.408408     11.004201     11.004201     22.008401
     -3.398398     12.119323     12.119323     24.238645
     -3.388388     12.749131     12.749131     25.498261
     -3.378378     13.041928     13.041928     26.083856
     -3.368368     13.358091     13.358091     26.716182
     -3.358358     14.155280     14.155280     28.310560
     -3.348348     15.839000     15.839000     31.678000
     -3.338338     18.632434     18.632434     37.264869
     -3.328328     22.498453     22.498453     44.996906
     -3.318318     27.116965     27.116965     54.233930
     -3.308308     31.908769     31.908769     63.817539
     -3.298298     36.108117     36.108117     72.216234
     -3.288288     38.897748     38.897748     77.795495
     -3.278278     39.603791     39.603791     79.207583
     -3.268268     37.902434     37.902434     75.804867
     -3.258258     33.951303     33.951303     67.902606
     -3.248248     28.369178     28.369178     56.738356
     -3.238238     22.055262     22.055262     44.110524
     -3.228228     15.922528     15.922528     31.845057
     -3.218218     10.660870     10.660870     21.321740
     -3.208208      6.619414      6.619414     13.238827
     -3.198198      3.827600      3.827600      7.655201
     -3.188188      2.110861      2.110861      4.221722
     -3.178178      1.232966      1.232966      2.465932
     -3.168168      1.012750      1.012750      2.025500
     -3.158158      1.393442      1.393442      2.786884
     -3.148148      2.464089      2.464089      4.928179
     -3.138138      4.436544      4.436544      8.873089
     -3.128128      7.576610      7.576610     15.153220
     -3.118118     12.089310     12.089310     24.178620
     -3.108108     17.975560     17.975560     35.951119
     -3.098098     24.906491     24.906491     49.812982
     -3.088088     32.182867     32.182867     64.365735
     -3.078078     38.835675     38.835675     77.671349
     -3.068068     43.869221     43.869221     87.738441
     -3.058058     46.569401     46.569401     93.138802
     -3.048048     46.743906     46.743906     93.487813
     -3.038038     44.773382     44.773382     89.546763
     -3.028028     41.439455     41.439455     82.878909
     -3.018018     37.611225     37.611225     75.222451
     -3.008008     33.944940     33.944940     67.889881
     -2.997998     30.736385     30.736385     61.472771
     -2.987988     27.974555     27.974555     55.949109
     -2.977978     25.537332     25.537332     51.074663
     -2.967968     23.406665     23.406665     46.813330
     -2.957958     21.787553     21.787553     43.575105
     -2.947948     21.075513     21.075513     42.151027
     -2.937938     21.693346     21.693346     43.386692
     -2.927928     23.875467     23.875467     47.750934
     -2.917918     27.498446     27.498446     54.996893
     -2.907908     32.036702     32.036702     64.073403
     -2.897898     36.671955     36.671955     73.343910
     -2.887888     40.522303     40.522303     81.044607
     -2.877878     42.905450     42.905450     85.810899
     -2.867868     43.532946     43.532946     87.065892
     -2.857858     42.558602     42.558602     85.117204
     -2.847848     40.465605     40.465605     80.931209
     -2.837838     37.846715     37.846715     75.693431
     -2.827828     35.177251     35.177251     70.354502
     -2.817818     32.678937     32.678937     65.357874
     -2.807808     30.324454     30.324454     60.648907
     -2.797798     27.961586     27.961586     55.923172
     -2.787788     25.478467     25.478467     50.956934
     -2.777778     22.916891     22.916891     45.833782
     -2.767768     20.476183     20.476183     40.952366
     -2.757758     18.415554     18.415554     36.831109
     -2.747748     16.921571     16.921571     33.843143
     -2.737738     16.025388     16.025388     32.050777
     -2.727728     15.620719     15.620719     31.241438
     -2.717718     15.567748     15.567748     31.135496
     -2.707708     15.810944     15.810944     31.621889
     -2.697698     16.427495     16.427495     32.854990
     -2.687688     17.567499     17.567499     35.134998
     -2.677678     19.320341     19.320341     38.640681
     -2.667668     21.595829     21.595829     43.191657
     -2.657658     24.105468     24.105468     48.210936
     -2.647648     26.467225     26.467225     52.934449
     -2.637638     28.375582     28.375582     56.751164
     -2.627628     29.733298     29.733298     59.466596
     -2.617618     30.665293     30.665293     61.330585
     -2.607608     31.412830     31.412830     62.825661
     -2.597598     32.181847     32.181847     64.363694
     -2.587588     33.038410     33.038410     66.076821
     -2.577578     33.897229     33.897229     67.794458
     -2.567568     34.578790     34.578790     69.157580
     -2.557558     34.875351     34.875351     69.750701
     -2.547548     34.588570     34.588570     69.177141
     -2.537538     33.551475     33.551475     67.102950
     -2.527528     31.671798     31.671798     63.343595
     -2.517518     29.008113     29.008113     58.016226
     -2.507508     25.840100     25.840100     51.680201
     -2.497497     22.669258     22.669258     45.338517
     -2.487487     20.113709     20.113709     40.227417
     -2.477477     18.722925     18.722925     37.445850
     -2.467467     18.791281     18.791281     37.582561
     -2.457457     20.258521     20.258521     40.517042
     -2.447447     22.746745     22.746745     45.493490
     -2.437437     25.719747     25.719747     51.439493
     -2.427427     28.693393     28.693393     57.386787
     -2.417417     31.401115     31.401115     62.802229
     -2.407407     33.838078     33.838078     67.676157
     -2.397397     36.164012     36.164012     72.328024
     -2.387387     38.513167     38.513167     77.026335
     -2.377377     40.808414     40.808414     81.616829
     -2.367367     42.680187     42.680187     85.360374
     -2.357357     43.545371     43.545371     87.090742
     -2.347347     42.824827     42.824827     85.649653
     -2.337337     40.206824     40.206824     80.413647
     -2.327327     35.834803     35.834803     71.669606
     -2.317317     30.330181     30.330181     60.660362
     -2.307307     24.639129     24.639129     49.278259
     -2.297297     19.772544     19.772544     39.545089
     -2.287287     16.546399     16.546399     33.092799
     -2.277277     15.410867     15.410867     30.821734
     -2.267267     16.402985     16.402985     32.805970
     -2.257257     19.205959     19.205959     38.411918
     -2.247247     23.271282     23.271282     46.542563
     -2.237237     27.957038     27.957038     55.914077
     -2.227227     32.644853     32.644853     65.289706
     -2.217217     36.811628     36.811628     73.623255
     -2.207207     40.050994     40.050994     80.101988
     -2.197197     42.062199     42.062199     84.124398
     -2.187187     42.640537     42.640537     85.281074
     -2.177177     41.698682     41.698682     83.397364
     -2.167167     39.318366     39.318366     78.636732
     -2.157157     35.793850     35.793850     71.587700
     -2.147147     31.613008     31.613008     63.226017
     -2.137137     27.348571     27.348571     54.697141
     -2.127127     23.489644     23.489644     46.979289
     -2.117117     20.292251     20.292251     40.584502
     -2.107107     17.728458     17.728458     35.456916
     -2.097097     15.561208     15.561208     31.122415
     -2.087087     13.500500     13.500500     27.001000
     -2.077077     11.354628     11.354628     22.709256
     -2.067067      9.103133      9.103133     18.206266
     -2.057057      6.871860      6.871860     13.743720
     -2.047047      4.845459      4.845459      9.690918
     -2.037037      3.175691      3.175691      6.351383
     -2.027027      1.929289      1.929289      3.858578
     -2.017017      1.085953      1.085953      2.171905
     -2.007007      0.569983      0.569983      1.139967
     -1.996997      0.290735      0.290735      0.581470
     -1.986987      0.174508      0.174508      0.349016
     -1.976977      0.182855      0.182855      0.365709
     -1.966967      0.320387      0.320387      0.640774
     -1.956957      0.636112      0.636112      1.272224
     -1.946947      1.218360      1.218360      2.436719
     -1.936937      2.179145      2.179145      4.358291
     -1.926927      3.623759      3.623759      7.247518
     -1.916917      5.607510      5.607510     11.215020
     -1.906907      8.091604      8.091604     16.183207
     -1.896897     10.917508     10.917508     21.835017
     -1.886887     13.816986     13.816986     27.633972
     -1.876877     16.461743     16.461743     32.923486
     -1.866867     18.539422     18.539422     37.078843
     -1.856857     19.831571     19.831571     39.663141
     -1.846847     20.269346     20.269346     40.538692
     -1.836837     19.950264     19.950264     39.900527
     -1.826827     19.108350     19.108350     38.216700
     -1.816817     18.040177     18.040177     36.080355
     -1.806807     17.004542     17.004542     34.009084
     -1.796797     16.131792     16.131792     32.263585
     -1.786787     15.386592     15.386592     30.773183
     -1.776777     14.610656     14.610656     29.221311
     -1.766767     13.631787     13.631787     27.263574
     -1.756757     12.385610     12.385610     24.771220
     -1.746747     10.985021     10.985021     21.970043
     -1.736737      9.699125      9.699125     19.398251
     -1.726727      8.851449      8.851449     17.702899
     -1.716717      8.687349      8.687349     17.374698
     -1.706707      9.272453      9.272453     18.544906
     -1.696697     10.466235     10.466235     20.932470
     -1.686687     11.979020     11.979020     23.958041
     -1.676677     13.482691     13.482691     26.965382
     -1.666667     14.720634     14.720634     29.441267
     -1.656657     15.564229     15.564229     31.128458
     -1.646647     15.994543     15.994543     31.989086
     -1.636637     16.033914     16.033914     32.067829
     -1.626627     15.683501     15.683501     31.367002
