# EIG2DOS: Utility for SIESTA to obtain the electronic density of states
#  E. Artacho, Apr 1999, A. Garcia, Apr 2012
#  Nick R. Papior, Feb 2017
# ------------------------------------------
# Eigenvalues calculated from a non-polarized calculation
# Eigenvalues read from siesta.EIG
# Kpoint weights read from siesta.KP
# Using smearing parameter:   0.0500
# Using 1000 points in the energy range
# Selected bands: 1 to: 2981
# Emin, Emax in file for selected band(s):    -27.0277913    218.3128940
# Nbands, Nspin, Nk   =   2981     1     1
# E_F                 =    -4.2961 eV --> (shifted to ZERO)
# Broadening          =     0.0500 eV
#
#        E            N(up)  (=)   N(down)         Ntot
     -5.000000     45.655183     45.655183     91.310366
     -4.989990     48.712115     48.712115     97.424231
     -4.979980     50.293119     50.293119    100.586238
     -4.969970     50.311529     50.311529    100.623059
     -4.959960     48.872730     48.872730     97.745461
     -4.949950     46.236748     46.236748     92.473495
     -4.939940     42.773210     42.773210     85.546420
     -4.929930     38.930222     38.930222     77.860443
     -4.919920     35.223467     35.223467     70.446934
     -4.909910     32.231643     32.231643     64.463286
     -4.899900     30.566996     30.566996     61.133993
     -4.889890     30.785661     30.785661     61.571322
     -4.879880     33.224455     33.224455     66.448910
     -4.869870     37.801757     37.801757     75.603513
     -4.859860     43.877070     43.877070     87.754141
     -4.849850     50.281668     50.281668    100.563336
     -4.839840     55.576316     55.576316    111.152632
     -4.829830     58.475237     58.475237    116.950475
     -4.819820     58.265860     58.265860    116.531721
     -4.809810     55.030647     55.030647    110.061294
     -4.799800     49.568398     49.568398     99.136796
     -4.789790     43.065776     43.065776     86.131552
     -4.779780     36.687741     36.687741     73.375482
     -4.769770     31.267722     31.267722     62.535444
     -4.759760     27.191878     27.191878     54.383756
     -4.749750     24.457624     24.457624     48.915249
     -4.739740     22.818068     22.818068     45.636136
     -4.729730     21.924687     21.924687     43.849375
     -4.719720     21.423136     21.423136     42.846271
     -4.709710     21.000218     21.000218     42.000436
     -4.699700     20.402674     20.402674     40.805348
     -4.689690     19.451800     19.451800     38.903600
     -4.679680     18.070091     18.070091     36.140181
     -4.669670     16.321278     16.321278     32.642556
     -4.659660     14.448077     14.448077     28.896154
     -4.649650     12.881007     12.881007     25.762013
     -4.639640     12.194120     12.194120     24.388240
     -4.629630     12.998025     12.998025     25.996050
     -4.619620     15.780366     15.780366     31.560733
     -4.609610     20.724681     20.724681     41.449362
     -4.599600     27.559699     27.559699     55.119398
     -4.589590     35.506503     35.506503     71.013005
     -4.579580     43.383172     43.383172     86.766344
     -4.569570     49.879622     49.879622     99.759245
     -4.559560     53.936878     53.936878    107.873756
     -4.549550     55.094288     55.094288    110.188577
     -4.539540     53.654331     53.654331    107.308661
     -4.529530     50.579416     50.579416    101.158832
     -4.519520     47.151329     47.151329     94.302658
     -4.509510     44.530221     44.530221     89.060443
     -4.499499     43.390053     43.390053     86.780106
     -4.489489     43.763836     43.763836     87.527671
     -4.479479     45.133190     45.133190     90.266381
     -4.469469     46.694965     46.694965     93.389930
     -4.459459     47.678813     47.678813     95.357626
     -4.449449     47.591753     47.591753     95.183505
     -4.439439     46.316937     46.316937     92.633873
     -4.429429     44.064453     44.064453     88.128906
     -4.419419     41.230201     41.230201     82.460401
     -4.409409     38.242635     38.242635     76.485270
     -4.399399     35.460537     35.460537     70.921074
     -4.389389     33.140779     33.140779     66.281558
     -4.379379     31.450616     31.450616     62.901231
     -4.369369     30.481519     30.481519     60.963038
     -4.359359     30.239853     30.239853     60.479707
     -4.349349     30.626225     30.626225     61.252450
     -4.339339     31.438728     31.438728     62.877455
     -4.329329     32.425288     32.425288     64.850576
     -4.319319     33.374756     33.374756     66.749511
     -4.309309     34.204086     34.204086     68.408173
     -4.299299     34.994531     34.994531     69.989063
     -4.289289     35.953923     35.953923     71.907845
     -4.279279     37.315602     37.315602     74.631203
     -4.269269     39.208361     39.208361     78.416722
     -4.259259     41.542245     41.542245     83.084491
     -4.249249     43.957400     43.957400     87.914800
     -4.239239     45.875460     45.875460     91.750919
     -4.229229     46.663683     46.663683     93.327366
     -4.219219     45.868295     45.868295     91.736589
     -4.209209     43.419732     43.419732     86.839465
     -4.199199     39.701653     39.701653     79.403307
     -4.189189     35.431997     35.431997     70.863994
     -4.179179     31.403623     31.403623     62.807246
     -4.169169     28.210897     28.210897     56.421794
     -4.159159     26.093558     26.093558     52.187116
     -4.149149     24.958719     24.958719     49.917438
     -4.139139     24.544609     24.544609     49.089218
     -4.129129     24.623613     24.623613     49.247226
     -4.119119     25.135518     25.135518     50.271037
     -4.109109     26.185910     26.185910     52.371820
     -4.099099     27.913513     27.913513     55.827026
     -4.089089     30.297275     30.297275     60.594550
     -4.079079     33.013789     33.013789     66.027579
     -4.069069     35.444320     35.444320     70.888640
     -4.059059     36.860553     36.860553     73.721106
     -4.049049     36.717009     36.717009     73.434017
     -4.039039     34.905092     34.905092     69.810184
     -4.029029     31.832436     31.832436     63.664873
     -4.019019     28.284306     28.284306     56.568612
     -4.009009     25.144069     25.144069     50.288138
     -3.998999     23.118730     23.118730     46.237460
     -3.988989     22.591812     22.591812     45.183623
     -3.978979     23.633961     23.633961     47.267923
     -3.968969     26.109866     26.109866     52.219733
     -3.958959     29.787918     29.787918     59.575835
     -3.948949     34.395928     34.395928     68.791857
     -3.938939     39.630978     39.630978     79.261956
     -3.928929     45.169300     45.169300     90.338599
     -3.918919     50.707560     50.707560    101.415119
     -3.908909     56.019867     56.019867    112.039735
     -3.898899     60.980191     60.980191    121.960381
     -3.888889     65.509745     65.509745    131.019491
     -3.878879     69.459406     69.459406    138.918811
     -3.868869     72.493335     72.493335    144.986671
     -3.858859     74.061541     74.061541    148.123083
     -3.848849     73.515775     73.515775    147.031550
     -3.838839     70.348053     70.348053    140.696106
     -3.828829     64.454471     64.454471    128.908943
     -3.818819     56.295609     56.295609    112.591218
     -3.808809     46.862415     46.862415     93.724830
     -3.798799     37.445424     37.445424     74.890849
     -3.788789     29.295297     29.295297     58.590595
     -3.778779     23.304495     23.304495     46.608991
     -3.768769     19.817394     19.817394     39.634789
     -3.758759     18.612588     18.612588     37.225177
     -3.748749     19.036558     19.036558     38.073115
     -3.738739     20.229702     20.229702     40.459403
     -3.728729     21.377072     21.377072     42.754143
     -3.718719     21.924639     21.924639     43.849278
     -3.708709     21.715512     21.715512     43.431025
     -3.698699     21.015586     21.015586     42.031171
     -3.688689     20.417686     20.417686     40.835371
     -3.678679     20.640708     20.640708     41.281416
     -3.668669     22.273359     22.273359     44.546718
     -3.658659     25.540688     25.540688     51.081376
     -3.648649     30.178954     30.178954     60.357907
     -3.638639     35.476164     35.476164     70.952328
     -3.628629     40.473417     40.473417     80.946834
     -3.618619     44.251410     44.251410     88.502820
     -3.608609     46.187215     46.187215     92.374430
     -3.598599     46.085601     46.085601     92.171202
     -3.588589     44.156672     44.156672     88.313343
     -3.578579     40.883136     40.883136     81.766272
     -3.568569     36.852422     36.852422     73.704845
     -3.558559     32.612277     32.612277     65.224555
     -3.548549     28.572263     28.572263     57.144526
     -3.538539     24.952053     24.952053     49.904106
     -3.528529     21.778217     21.778217     43.556434
     -3.518519     18.934488     18.934488     37.868976
     -3.508509     16.257120     16.257120     32.514240
     -3.498498     13.641945     13.641945     27.283890
     -3.488488     11.116677     11.116677     22.233354
     -3.478478      8.846798      8.846798     17.693595
     -3.468468      7.077079      7.077079     14.154157
     -3.458458      6.039318      6.039318     12.078636
     -3.448448      5.863904      5.863904     11.727808
     -3.438438      6.522356      6.522356     13.044712
     -3.428428      7.814893      7.814893     15.629785
     -3.418418      9.409232      9.409232     18.818465
     -3.408408     10.928925     10.928925     21.857850
     -3.398398     12.073269     12.073269     24.146539
     -3.388388     12.729865     12.729865     25.459730
     -3.378378     13.031453     13.031453     26.062905
     -3.368368     13.325386     13.325386     26.650772
     -3.358358     14.062720     14.062720     28.125440
     -3.348348     15.650905     15.650905     31.301811
     -3.338338     18.324452     18.324452     36.648905
     -3.328328     22.067218     22.067218     44.134436
     -3.318318     26.588856     26.588856     53.177712
     -3.308308     31.344313     31.344313     62.688625
     -3.298298     35.596783     35.596783     71.193566
     -3.288288     38.539715     38.539715     77.079429
     -3.278278     39.481580     39.481580     78.963160
     -3.268268     38.052827     38.052827     76.105653
     -3.258258     34.350815     34.350815     68.701629
     -3.248248     28.941106     28.941106     57.882213
     -3.238238     22.695536     22.695536     45.391072
     -3.228228     16.532142     16.532142     33.064285
     -3.218218     11.170706     11.170706     22.341412
     -3.208208      6.999039      6.999039     13.998078
     -3.198198      4.078370      4.078370      8.156739
     -3.188188      2.249485      2.249485      4.498970
     -3.178178      1.272142      1.272142      2.544283
     -3.168168      0.942028      0.942028      1.884055
     -3.158158      1.159927      1.159927      2.319853
     -3.148148      1.952020      1.952020      3.904041
     -3.138138      3.448516      3.448516      6.897032
     -3.128128      5.826011      5.826011     11.652022
     -3.118118      9.219667      9.219667     18.439334
     -3.108108     13.622058     13.622058     27.244116
     -3.098098     18.802884     18.802884     37.605767
     -3.088088     24.293535     24.293535     48.587070
     -3.078078     29.466969     29.466969     58.933938
     -3.068068     33.702435     33.702435     67.404870
     -3.058058     36.573181     36.573181     73.146362
     -3.048048     37.966711     37.966711     75.933422
     -3.038038     38.070067     38.070067     76.140134
     -3.028028     37.224864     37.224864     74.449728
     -3.018018     35.737586     35.737586     71.475172
     -3.008008     33.763310     33.763310     67.526619
     -2.997998     31.336215     31.336215     62.672429
     -2.987988     28.523407     28.523407     57.046815
     -2.977978     25.595137     25.595137     51.190274
     -2.967968     23.090730     23.090730     46.181461
     -2.957958     21.721080     21.721080     43.442160
     -2.947948     22.140783     22.140783     44.281566
     -2.937938     24.689728     24.689728     49.379456
     -2.927928     29.215654     29.215654     58.431307
     -2.917918     35.052180     35.052180     70.104359
     -2.907908     41.165965     41.165965     82.331929
     -2.897898     46.426280     46.426280     92.852559
     -2.887888     49.908161     49.908161     99.816322
     -2.877878     51.128602     51.128602    102.257204
     -2.867868     50.138884     50.138884    100.277768
     -2.857858     47.447906     47.447906     94.895812
     -2.847848     43.812052     43.812052     87.624104
     -2.837838     39.973376     39.973376     79.946752
     -2.827828     36.442561     36.442561     72.885122
     -2.817818     33.401112     33.401112     66.802224
     -2.807808     30.746792     30.746792     61.493584
     -2.797798     28.246525     28.246525     56.493050
     -2.787788     25.716750     25.716750     51.433500
     -2.777778     23.143564     23.143564     46.287128
     -2.767768     20.689753     20.689753     41.379505
     -2.757758     18.597388     18.597388     37.194776
     -2.747748     17.051238     17.051238     34.102476
     -2.737738     16.087779     16.087779     32.175558
     -2.727728     15.604222     15.604222     31.208444
     -2.717718     15.457946     15.457946     30.915892
     -2.707708     15.587598     15.587598     31.175197
     -2.697698     16.070970     16.070970     32.141941
     -2.687688     17.074299     17.074299     34.148598
     -2.677678     18.719647     18.719647     37.439294
     -2.667668     20.955222     20.955222     41.910443
     -2.657658     23.517933     23.517933     47.035866
     -2.647648     26.021971     26.021971     52.043942
     -2.637638     28.125891     28.125891     56.251781
     -2.627628     29.678007     29.678007     59.356013
     -2.617618     30.753418     30.753418     61.506836
     -2.607608     31.567631     31.567631     63.135262
     -2.597598     32.330566     32.330566     64.661132
     -2.587588     33.133748     33.133748     66.267497
     -2.577578     33.924998     33.924998     67.849996
     -2.567568     34.555237     34.555237     69.110474
     -2.557558     34.840241     34.840241     69.680482
     -2.547548     34.596190     34.596190     69.192380
     -2.537538     33.657467     33.657467     67.314933
     -2.527528     31.914890     31.914890     63.829780
     -2.517518     29.391666     29.391666     58.783332
     -2.507508     26.322864     26.322864     52.645727
     -2.497497     23.172527     23.172527     46.345054
     -2.487487     20.543811     20.543811     41.087622
     -2.477477     18.999539     18.999539     37.999079
     -2.467467     18.869249     18.869249     37.738497
     -2.457457     20.134922     20.134922     40.269845
     -2.447447     22.452751     22.452751     44.905501
     -2.437437     25.303538     25.303538     50.607075
     -2.427427     28.203144     28.203144     56.406288
     -2.417417     30.875248     30.875248     61.750495
     -2.407407     33.305356     33.305356     66.610712
     -2.397397     35.651064     35.651064     71.302128
     -2.387387     38.053973     38.053973     76.107946
     -2.377377     40.449825     40.449825     80.899651
     -2.367367     42.479316     42.479316     84.958631
     -2.357357     43.557737     43.557737     87.115475
     -2.347347     43.086046     43.086046     86.172092
     -2.337337     40.714538     40.714538     81.429076
     -2.327327     36.539484     36.539484     73.078967
     -2.317317     31.141097     31.141097     62.282194
     -2.307307     25.445163     25.445163     50.890326
     -2.297297     20.470008     20.470008     40.940016
     -2.287287     17.062443     17.062443     34.124886
     -2.277277     15.713727     15.713727     31.427454
     -2.267267     16.497424     16.497424     32.994848
     -2.257257     19.119289     19.119289     38.238578
     -2.247247     23.038747     23.038747     46.077493
     -2.237237     27.613855     27.613855     55.227710
     -2.227227     32.227223     32.227223     64.454446
     -2.217217     36.363180     36.363180     72.726360
     -2.207207     39.627447     39.627447     79.254895
     -2.197197     41.727699     41.727699     83.455399
     -2.187187     42.454076     42.454076     84.908152
     -2.177177     41.695562     41.695562     83.391124
     -2.167167     39.495916     39.495916     78.991831
     -2.157157     36.109752     36.109752     72.219504
     -2.147147     31.998820     31.998820     63.997641
     -2.137137     27.733373     27.733373     55.466745
     -2.127127     23.823421     23.823421     47.646842
     -2.117117     20.558660     20.558660     41.117321
     -2.107107     17.942129     17.942129     35.884258
     -2.097097     15.752597     15.752597     31.505193
     -2.087087     13.697144     13.697144     27.394288
     -2.077077     11.568154     11.568154     23.136308
     -2.067067      9.326880      9.326880     18.653759
     -2.057057      7.087666      7.087666     14.175332
     -2.047047      5.033972      5.033972     10.067943
     -2.037037      3.324403      3.324403      6.648806
     -2.027027      2.035392      2.035392      4.070783
     -2.017017      1.154541      1.154541      2.309082
     -2.007007      0.610058      0.610058      1.220115
     -1.996997      0.311389      0.311389      0.622777
     -1.986987      0.182516      0.182516      0.365031
     -1.976977      0.181687      0.181687      0.363374
     -1.966967      0.310131      0.310131      0.620262
     -1.956957      0.613860      0.613860      1.227720
     -1.946947      1.179000      1.179000      2.358001
     -1.936937      2.116769      2.116769      4.233537
     -1.926927      3.533793      3.533793      7.067586
     -1.916917      5.489265      5.489265     10.978530
     -1.906907      7.950341      7.950341     15.900682
     -1.896897     10.764963     10.764963     21.529926
     -1.886887     13.669674     13.669674     27.339349
     -1.876877     16.337345     16.337345     32.674690
     -1.866867     18.452374     18.452374     36.904748
     -1.856857     19.789337     19.789337     39.578674
     -1.846847     20.270504     20.270504     40.541008
     -1.836837     19.984990     19.984990     39.969980
     -1.826827     19.161275     19.161275     38.322551
     -1.816817     18.094871     18.094871     36.189742
     -1.806807     17.047759     17.047759     34.095518
     -1.796797     16.154458     16.154458     32.308916
     -1.786787     15.378120     15.378120     30.756241
     -1.776777     14.544372     14.544372     29.088743
     -1.766767     13.442031     13.442031     26.884062
     -1.756757     11.941228     11.941228     23.882455
     -1.746747     10.069020     10.069020     20.138040
     -1.736737      8.009593      8.009593     16.019185
     -1.726727      6.041468      6.041468     12.082935
     -1.716717      4.456099      4.456099      8.912198
     -1.706707      3.500913      3.500913      7.001826
     -1.696697      3.360997      3.360997      6.721994
     -1.686687      4.160699      4.160699      8.321397
     -1.676677      5.952579      5.952579     11.905158
     -1.666667      8.675165      8.675165     17.350330
     -1.656657     12.093472     12.093472     24.186943
     -1.646647     15.765949     15.765949     31.531899
     -1.636637     19.086014     19.086014     38.172027
     -1.626627     21.416064     21.416064     42.832129
