# EIG2DOS: Utility for SIESTA to obtain the electronic density of states
#  E. Artacho, Apr 1999, A. Garcia, Apr 2012
#  Nick R. Papior, Feb 2017
# ------------------------------------------
# Eigenvalues calculated from a non-polarized calculation
# Eigenvalues read from siesta.EIG
# Kpoint weights read from siesta.KP
# Using smearing parameter:   0.0500
# Using 1000 points in the energy range
# Selected bands: 1 to: 2981
# Emin, Emax in file for selected band(s):    -27.0947200    218.3612550
# Nbands, Nspin, Nk   =   2981     1     1
# E_F                 =    -4.2414 eV --> (shifted to ZERO)
# Broadening          =     0.0500 eV
#
#        E            N(up)  (=)   N(down)         Ntot
     -5.000000     33.179429     33.179429     66.358859
     -4.989990     37.312278     37.312278     74.624555
     -4.979980     41.005893     41.005893     82.011785
     -4.969970     43.663073     43.663073     87.326147
     -4.959960     44.815486     44.815486     89.630971
     -4.949950     44.267397     44.267397     88.534795
     -4.939940     42.165178     42.165178     84.330356
     -4.929930     38.975832     38.975832     77.951663
     -4.919920     35.398989     35.398989     70.797978
     -4.909910     32.251103     32.251103     64.502206
     -4.899900     30.342661     30.342661     60.685322
     -4.889890     30.341447     30.341447     60.682893
     -4.879880     32.610807     32.610807     65.221613
     -4.869870     37.045985     37.045985     74.091970
     -4.859860     42.980877     42.980877     85.961754
     -4.849850     49.253992     49.253992     98.507983
     -4.839840     54.472461     54.472461    108.944922
     -4.829830     57.411545     57.411545    114.823091
     -4.819820     57.395949     57.395949    114.791897
     -4.809810     54.494887     54.494887    108.989774
     -4.799800     49.445346     49.445346     98.890693
     -4.789790     43.350956     43.350956     86.701912
     -4.779780     37.305643     37.305643     74.611285
     -4.769770     32.103217     32.103217     64.206434
     -4.759760     28.121247     28.121247     56.242493
     -4.749750     25.367842     25.367842     50.735683
     -4.739740     23.615385     23.615385     47.230771
     -4.729730     22.539283     22.539283     45.078565
     -4.719720     21.813704     21.813704     43.627407
     -4.709710     21.157019     21.157019     42.314037
     -4.699700     20.346270     20.346270     40.692540
     -4.689690     19.228168     19.228168     38.456336
     -4.679680     17.746277     17.746277     35.492555
     -4.669670     15.984957     15.984957     31.969914
     -4.659660     14.209292     14.209292     28.418584
     -4.649650     12.869161     12.869161     25.738322
     -4.639640     12.541987     12.541987     25.083975
     -4.629630     13.809108     13.809108     27.618216
     -4.619620     17.085602     17.085602     34.171205
     -4.609610     22.446442     22.446442     44.892884
     -4.599600     29.509240     29.509240     59.018480
     -4.589590     37.437380     37.437380     74.874760
     -4.579580     45.102464     45.102464     90.204929
     -4.569570     51.385819     51.385819    102.771638
     -4.559560     55.524504     55.524504    111.049009
     -4.549550     57.360708     57.360708    114.721416
     -4.539540     57.373703     57.373703    114.747406
     -4.529530     56.463721     56.463721    112.927442
     -4.519520     55.574266     55.574266    111.148533
     -4.509510     55.318643     55.318643    110.637286
     -4.499499     55.772053     55.772053    111.544105
     -4.489489     56.505253     56.505253    113.010507
     -4.479479     56.818554     56.818554    113.637109
     -4.469469     56.050022     56.050022    112.100045
     -4.459459     53.819304     53.819304    107.638608
     -4.449449     50.123698     50.123698    100.247396
     -4.439439     45.285915     45.285915     90.571830
     -4.429429     39.816745     39.816745     79.633490
     -4.419419     34.273659     34.273659     68.547319
     -4.409409     29.169615     29.169615     58.339231
     -4.399399     24.938140     24.938140     49.876279
     -4.389389     21.922166     21.922166     43.844332
     -4.379379     20.347927     20.347927     40.695854
     -4.369369     20.273001     20.273001     40.546003
     -4.359359     21.537162     21.537162     43.074324
     -4.349349     23.764187     23.764187     47.528373
     -4.339339     26.444433     26.444433     52.888866
     -4.329329     29.082257     29.082257     58.164513
     -4.319319     31.350348     31.350348     62.700696
     -4.309309     33.182829     33.182829     66.365659
     -4.299299     34.765147     34.765147     69.530295
     -4.289289     36.422909     36.422909     72.845818
     -4.279279     38.449775     38.449775     76.899550
     -4.269269     40.934554     40.934554     81.869109
     -4.259259     43.651196     43.651196     87.302391
     -4.249249     46.064534     46.064534     92.129068
     -4.239239     47.473942     47.473942     94.947883
     -4.229229     47.263013     47.263013     94.526025
     -4.219219     45.162759     45.162759     90.325519
     -4.209209     41.406323     41.406323     82.812646
     -4.199199     36.687769     36.687769     73.375538
     -4.189189     31.930066     31.930066     63.860131
     -4.179179     27.966734     27.966734     55.933467
     -4.169169     25.285469     25.285469     50.570937
     -4.159159     23.943287     23.943287     47.886575
     -4.149149     23.669064     23.669064     47.338129
     -4.139139     24.078687     24.078687     48.157375
     -4.129129     24.886415     24.886415     49.772831
     -4.119119     26.013008     26.013008     52.026017
     -4.109109     27.547682     27.547682     55.095365
     -4.099099     29.590340     29.590340     59.180680
     -4.089089     32.059410     32.059410     64.118820
     -4.079079     34.576559     34.576559     69.153119
     -4.069069     36.513035     36.513035     73.026070
     -4.059059     37.203285     37.203285     74.406571
     -4.049049     36.234719     36.234719     72.469437
     -4.039039     33.666635     33.666635     67.333270
     -4.029029     30.059285     30.059285     60.118570
     -4.019019     26.294725     26.294725     52.589449
     -4.009009     23.282284     23.282284     46.564569
     -3.998999     21.692914     21.692914     43.385828
     -3.988989     21.831257     21.831257     43.662513
     -3.978979     23.663976     23.663976     47.327951
     -3.968969     26.941079     26.941079     53.882158
     -3.958959     31.322029     31.322029     62.644057
     -3.948949     36.453057     36.453057     72.906114
     -3.938939     41.998127     41.998127     83.996254
     -3.928929     47.657118     47.657118     95.314235
     -3.918919     53.192362     53.192362    106.384723
     -3.908909     58.448733     58.448733    116.897465
     -3.898899     63.332079     63.332079    126.664158
     -3.888889     67.729371     67.729371    135.458742
     -3.878879     71.400427     71.400427    142.800855
     -3.868869     73.909674     73.909674    147.819348
     -3.858859     74.664671     74.664671    149.329343
     -3.848849     73.080305     73.080305    146.160611
     -3.838839     68.817895     68.817895    137.635791
     -3.828829     61.996765     61.996765    123.993530
     -3.818819     53.273937     53.273937    106.547875
     -3.808809     43.740273     43.740273     87.480547
     -3.798799     34.661863     34.661863     69.323726
     -3.788789     27.161006     27.161006     54.322012
     -3.778779     21.949425     21.949425     43.898850
     -3.768769     19.194782     19.194782     38.389565
     -3.758759     18.544571     18.544571     37.089142
     -3.748749     19.279911     19.279911     38.559821
     -3.738739     20.543423     20.543423     41.086845
     -3.728729     21.579439     21.579439     43.158878
     -3.718719     21.931556     21.931556     43.863112
     -3.708709     21.554169     21.554169     43.108339
     -3.698699     20.809990     20.809990     41.619979
     -3.688689     20.347334     20.347334     40.694667
     -3.678679     20.880744     20.880744     41.761487
     -3.668669     22.932014     22.932014     45.864027
     -3.658659     26.614045     26.614045     53.228091
     -3.648649     31.540266     31.540266     63.080532
     -3.638639     36.905678     36.905678     73.811356
     -3.628629     41.718502     41.718502     83.437004
     -3.618619     45.093901     45.093901     90.187802
     -3.608609     46.493188     46.493188     92.986376
     -3.598599     45.823612     45.823612     91.647223
     -3.588589     43.386460     43.386460     86.772920
     -3.578579     39.727548     39.727548     79.455097
     -3.568569     35.465641     35.465641     70.931283
     -3.558559     31.151141     31.151141     62.302282
     -3.548549     27.172191     27.172191     54.344382
     -3.538539     23.708892     23.708892     47.417784
     -3.528529     20.739552     20.739552     41.479103
     -3.518519     18.103585     18.103585     36.207171
     -3.508509     15.608110     15.608110     31.216219
     -3.498498     13.139463     13.139463     26.278926
     -3.488488     10.731544     10.731544     21.463088
     -3.478478      8.562558      8.562558     17.125115
     -3.468468      6.887670      6.887670     13.775341
     -3.458458      5.941957      5.941957     11.883914
     -3.448448      5.851868      5.851868     11.703735
     -3.438438      6.580863      6.580863     13.161727
     -3.428428      7.921506      7.921506     15.843013
     -3.418418      9.538975      9.538975     19.077949
     -3.408408     11.063036     11.063036     22.126072
     -3.398398     12.208894     12.208894     24.417789
     -3.388388     12.886662     12.886662     25.773325
     -3.378378     13.251536     13.251536     26.503072
     -3.368368     13.665577     13.665577     27.331154
     -3.358358     14.581316     14.581316     29.162631
     -3.348348     16.392578     16.392578     32.785155
     -3.338338     19.305503     19.305503     38.611006
     -3.328328     23.261207     23.261207     46.522413
     -3.318318     27.913386     27.913386     55.826771
     -3.308308     32.654738     32.654738     65.309477
     -3.298298     36.697651     36.697651     73.395302
     -3.288288     39.222359     39.222359     78.444718
     -3.278278     39.583234     39.583234     79.166468
     -3.268268     37.515565     37.515565     75.031130
     -3.258258     33.251195     33.251195     66.502390
     -3.248248     27.472471     27.472471     54.944941
     -3.238238     21.109664     21.109664     42.219328
     -3.228228     15.069188     15.069188     30.138377
     -3.218218     10.011583     10.011583     20.023167
     -3.208208      6.260944      6.260944     12.521888
     -3.198198      3.852260      3.852260      7.704520
     -3.188188      2.660510      2.660510      5.321020
     -3.178178      2.535764      2.535764      5.071527
     -3.168168      3.388524      3.388524      6.777048
     -3.158158      5.205798      5.205798     10.411596
     -3.148148      8.009702      8.009702     16.019405
     -3.138138     11.787591     11.787591     23.575182
     -3.128128     16.425867     16.425867     32.851734
     -3.118118     21.672455     21.672455     43.344910
     -3.108108     27.140497     27.140497     54.280994
     -3.098098     32.353875     32.353875     64.707750
     -3.088088     36.826693     36.826693     73.653387
     -3.078078     40.161406     40.161406     80.322811
     -3.068068     42.139563     42.139563     84.279126
     -3.058058     42.768650     42.768650     85.537299
     -3.048048     42.252393     42.252393     84.504786
     -3.038038     40.882743     40.882743     81.765486
     -3.028028     38.900313     38.900313     77.800627
     -3.018018     36.402661     36.402661     72.805323
     -3.008008     33.362840     33.362840     66.725680
     -2.997998     29.755149     29.755149     59.510298
     -2.987988     25.713888     25.713888     51.427776
     -2.977978     21.626363     21.626363     43.252727
     -2.967968     18.100510     18.100510     36.201020
     -2.957958     15.818718     15.818718     31.637435
     -2.947948     15.342623     15.342623     30.685246
     -2.937938     16.942256     16.942256     33.884511
     -2.927928     20.498510     20.498510     40.997020
     -2.917918     25.498845     25.498845     50.997689
     -2.907908     31.127510     31.127510     62.255019
     -2.897898     36.437477     36.437477     72.874955
     -2.887888     40.570234     40.570234     81.140468
     -2.877878     42.964119     42.964119     85.928239
     -2.867868     43.479927     43.479927     86.959854
     -2.857858     42.391823     42.391823     84.783646
     -2.847848     40.242277     40.242277     80.484553
     -2.837838     37.619492     37.619492     75.238983
     -2.827828     34.952548     34.952548     69.905096
     -2.817818     32.410727     32.410727     64.821454
     -2.807808     29.941063     29.941063     59.882126
     -2.797798     27.408659     27.408659     54.817318
     -2.787788     24.754687     24.754687     49.509373
     -2.777778     22.084096     22.084096     44.168192
     -2.767768     19.640064     19.640064     39.280127
     -2.757758     17.689440     17.689440     35.378881
     -2.747748     16.394520     16.394520     32.789040
     -2.737738     15.751517     15.751517     31.503035
     -2.727728     15.631723     15.631723     31.263446
     -2.717718     15.893918     15.893918     31.787836
     -2.707708     16.488644     16.488644     32.977289
     -2.697698     17.479053     17.479053     34.958107
     -2.687688     18.959499     18.959499     37.918997
     -2.677678     20.926259     20.926259     41.852519
     -2.667668     23.194416     23.194416     46.388831
     -2.657658     25.430174     25.430174     50.860349
     -2.647648     27.291693     27.291693     54.583387
     -2.637638     28.594915     28.594915     57.189829
     -2.627628     29.399119     29.399119     58.798238
     -2.617618     29.957609     29.957609     59.915219
     -2.607608     30.566799     30.566799     61.133597
     -2.597598     31.408486     31.408486     62.816971
     -2.587588     32.472442     32.472442     64.944884
     -2.577578     33.581359     33.581359     67.162719
     -2.567568     34.473032     34.473032     68.946065
     -2.557558     34.876733     34.876733     69.753466
     -2.547548     34.556829     34.556829     69.113659
     -2.537538     33.344517     33.344517     66.689034
     -2.527528     31.190316     31.190316     62.380632
     -2.517518     28.236240     28.236240     56.472481
     -2.507508     24.862165     24.862165     49.724329
     -2.497497     21.650507     21.650507     43.301013
     -2.487487     19.250905     19.250905     38.501810
     -2.477477     18.186071     18.186071     36.372142
     -2.467467     18.680398     18.680398     37.360795
     -2.457457     20.589547     20.589547     41.179093
     -2.447447     23.465821     23.465821     46.931642
     -2.437437     26.733791     26.733791     53.467581
     -2.427427     29.900812     29.900812     59.801624
     -2.417417     32.709586     32.709586     65.419171
     -2.407407     35.164205     35.164205     70.328410
     -2.397397     37.419177     37.419177     74.838355
     -2.387387     39.587520     39.587520     79.175040
     -2.377377     41.567232     41.567232     83.134464
     -2.367367     42.982095     42.982095     85.964190
     -2.357357     43.281072     43.281072     86.562145
     -2.347347     41.962564     41.962564     83.925128
     -2.337337     38.823433     38.823433     77.646866
     -2.327327     34.114440     34.114440     68.228879
     -2.317317     28.526620     28.526620     57.053241
     -2.307307     23.014810     23.014810     46.029621
     -2.297297     18.538084     18.538084     37.076168
     -2.287287     15.822275     15.822275     31.644551
     -2.277277     15.220760     15.220760     30.441519
     -2.267267     16.693933     16.693933     33.387865
     -2.257257     19.881240     19.881240     39.762480
     -2.247247     24.220353     24.220353     48.440706
     -2.237237     29.071601     29.071601     58.143203
     -2.227227     33.818643     33.818643     67.637285
     -2.217217     37.930720     37.930720     75.861439
     -2.207207     40.987488     40.987488     81.974976
     -2.197197     42.683236     42.683236     85.366471
     -2.187187     42.835870     42.835870     85.671740
     -2.177177     41.417416     41.417416     82.834832
     -2.167167     38.596341     38.596341     77.192682
     -2.157157     34.753941     34.753941     69.507883
     -2.147147     30.432360     30.432360     60.864719
     -2.137137     26.203790     26.203790     52.407580
     -2.127127     22.503532     22.503532     45.007063
     -2.117117     19.505756     19.505756     39.011512
     -2.107107     17.108560     17.108560     34.217120
     -2.097097     15.036820     15.036820     30.073641
     -2.087087     13.005508     13.005508     26.011016
     -2.077077     10.856894     10.856894     21.713788
     -2.067067      8.609492      8.609492     17.218984
     -2.057057      6.413364      6.413364     12.826727
     -2.047047      4.455742      4.455742      8.911484
     -2.037037      2.874784      2.874784      5.749567
     -2.027027      1.718435      1.718435      3.436871
     -2.017017      0.951726      0.951726      1.903452
     -2.007007      0.492367      0.492367      0.984733
     -1.996997      0.250333      0.250333      0.500666
     -1.986987      0.156664      0.156664      0.313328
     -1.976977      0.178846      0.178846      0.357692
     -1.966967      0.326966      0.326966      0.653933
     -1.956957      0.654561      0.654561      1.309122
     -1.946947      1.253592      1.253592      2.507185
     -1.936937      2.238821      2.238821      4.477641
     -1.926927      3.717070      3.717070      7.434140
     -1.916917      5.743357      5.743357     11.486713
     -1.906907      8.276109      8.276109     16.552218
     -1.896897     11.151349     11.151349     22.302699
     -1.886887     14.093838     14.093838     28.187676
     -1.876877     16.770377     16.770377     33.540753
     -1.866867     18.873110     18.873110     37.746221
     -1.856857     20.208240     20.208240     40.416481
     -1.846847     20.762697     20.762697     41.525395
     -1.836837     20.725278     20.725278     41.450556
     -1.826827     20.445895     20.445895     40.891790
     -1.816817     20.329456     20.329456     40.658911
     -1.806807     20.684825     20.684825     41.369650
     -1.796797     21.580137     21.580137     43.160273
     -1.786787     22.773548     22.773548     45.547097
     -1.776777     23.770462     23.770462     47.540925
     -1.766767     24.001551     24.001551     48.003101
     -1.756757     23.049367     23.049367     46.098733
     -1.746747     20.818703     20.818703     41.637406
     -1.736737     17.572732     17.572732     35.145463
     -1.726727     13.828441     13.828441     27.656882
     -1.716717     10.175341     10.175341     20.350682
     -1.706707      7.108102      7.108102     14.216204
     -1.696697      4.936733      4.936733      9.873465
     -1.686687      3.782499      3.782499      7.564999
     -1.676677      3.622244      3.622244      7.244489
     -1.666667      4.332594      4.332594      8.665188
     -1.656657      5.707597      5.707597     11.415194
     -1.646647      7.458235      7.458235     14.916470
     -1.636637      9.225278      9.225278     18.450555
     -1.626627     10.633316     10.633316     21.266633
