# EIG2DOS: Utility for SIESTA to obtain the electronic density of states
#  E. Artacho, Apr 1999, A. Garcia, Apr 2012
#  Nick R. Papior, Feb 2017
# ------------------------------------------
# Eigenvalues calculated from a non-polarized calculation
# Eigenvalues read from siesta.EIG
# Kpoint weights read from siesta.KP
# Using smearing parameter:   0.0500
# Using 1000 points in the energy range
# Selected bands: 1 to: 2981
# Emin, Emax in file for selected band(s):    -27.1192594    218.3362860
# Nbands, Nspin, Nk   =   2981     1     1
# E_F                 =    -4.2691 eV --> (shifted to ZERO)
# Broadening          =     0.0500 eV
#
#        E            N(up)  (=)   N(down)         Ntot
     -5.000000     40.253095     40.253095     80.506191
     -4.989990     41.969435     41.969435     83.938869
     -4.979980     43.349544     43.349544     86.699089
     -4.969970     44.088506     44.088506     88.177011
     -4.959960     43.899084     43.899084     87.798167
     -4.949950     42.637231     42.637231     85.274461
     -4.939940     40.379027     40.379027     80.758055
     -4.929930     37.434486     37.434486     74.868972
     -4.919920     34.313147     34.313147     68.626295
     -4.909910     31.662146     31.662146     63.324293
     -4.899900     30.180513     30.180513     60.361026
     -4.889890     30.494178     30.494178     60.988355
     -4.879880     32.981490     32.981490     65.962980
     -4.869870     37.579974     37.579974     75.159947
     -4.859860     43.658827     43.658827     87.317654
     -4.849850     50.060461     50.060461    100.120922
     -4.839840     55.361457     55.361457    110.722914
     -4.829830     58.291654     58.291654    116.583308
     -4.819820     58.145553     58.145553    116.291106
     -4.809810     54.999034     54.999034    109.998068
     -4.799800     49.632889     49.632889     99.265777
     -4.789790     43.212647     43.212647     86.425294
     -4.779780     36.887994     36.887994     73.775989
     -4.769770     31.487345     31.487345     62.974690
     -4.759760     27.400481     27.400481     54.800962
     -4.749750     24.632211     24.632211     49.264422
     -4.739740     22.942802     22.942802     45.885603
     -4.729730     21.989698     21.989698     43.979396
     -4.719720     21.424554     21.424554     42.849107
     -4.709710     20.941349     20.941349     41.882697
     -4.699700     20.294980     20.294980     40.589959
     -4.689690     19.315041     19.315041     38.630083
     -4.679680     17.932359     17.932359     35.864719
     -4.669670     16.219856     16.219856     32.439712
     -4.659660     14.430332     14.430332     28.860663
     -4.649650     13.002098     13.002098     26.004197
     -4.639640     12.507265     12.507265     25.014530
     -4.629630     13.535314     13.535314     27.070628
     -4.619620     16.527939     16.527939     33.055877
     -4.609610     21.603247     21.603247     43.206493
     -4.599600     28.425322     28.425322     56.850644
     -4.589590     36.182311     36.182311     72.364623
     -4.579580     43.719360     43.719360     87.438720
     -4.569570     49.822928     49.822928     99.645857
     -4.559560     53.582340     53.582340    107.164679
     -4.549550     54.698516     54.698516    109.397031
     -4.539540     53.607288     53.607288    107.214576
     -4.529530     51.347874     51.347874    102.695748
     -4.519520     49.210264     49.210264     98.420529
     -4.509510     48.288750     48.288750     96.577500
     -4.499499     49.108528     49.108528     98.217056
     -4.489489     51.462076     51.462076    102.924151
     -4.479479     54.507658     54.507658    109.015317
     -4.469469     57.080895     57.080895    114.161790
     -4.459459     58.093190     58.093190    116.186380
     -4.449449     56.868233     56.868233    113.736466
     -4.439439     53.307061     53.307061    106.614122
     -4.429429     47.853148     47.853148     95.706296
     -4.419419     41.311163     41.311163     82.622326
     -4.409409     34.615809     34.615809     69.231618
     -4.399399     28.634481     28.634481     57.268962
     -4.389389     24.038517     24.038517     48.077033
     -4.379379     21.232584     21.232584     42.465168
     -4.369369     20.319883     20.319883     40.639766
     -4.359359     21.099840     21.099840     42.199679
     -4.349349     23.116209     23.116209     46.232418
     -4.339339     25.769706     25.769706     51.539411
     -4.329329     28.478684     28.478684     56.957367
     -4.319319     30.837524     30.837524     61.675049
     -4.309309     32.712850     32.712850     65.425700
     -4.299299     34.240730     34.240730     68.481459
     -4.289289     35.728162     35.728162     71.456323
     -4.279279     37.495489     37.495489     74.990978
     -4.269269     39.711092     39.711092     79.422184
     -4.259259     42.270293     42.270293     84.540586
     -4.249249     44.764574     44.764574     89.529148
     -4.239239     46.571169     46.571169     93.142338
     -4.229229     47.055609     47.055609     94.111218
     -4.219219     45.823499     45.823499     91.646998
     -4.209209     42.912544     42.912544     85.825089
     -4.199199     38.822317     38.822317     77.644634
     -4.189189     34.351205     34.351205     68.702409
     -4.179179     30.311578     30.311578     60.623156
     -4.169169     27.260599     27.260599     54.521198
     -4.159159     25.371146     25.371146     50.742292
     -4.149149     24.485850     24.485850     48.971701
     -4.139139     24.301468     24.301468     48.602936
     -4.129129     24.574878     24.574878     49.149757
     -4.119119     25.245838     25.245838     50.491676
     -4.109109     26.421003     26.421003     52.842007
     -4.099099     28.231934     28.231934     56.463867
     -4.089089     30.642453     30.642453     61.284906
     -4.079079     33.314971     33.314971     66.629941
     -4.069069     35.629337     35.629337     71.258675
     -4.059059     36.875927     36.875927     73.751854
     -4.049049     36.545847     36.545847     73.091693
     -4.039039     34.573836     34.573836     69.147672
     -4.029029     31.403401     31.403401     62.806803
     -4.019019     27.838256     27.838256     55.676511
     -4.009009     24.760980     24.760980     49.521960
     -3.998999     22.863498     22.863498     45.726996
     -3.988989     22.506994     22.506994     45.013988
     -3.978979     23.737763     23.737763     47.475526
     -3.968969     26.396935     26.396935     52.793871
     -3.958959     30.232451     30.232451     60.464903
     -3.948949     34.958375     34.958375     69.916749
     -3.938939     40.268937     40.268937     80.537874
     -3.928929     45.850050     45.850050     91.700099
     -3.918919     51.416241     51.416241    102.832482
     -3.908909     56.756927     56.756927    113.513854
     -3.898899     61.745981     61.745981    123.491961
     -3.888889     66.281917     66.281917    132.563834
     -3.878879     70.175502     70.175502    140.351005
     -3.868869     73.051589     73.051589    146.103179
     -3.858859     74.345082     74.345082    148.690165
     -3.848849     73.432716     73.432716    146.865433
     -3.838839     69.869777     69.869777    139.739554
     -3.828829     63.633746     63.633746    127.267492
     -3.818819     55.255752     55.255752    110.511503
     -3.808809     45.762719     45.762719     91.525437
     -3.798799     36.438119     36.438119     72.876237
     -3.788789     28.490500     28.490500     56.981000
     -3.778779     22.753053     22.753053     45.506106
     -3.768769     19.512467     19.512467     39.024935
     -3.758759     18.504443     18.504443     37.008885
     -3.748749     19.053217     19.053217     38.106434
     -3.738739     20.297644     20.297644     40.595289
     -3.728729     21.438534     21.438534     42.877069
     -3.718719     21.949600     21.949600     43.899200
     -3.708709     21.706851     21.706851     43.413701
     -3.698699     21.006098     21.006098     42.012195
     -3.688689     20.458597     20.458597     40.917194
     -3.678679     20.783483     20.783483     41.566965
     -3.668669     22.549470     22.549470     45.098941
     -3.658659     25.946156     25.946156     51.892313
     -3.648649     30.670094     30.670094     61.340188
     -3.638639     35.979262     35.979262     71.958523
     -3.628629     40.905077     40.905077     81.810153
     -3.618619     44.541289     44.541289     89.082579
     -3.608609     46.294043     46.294043     92.588086
     -3.598599     46.001599     46.001599     92.003197
     -3.588589     43.901864     43.901864     87.803728
     -3.578579     40.495247     40.495247     80.990494
     -3.568569     36.377664     36.377664     72.755327
     -3.558559     32.098858     32.098858     64.197716
     -3.548549     28.065418     28.065418     56.130836
     -3.538539     24.489144     24.489144     48.978288
     -3.528529     21.384288     21.384288     42.768576
     -3.518519     18.620104     18.620104     37.240208
     -3.508509     16.019824     16.019824     32.039647
     -3.498498     13.470759     13.470759     26.941518
     -3.488488     10.997540     10.997540     21.995081
     -3.478478      8.766740      8.766740     17.533480
     -3.468468      7.026117      7.026117     14.052233
     -3.458458      6.010400      6.010400     12.020800
     -3.448448      5.851919      5.851919     11.703838
     -3.438438      6.523188      6.523188     13.046377
     -3.428428      7.825077      7.825077     15.650154
     -3.418418      9.426375      9.426375     18.852750
     -3.408408     10.952706     10.952706     21.905411
     -3.398398     12.106576     12.106576     24.213151
     -3.388388     12.779442     12.779442     25.558884
     -3.378378     13.107545     13.107545     26.215089
     -3.368368     13.440262     13.440262     26.880524
     -3.358358     14.228448     14.228448     28.456897
     -3.348348     15.876825     15.876825     31.753650
     -3.338338     18.614348     18.614348     37.228696
     -3.328328     22.415703     22.415703     44.831407
     -3.318318     26.976909     26.976909     53.953817
     -3.308308     31.735635     31.735635     63.471269
     -3.298298     35.938596     35.938596     71.877193
     -3.288288     38.771446     38.771446     77.542893
     -3.278278     39.551296     39.551296     79.102592
     -3.268268     37.935820     37.935820     75.871641
     -3.258258     34.061515     34.061515     68.123031
     -3.248248     28.531806     28.531806     57.063611
     -3.238238     22.242763     22.242763     44.485526
     -3.228228     16.119281     16.119281     32.238562
     -3.218218     10.878644     10.878644     21.757288
     -3.208208      6.913429      6.913429     13.826859
     -3.198198      4.314343      4.314343      8.628685
     -3.188188      2.985618      2.985618      5.971237
     -3.178178      2.777664      2.777664      5.555328
     -3.168168      3.576851      3.576851      7.153702
     -3.158158      5.329674      5.329674     10.659347
     -3.148148      8.013626      8.013626     16.027251
     -3.138138     11.585994     11.585994     23.171989
     -3.128128     15.941400     15.941400     31.882799
     -3.118118     20.894324     20.894324     41.788647
     -3.108108     26.184511     26.184511     52.369022
     -3.098098     31.492902     31.492902     62.985804
     -3.088088     36.459660     36.459660     72.919320
     -3.078078     40.707651     40.707651     81.415302
     -3.068068     43.880321     43.880321     87.760642
     -3.058058     45.693874     45.693874     91.387748
     -3.048048     45.987358     45.987358     91.974715
     -3.038038     44.748007     44.748007     89.496014
     -3.028028     42.102238     42.102238     84.204477
     -3.018018     38.285165     38.285165     76.570329
     -3.008008     33.613171     33.613171     67.226342
     -2.997998     28.474163     28.474163     56.948326
     -2.987988     23.328148     23.328148     46.656297
     -2.977978     18.696472     18.696472     37.392944
     -2.967968     15.122067     15.122067     30.244135
     -2.957958     13.099173     13.099173     26.198347
     -2.947948     12.985037     12.985037     25.970073
     -2.937938     14.911676     14.911676     29.823351
     -2.927928     18.717417     18.717417     37.434834
     -2.917918     23.921639     23.921639     47.843279
     -2.907908     29.768320     29.768320     59.536641
     -2.897898     35.353126     35.353126     70.706252
     -2.887888     39.818750     39.818750     79.637500
     -2.877878     42.564577     42.564577     85.129154
     -2.867868     43.393450     43.393450     86.786899
     -2.857858     42.531127     42.531127     85.062254
     -2.847848     40.503645     40.503645     81.007289
     -2.837838     37.921387     37.921387     75.842775
     -2.827828     35.262558     35.262558     70.525116
     -2.817818     32.748101     32.748101     65.496202
     -2.807808     30.353836     30.353836     60.707673
     -2.797798     27.937004     27.937004     55.874008
     -2.787788     25.399311     25.399311     50.798623
     -2.777778     22.795755     22.795755     45.591510
     -2.767768     20.334441     20.334441     40.668882
     -2.757758     18.277291     18.277291     36.554582
     -2.747748     16.808661     16.808661     33.617322
     -2.737738     15.955412     15.955412     31.910823
     -2.727728     15.607516     15.607516     31.215031
     -2.717718     15.622724     15.622724     31.245447
     -2.707708     15.942643     15.942643     31.885286
     -2.697698     16.637910     16.637910     33.275820
     -2.687688     17.845839     17.845839     35.691678
     -2.677678     19.637517     19.637517     39.275034
     -2.667668     21.904083     21.904083     43.808166
     -2.657658     24.346104     24.346104     48.692207
     -2.647648     26.585438     26.585438     53.170877
     -2.637638     28.337049     28.337049     56.674098
     -2.627628     29.535357     29.535357     59.070715
     -2.617618     30.337787     30.337787     60.675574
     -2.607608     31.008680     31.008680     62.017360
     -2.597598     31.762022     31.762022     63.524044
     -2.587588     32.657441     32.657441     65.314881
     -2.577578     33.593599     33.593599     67.187198
     -2.567568     34.371370     34.371370     68.742740
     -2.557558     34.764644     34.764644     69.529288
     -2.547548     34.560779     34.560779     69.121558
     -2.537538     33.583707     33.583707     67.167414
     -2.527528     31.737338     31.737338     63.474676
     -2.517518     29.081150     29.081150     58.162301
     -2.507508     25.899593     25.899593     51.799187
     -2.497497     22.701816     22.701816     45.403632
     -2.487487     20.115325     20.115325     40.230650
     -2.477477     18.699250     18.699250     37.398500
     -2.467467     18.755996     18.755996     37.511992
     -2.457457     20.229698     20.229698     40.459397
     -2.447447     22.741781     22.741781     45.483561
     -2.437437     25.750256     25.750256     51.500511
     -2.427427     28.761636     28.761636     57.523272
     -2.417417     31.498877     31.498877     62.997754
     -2.407407     33.947923     33.947923     67.895845
     -2.397397     36.262349     36.262349     72.524697
     -2.387387     38.574923     38.574923     77.149846
     -2.377377     40.813352     40.813352     81.626704
     -2.367367     42.620096     42.620096     85.240192
     -2.357357     43.429534     43.429534     86.859068
     -2.347347     42.680185     42.680185     85.360369
     -2.337337     40.070949     40.070949     80.141899
     -2.327327     35.743748     35.743748     71.487496
     -2.317317     30.306785     30.306785     60.613569
     -2.307307     24.687462     24.687462     49.374925
     -2.297297     19.880500     19.880500     39.761000
     -2.287287     16.693715     16.693715     33.387431
     -2.277277     15.577419     15.577419     31.154838
     -2.267267     16.573296     16.573296     33.146592
     -2.257257     19.369082     19.369082     38.738163
     -2.247247     23.418028     23.418028     46.836055
     -2.237237     28.077400     28.077400     56.154800
     -2.227227     32.727564     32.727564     65.455128
     -2.217217     36.846201     36.846201     73.692401
     -2.207207     40.031228     40.031228     80.062455
     -2.197197     41.989458     41.989458     83.978916
     -2.187187     42.525135     42.525135     85.050270
     -2.177177     41.558392     41.558392     83.116785
     -2.167167     39.174276     39.174276     78.348551
     -2.157157     35.665025     35.665025     71.330050
     -2.147147     31.512082     31.512082     63.024163
     -2.137137     27.279931     27.279931     54.559863
     -2.127127     23.450593     23.450593     46.901187
     -2.117117     20.276065     20.276065     40.552129
     -2.107107     17.727641     17.727641     35.455282
     -2.097097     15.569583     15.569583     31.139167
     -2.087087     13.513792     13.513792     27.027584
     -2.077077     11.370040     11.370040     22.740080
     -2.067067      9.118711      9.118711     18.237422
     -2.057057      6.886132      6.886132     13.772263
     -2.047047      4.857403      4.857403      9.714805
     -2.037037      3.184820      3.184820      6.369639
     -2.027027      1.935640      1.935640      3.871280
     -2.017017      1.089921      1.089921      2.179842
     -2.007007      0.572058      0.572058      1.144117
     -1.996997      0.291214      0.291214      0.582428
     -1.986987      0.173225      0.173225      0.346450
     -1.976977      0.178924      0.178924      0.357847
     -1.966967      0.311984      0.311984      0.623969
     -1.956957      0.620429      0.620429      1.240858
     -1.946947      1.191966      1.191966      2.383932
     -1.936937      2.138997      2.138997      4.277994
     -1.926927      3.568856      3.568856      7.137713
     -1.916917      5.540716      5.540716     11.081433
     -1.906907      8.020656      8.020656     16.041312
     -1.896897     10.854150     10.854150     21.708301
     -1.886887     13.773781     13.773781     27.547562
     -1.876877     16.447368     16.447368     32.894735
     -1.866867     18.554443     18.554443     37.108886
     -1.856857     19.867121     19.867121     39.734242
     -1.846847     20.310474     20.310474     40.620947
     -1.836837     19.984523     19.984523     39.969046
     -1.826827     19.139250     19.139250     38.278500
     -1.816817     18.104672     18.104672     36.209344
     -1.806807     17.193101     17.193101     34.386203
     -1.796797     16.607328     16.607328     33.214656
     -1.786787     16.393869     16.393869     32.787738
     -1.776777     16.462181     16.462181     32.924362
     -1.766767     16.654055     16.654055     33.308109
     -1.756757     16.817455     16.817455     33.634909
     -1.746747     16.841565     16.841565     33.683130
     -1.736737     16.645290     16.645290     33.290579
     -1.726727     16.151425     16.151425     32.302850
     -1.716717     15.288965     15.288965     30.577929
     -1.706707     14.037763     14.037763     28.075526
     -1.696697     12.487465     12.487465     24.974930
     -1.686687     10.861698     10.861698     21.723396
     -1.676677      9.475038      9.475038     18.950077
     -1.666667      8.630368      8.630368     17.260736
     -1.656657      8.499661      8.499661     16.999322
     -1.646647      9.042328      9.042328     18.084655
     -1.636637     10.000299     10.000299     20.000599
     -1.626627     10.978255     10.978255     21.956511
