# EIG2DOS: Utility for SIESTA to obtain the electronic density of states
#  E. Artacho, Apr 1999, A. Garcia, Apr 2012
#  Nick R. Papior, Feb 2017
# ------------------------------------------
# Eigenvalues calculated from a non-polarized calculation
# Eigenvalues read from siesta.EIG
# Kpoint weights read from siesta.KP
# Using smearing parameter:   0.0500
# Using 1000 points in the energy range
# Selected bands: 1 to: 2981
# Emin, Emax in file for selected band(s):    -27.0376944    218.3044160
# Nbands, Nspin, Nk   =   2981     1     1
# E_F                 =    -4.3063 eV --> (shifted to ZERO)
# Broadening          =     0.0500 eV
#
#        E            N(up)  (=)   N(down)         Ntot
     -5.000000     41.628056     41.628056     83.256112
     -4.989990     46.602479     46.602479     93.204958
     -4.979980     50.516000     50.516000    101.032000
     -4.969970     52.796826     52.796826    105.593651
     -4.959960     53.092073     53.092073    106.184146
     -4.949950     51.383132     51.383132    102.766264
     -4.939940     48.009898     48.009898     96.019795
     -4.929930     43.603665     43.603665     87.207330
     -4.919920     38.969177     38.969177     77.938353
     -4.909910     34.964094     34.964094     69.928188
     -4.899900     32.395548     32.395548     64.791097
     -4.889890     31.914237     31.914237     63.828473
     -4.879880     33.875683     33.875683     67.751366
     -4.869870     38.176387     38.176387     76.352775
     -4.859860     44.137476     44.137476     88.274953
     -4.849850     50.543695     50.543695    101.087390
     -4.839840     55.902448     55.902448    111.804895
     -4.829830     58.872544     58.872544    117.745087
     -4.819820     58.695153     58.695153    117.390307
     -4.809810     55.427587     55.427587    110.855175
     -4.799800     49.869349     49.869349     99.738698
     -4.789790     43.228257     43.228257     86.456515
     -4.779780     36.699351     36.699351     73.398701
     -4.769770     31.144255     31.144255     62.288510
     -4.759760     26.969571     26.969571     53.939143
     -4.749750     24.184012     24.184012     48.368025
     -4.739740     22.543185     22.543185     45.086370
     -4.729730     21.692721     21.692721     43.385441
     -4.719720     21.265175     21.265175     42.530350
     -4.709710     20.929869     20.929869     41.859738
     -4.699700     20.415955     20.415955     40.831910
     -4.689690     19.530751     19.530751     39.061503
     -4.679680     18.187593     18.187593     36.375186
     -4.669670     16.444443     16.444443     32.888886
     -4.659660     14.539438     14.539438     29.078876
     -4.649650     12.899243     12.899243     25.798485
     -4.639640     12.097460     12.097460     24.194920
     -4.629630     12.752866     12.752866     25.505733
     -4.619620     15.374900     15.374900     30.749800
     -4.609610     20.183246     20.183246     40.366492
     -4.599600     26.950085     26.950085     53.900170
     -4.589590     34.932156     34.932156     69.864313
     -4.579580     42.957348     42.957348     85.914696
     -4.569570     49.687822     49.687822     99.375644
     -4.559560     54.002500     54.002500    108.005001
     -4.549550     55.364090     55.364090    110.728180
     -4.539540     54.012583     54.012583    108.025165
     -4.529530     50.886258     50.886258    101.772516
     -4.519520     47.289494     47.289494     94.578987
     -4.509510     44.441095     44.441095     88.882189
     -4.499499     43.085364     43.085364     86.170729
     -4.489489     43.308881     43.308881     86.617761
     -4.479479     44.606577     44.606577     89.213155
     -4.469469     46.136707     46.136707     92.273414
     -4.459459     47.043931     47.043931     94.087862
     -4.449449     46.730529     46.730529     93.461058
     -4.439439     45.002064     45.002064     90.004128
     -4.429429     42.073650     42.073650     84.147300
     -4.419419     38.468059     38.468059     76.936119
     -4.409409     34.855380     34.855380     69.710759
     -4.399399     31.880769     31.880769     63.761538
     -4.389389     30.015406     30.015406     60.030812
     -4.379379     29.456554     29.456554     58.913109
     -4.369369     30.096525     30.096525     60.193050
     -4.359359     31.570294     31.570294     63.140588
     -4.349349     33.372380     33.372380     66.744760
     -4.339339     35.009928     35.009928     70.019856
     -4.329329     36.143596     36.143596     72.287191
     -4.319319     36.671620     36.671620     73.343241
     -4.309309     36.735106     36.735106     73.470212
     -4.299299     36.651863     36.651863     73.303725
     -4.289289     36.806554     36.806554     73.613108
     -4.279279     37.528414     37.528414     75.056828
     -4.269269     38.979926     38.979926     77.959852
     -4.259259     41.074534     41.074534     82.149068
     -4.249249     43.446894     43.446894     86.893788
     -4.239239     45.505925     45.505925     91.011849
     -4.229229     46.587198     46.587198     93.174397
     -4.219219     46.176061     46.176061     92.352122
     -4.209209     44.117072     44.117072     88.234144
     -4.199199     40.703841     40.703841     81.407682
     -4.189189     36.587907     36.587907     73.175813
     -4.179179     32.539400     32.539400     65.078799
     -4.169169     29.175822     29.175822     58.351643
     -4.159159     26.790675     26.790675     53.581351
     -4.149149     25.351977     25.351977     50.703955
     -4.139139     24.645737     24.645737     49.291474
     -4.129129     24.469827     24.469827     48.939654
     -4.119119     24.770744     24.770744     49.541488
     -4.109109     25.654115     25.654115     51.308229
     -4.099099     27.265031     27.265031     54.530062
     -4.089089     29.600933     29.600933     59.201865
     -4.079079     32.363092     32.363092     64.726185
     -4.069069     34.948208     34.948208     69.896416
     -4.059059     36.618016     36.618016     73.236032
     -4.049049     36.785431     36.785431     73.570862
     -4.039039     35.277629     35.277629     70.555258
     -4.029029     32.435960     32.435960     64.871920
     -4.019019     28.998833     28.998833     57.997667
     -4.009009     25.834232     25.834232     51.668464
     -3.998999     23.664186     23.664186     47.328372
     -3.988989     22.907431     22.907431     45.814863
     -3.978979     23.677784     23.677784     47.355569
     -3.968969     25.881803     25.881803     51.763606
     -3.958959     29.322888     29.322888     58.645776
     -3.948949     33.753326     33.753326     67.506653
     -3.938939     38.881210     38.881210     77.762420
     -3.928929     44.379184     44.379184     88.758368
     -3.918919     49.928593     49.928593     99.857186
     -3.908909     55.284238     55.284238    110.568477
     -3.898899     60.307100     60.307100    120.614200
     -3.888889     64.919434     64.919434    129.838868
     -3.878879     68.987056     68.987056    137.974112
     -3.868869     72.193368     72.193368    144.386737
     -3.858859     73.996770     73.996770    147.993541
     -3.848849     73.733998     73.733998    147.467996
     -3.838839     70.856444     70.856444    141.712887
     -3.828829     65.204658     65.204658    130.409315
     -3.818819     57.187779     57.187779    114.375557
     -3.808809     47.767763     47.767763     95.535526
     -3.798799     38.238118     38.238118     76.476236
     -3.788789     29.882153     29.882153     59.764306
     -3.778779     23.643316     23.643316     47.286633
     -3.768769     19.920580     19.920580     39.841160
     -3.758759     18.537632     18.537632     37.075264
     -3.748749     18.867668     18.867668     37.735337
     -3.738739     20.055396     20.055396     40.110792
     -3.728729     21.268453     21.268453     42.536905
     -3.718719     21.918830     21.918830     43.837660
     -3.708709     21.808058     21.808058     43.616116
     -3.698699     21.164023     21.164023     42.328046
     -3.688689     20.555809     20.555809     41.111617
     -3.678679     20.699889     20.699889     41.399778
     -3.668669     22.204683     22.204683     44.409365
     -3.658659     25.330813     25.330813     50.661626
     -3.648649     29.854364     29.854364     59.708728
     -3.638639     35.094652     35.094652     70.189305
     -3.628629     40.106641     40.106641     80.213282
     -3.618619     43.965651     43.965651     87.931302
     -3.608609     46.029118     46.029118     92.058236
     -3.598599     46.076091     46.076091     92.152182
     -3.588589     44.291933     44.291933     88.583866
     -3.578579     41.139506     41.139506     82.279012
     -3.568569     37.192868     37.192868     74.385736
     -3.558559     32.993960     32.993960     65.987920
     -3.548549     28.955097     28.955097     57.910194
     -3.538539     25.306697     25.306697     50.613394
     -3.528529     22.090531     22.090531     44.181063
     -3.518519     19.204190     19.204190     38.408380
     -3.508509     16.491254     16.491254     32.982509
     -3.498498     13.846686     13.846686     27.693372
     -3.488488     11.291674     11.291674     22.583348
     -3.478478      8.984396      8.984396     17.968793
     -3.468468      7.165935      7.165935     14.331870
     -3.458458      6.070109      6.070109     12.140218
     -3.448448      5.834669      5.834669     11.669338
     -3.438438      6.441715      6.441715     12.883430
     -3.428428      7.702032      7.702032     15.404064
     -3.418418      9.290055      9.290055     18.580109
     -3.408408     10.828672     10.828672     21.657345
     -3.398398     12.007531     12.007531     24.015062
     -3.388388     12.697302     12.697302     25.394604
     -3.378378     13.011548     13.011548     26.023096
     -3.368368     13.282590     13.282590     26.565181
     -3.358358     13.955595     13.955595     27.911191
     -3.348348     15.443199     15.443199     30.886398
     -3.338338     17.995445     17.995445     35.990889
     -3.328328     21.620185     21.620185     43.240369
     -3.318318     26.057054     26.057054     52.114109
     -3.308308     30.792455     30.792455     61.584910
     -3.298298     35.114192     35.114192     70.228383
     -3.288288     38.222379     38.222379     76.444758
     -3.278278     39.405610     39.405610     78.811221
     -3.268268     38.248648     38.248648     76.497296
     -3.258258     34.790323     34.790323     69.580647
     -3.248248     29.545335     29.545335     59.090669
     -3.238238     23.360175     23.360175     46.720350
     -3.228228     17.159232     17.159232     34.318463
     -3.218218     11.692796     11.692796     23.385591
     -3.208208      7.387799      7.387799     14.775598
     -3.198198      4.338287      4.338287      8.676573
     -3.188188      2.403380      2.403380      4.806760
     -3.178178      1.346194      1.346194      2.692388
     -3.168168      0.955256      0.955256      1.910511
     -3.158158      1.119768      1.119768      2.239537
     -3.148148      1.856064      1.856064      3.712127
     -3.138138      3.292747      3.292747      6.585494
     -3.128128      5.620714      5.620714     11.241427
     -3.118118      9.013206      9.013206     18.026412
     -3.108108     13.528651     13.528651     27.057303
     -3.098098     19.023288     19.023288     38.046576
     -3.088088     25.110421     25.110421     50.220842
     -3.078078     31.195805     31.195805     62.391610
     -3.068068     36.590604     36.590604     73.181208
     -3.058058     40.666492     40.666492     81.332985
     -3.048048     42.994319     42.994319     85.988637
     -3.038038     43.415878     43.415878     86.831756
     -3.028028     42.035327     42.035327     84.070655
     -3.018018     39.158615     39.158615     78.317230
     -3.008008     35.227252     35.227252     70.454504
     -2.997998     30.775951     30.775951     61.551902
     -2.987988     26.408190     26.408190     52.816380
     -2.977978     22.759357     22.759357     45.518713
     -2.967968     20.422711     20.422711     40.845422
     -2.957958     19.842762     19.842762     39.685524
     -2.947948     21.209890     21.209890     42.419780
     -2.937938     24.397895     24.397895     48.795790
     -2.927928     28.969785     28.969785     57.939571
     -2.917918     34.250705     34.250705     68.501411
     -2.907908     39.447978     39.447978     78.895956
     -2.897898     43.793182     43.793182     87.586365
     -2.887888     46.683265     46.683265     93.366530
     -2.877878     47.796587     47.796587     95.593174
     -2.867868     47.154434     47.154434     94.308867
     -2.857858     45.099561     45.099561     90.199123
     -2.847848     42.182808     42.182808     84.365616
     -2.837838     38.985469     38.985469     77.970938
     -2.827828     35.940663     35.940663     71.881326
     -2.817818     33.226813     33.226813     66.453627
     -2.807808     30.778335     30.778335     61.556669
     -2.797798     28.403280     28.403280     56.806559
     -2.787788     25.944154     25.944154     51.888307
     -2.777778     23.396901     23.396901     46.793802
     -2.767768     20.927765     20.927765     41.855530
     -2.757758     18.786043     18.786043     37.572087
     -2.747748     17.170313     17.170313     34.340626
     -2.737738     16.131765     16.131765     32.263530
     -2.727728     15.574167     15.574167     31.148334
     -2.717718     15.348598     15.348598     30.697196
     -2.707708     15.379414     15.379414     30.758829
     -2.697698     15.735342     15.735342     31.470683
     -2.687688     16.592617     16.592617     33.185234
     -2.677678     18.106894     18.106894     36.213789
     -2.667668     20.273091     20.273091     40.546182
     -2.657658     22.865885     22.865885     45.731769
     -2.647648     25.506447     25.506447     51.012893
     -2.637638     27.821425     27.821425     55.642850
     -2.627628     29.600174     29.600174     59.200348
     -2.617618     30.857444     30.857444     61.714888
     -2.607608     31.771738     31.771738     63.543476
     -2.597598     32.549802     32.549802     65.099604
     -2.587588     33.307196     33.307196     66.614392
     -2.577578     34.027400     34.027400     68.054799
     -2.567568     34.595255     34.595255     69.190510
     -2.557558     34.852674     34.852674     69.705349
     -2.547548     34.632363     34.632363     69.264726
     -2.537538     33.772474     33.772474     67.544947
     -2.527528     32.149698     32.149698     64.299396
     -2.517518     29.753513     29.753513     59.507025
     -2.507508     26.773283     26.773283     53.546566
     -2.497497     23.632060     23.632060     47.264119
     -2.487487     20.914753     20.914753     41.829505
     -2.477477     19.198158     19.198158     38.396315
     -2.467467     18.853456     18.853456     37.706912
     -2.457457     19.915613     19.915613     39.831225
     -2.447447     22.084970     22.084970     44.169939
     -2.437437     24.862807     24.862807     49.725613
     -2.427427     27.758291     27.758291     55.516581
     -2.417417     30.469717     30.469717     60.939434
     -2.407407     32.954188     32.954188     65.908376
     -2.397397     35.352864     35.352864     70.705729
     -2.387387     37.810020     37.810020     75.620040
     -2.377377     40.279376     40.279376     80.558751
     -2.367367     42.422486     42.422486     84.844972
     -2.357357     43.663643     43.663643     87.327286
     -2.347347     43.391171     43.391171     86.782343
     -2.337337     41.221311     41.221311     82.442621
     -2.327327     37.205428     37.205428     74.410856
     -2.317317     31.884322     31.884322     63.768643
     -2.307307     26.164315     26.164315     52.328630
     -2.297297     21.070242     21.070242     42.140483
     -2.287287     17.476870     17.476870     34.953741
     -2.277277     15.913121     15.913121     31.826242
     -2.267267     16.487133     16.487133     32.974266
     -2.257257     18.927846     18.927846     37.855692
     -2.247247     22.705062     22.705062     45.410125
     -2.237237     27.178884     27.178884     54.357769
     -2.227227     31.732621     31.732621     63.465242
     -2.217217     35.855208     35.855208     71.710416
     -2.207207     39.161008     39.161008     78.322015
     -2.197197     41.364606     41.364606     82.729212
     -2.187187     42.252477     42.252477     84.504954
     -2.177177     41.692927     41.692927     83.385854
     -2.167167     39.693281     39.693281     79.386562
     -2.157157     36.466462     36.466462     72.932924
     -2.147147     32.443044     32.443044     64.886087
     -2.137137     28.185718     28.185718     56.371436
     -2.127127     24.223510     24.223510     48.447020
     -2.117117     20.882294     20.882294     41.764588
     -2.107107     18.201466     18.201466     36.402932
     -2.097097     15.980845     15.980845     31.961691
     -2.087087     13.927098     13.927098     27.854197
     -2.077077     11.815844     11.815844     23.631688
     -2.067067      9.587087      9.587087     19.174175
     -2.057057      7.340633      7.340633     14.681266
     -2.047047      5.257160      5.257160     10.514320
     -2.037037      3.502335      3.502335      7.004671
     -2.027027      2.163686      2.163686      4.327372
     -2.017017      1.238330      1.238330      2.476661
     -2.007007      0.659488      0.659488      1.318976
     -1.996997      0.337058      0.337058      0.674115
     -1.986987      0.192422      0.192422      0.384844
     -1.976977      0.179846      0.179846      0.359691
     -1.966967      0.296301      0.296301      0.592602
     -1.956957      0.583894      0.583894      1.167788
     -1.946947      1.125776      1.125776      2.251552
     -1.936937      2.032005      2.032005      4.064010
     -1.926927      3.410939      3.410939      6.821878
     -1.916917      5.327027      5.327027     10.654053
     -1.906907      7.755639      7.755639     15.511279
     -1.896897     10.553772     10.553772     21.107544
     -1.886887     13.464757     13.464757     26.929514
     -1.876877     16.163187     16.163187     32.326375
     -1.866867     18.328921     18.328921     36.657843
     -1.856857     19.726640     19.726640     39.453280
     -1.846847     20.266018     20.266018     40.532035
     -1.836837     20.024427     20.024427     40.048855
     -1.826827     19.223108     19.223108     38.446217
     -1.816817     18.157586     18.157586     36.315173
     -1.806807     17.097739     17.097739     34.195478
     -1.796797     16.191276     16.191276     32.382553
     -1.786787     15.414318     15.414318     30.828637
     -1.776777     14.599079     14.599079     29.198158
     -1.766767     13.531100     13.531100     27.062200
     -1.756757     12.068656     12.068656     24.137312
     -1.746747     10.223630     10.223630     20.447261
     -1.736737      8.167634      8.167634     16.335269
     -1.726727      6.172413      6.172413     12.344827
     -1.716717      4.527812      4.527812      9.055624
     -1.706707      3.482247      3.482247      6.964494
     -1.696697      3.223206      3.223206      6.446411
     -1.686687      3.881201      3.881201      7.762402
     -1.676677      5.523757      5.523757     11.047514
     -1.666667      8.116849      8.116849     16.233699
     -1.656657     11.462831     11.462831     22.925663
     -1.646647     15.156202     15.156202     30.312404
     -1.636637     18.608564     18.608564     37.217127
     -1.626627     21.168939     21.168939     42.337879
