# EIG2DOS: Utility for SIESTA to obtain the electronic density of states
#  E. Artacho, Apr 1999, A. Garcia, Apr 2012
#  Nick R. Papior, Feb 2017
# ------------------------------------------
# Eigenvalues calculated from a non-polarized calculation
# Eigenvalues read from siesta.EIG
# Kpoint weights read from siesta.KP
# Using smearing parameter:   0.0500
# Using 1000 points in the energy range
# Selected bands: 1 to: 2981
# Emin, Emax in file for selected band(s):    -27.2070187    218.3587080
# Nbands, Nspin, Nk   =   2981     1     1
# E_F                 =    -4.2414 eV --> (shifted to ZERO)
# Broadening          =     0.0500 eV
#
#        E            N(up)  (=)   N(down)         Ntot
     -5.000000     33.268513     33.268513     66.537025
     -4.989990     37.687042     37.687042     75.374083
     -4.979980     41.667630     41.667630     83.335259
     -4.969970     44.516578     44.516578     89.033157
     -4.959960     45.706612     45.706612     91.413223
     -4.949950     45.038635     45.038635     90.077271
     -4.939940     42.706823     42.706823     85.413645
     -4.929930     39.255236     39.255236     78.510473
     -4.919920     35.461922     35.461922     70.923843
     -4.909910     32.199359     32.199359     64.398719
     -4.899900     30.296586     30.296586     60.593171
     -4.889890     30.396813     30.396813     60.793625
     -4.879880     32.800923     32.800923     65.601847
     -4.869870     37.322402     37.322402     74.644803
     -4.859860     43.224571     43.224571     86.449143
     -4.849850     49.318734     49.318734     98.637469
     -4.839840     54.245562     54.245562    108.491123
     -4.829830     56.864844     56.864844    113.729688
     -4.819820     56.602101     56.602101    113.204203
     -4.809810     53.601501     53.601501    107.203002
     -4.799800     48.621363     48.621363     97.242726
     -4.789790     42.731631     42.731631     85.463262
     -4.779780     36.958250     36.958250     73.916500
     -4.769770     32.020946     32.020946     64.041892
     -4.759760     28.239116     28.239116     56.478232
     -4.749750     25.589186     25.589186     51.178372
     -4.739740     23.839541     23.839541     47.679082
     -4.729730     22.684982     22.684982     45.369965
     -4.719720     21.834680     21.834680     43.669359
     -4.709710     21.047160     21.047160     42.094320
     -4.699700     20.133970     20.133970     40.267939
     -4.689690     18.963768     18.963768     37.927535
     -4.679680     17.490579     17.490579     34.981157
     -4.669670     15.807762     15.807762     31.615524
     -4.659660     14.203861     14.203861     28.407723
     -4.649650     13.181947     13.181947     26.363893
     -4.639640     13.407999     13.407999     26.815997
     -4.629630     15.573239     15.573239     31.146478
     -4.619620     20.183250     20.183250     40.366501
     -4.609610     27.320414     27.320414     54.640829
     -4.599600     36.461351     36.461351     72.922701
     -4.589590     46.449736     46.449736     92.899473
     -4.579580     55.697895     55.697895    111.395790
     -4.569570     62.603858     62.603858    125.207717
     -4.559560     66.054336     66.054336    132.108672
     -4.549550     65.807554     65.807554    131.615107
     -4.539540     62.575251     62.575251    125.150501
     -4.529530     57.752076     57.752076    115.504152
     -4.519520     52.904939     52.904939    105.809879
     -4.509510     49.241329     49.241329     98.482659
     -4.499499     47.269157     47.269157     94.538315
     -4.489489     46.755536     46.755536     93.511071
     -4.479479     46.953163     46.953163     93.906327
     -4.469469     46.961115     46.961115     93.922230
     -4.459459     46.060428     46.060428     92.120856
     -4.449449     43.909879     43.909879     87.819758
     -4.439439     40.569522     40.569522     81.139044
     -4.429429     36.396081     36.396081     72.792163
     -4.419419     31.892487     31.892487     63.784975
     -4.409409     27.583329     27.583329     55.166659
     -4.399399     23.943521     23.943521     47.887042
     -4.389389     21.361488     21.361488     42.722977
     -4.379379     20.101415     20.101415     40.202831
     -4.369369     20.249997     20.249997     40.499993
     -4.359359     21.670935     21.670935     43.341871
     -4.349349     24.010994     24.010994     48.021988
     -4.339339     26.784551     26.784551     53.569101
     -4.329329     29.519244     29.519244     59.038488
     -4.319319     31.905000     31.905000     63.809999
     -4.309309     33.880289     33.880289     67.760578
     -4.299299     35.616804     35.616804     71.233607
     -4.289289     37.407601     37.407601     74.815202
     -4.279279     39.500479     39.500479     79.000957
     -4.269269     41.936638     41.936638     83.873276
     -4.259259     44.456364     44.456364     88.912729
     -4.249249     46.520418     46.520418     93.040836
     -4.239239     47.463262     47.463262     94.926523
     -4.229229     46.740388     46.740388     93.480777
     -4.219219     44.175106     44.175106     88.350212
     -4.209209     40.087293     40.087293     80.174586
     -4.199199     35.226869     35.226869     70.453738
     -4.189189     30.527713     30.527713     61.055427
     -4.179179     26.791512     26.791512     53.583023
     -4.169169     24.446871     24.446871     48.893742
     -4.159159     23.485344     23.485344     46.970687
     -4.149149     23.582350     23.582350     47.164700
     -4.139139     24.323187     24.323187     48.646375
     -4.129129     25.415137     25.415137     50.830273
     -4.119119     26.785580     26.785580     53.571161
     -4.109109     28.526102     28.526102     57.052203
     -4.099099     30.717524     30.717524     61.435048
     -4.089089     33.233289     33.233289     66.466579
     -4.079079     35.640383     35.640383     71.280766
     -4.069069     37.278026     37.278026     74.556052
     -4.059059     37.502006     37.502006     75.004012
     -4.049049     35.982664     35.982664     71.965328
     -4.039039     32.900721     32.900721     65.801441
     -4.029029     28.932683     28.932683     57.865367
     -4.019019     25.031228     25.031228     50.062456
     -4.009009     22.113673     22.113673     44.227347
     -3.998999     20.806861     20.806861     41.613721
     -3.988989     21.345202     21.345202     42.690404
     -3.978979     23.623485     23.623485     47.246971
     -3.968969     27.331431     27.331431     54.662862
     -3.958959     32.083043     32.083043     64.166085
     -3.948949     37.494178     37.494178     74.988356
     -3.938939     43.215433     43.215433     86.430866
     -3.928929     48.952235     48.952235     97.904470
     -3.918919     54.487668     54.487668    108.975337
     -3.908909     59.690111     59.690111    119.380223
     -3.898899     64.474622     64.474622    128.949245
     -3.888889     68.712212     68.712212    137.424424
     -3.878879     72.127414     72.127414    144.254828
     -3.868869     74.254269     74.254269    148.508538
     -3.858859     74.506079     74.506079    149.012158
     -3.848849     72.358371     72.358371    144.716743
     -3.838839     67.579181     67.579181    135.158361
     -3.828829     60.404760     60.404760    120.809519
     -3.818819     51.573921     51.573921    103.147843
     -3.808809     42.192929     42.192929     84.385858
     -3.798799     33.474235     33.474235     66.948471
     -3.788789     26.440889     26.440889     52.881777
     -3.778779     21.694264     21.694264     43.388529
     -3.768769     19.310379     19.310379     38.620758
     -3.758759     18.880939     18.880939     37.761878
     -3.748749     19.672263     19.672263     39.344526
     -3.738739     20.850228     20.850228     41.700455
     -3.728729     21.712251     21.712251     43.424501
     -3.718719     21.872042     21.872042     43.744084
     -3.708709     21.354487     21.354487     42.708975
     -3.698699     20.575190     20.575190     41.150380
     -3.688689     20.202909     20.202909     40.405818
     -3.678679     20.933359     20.933359     41.866717
     -3.668669     23.234812     23.234812     46.469624
     -3.658659     27.147858     27.147858     54.295716
     -3.648649     32.217500     32.217500     64.435000
     -3.638639     37.595627     37.595627     75.191253
     -3.628629     42.284572     42.284572     84.569143
     -3.618619     45.429136     45.429136     90.858272
     -3.608609     46.542790     46.542790     93.085579
     -3.598599     45.590196     45.590196     91.180392
     -3.588589     42.920879     42.920879     85.841758
     -3.578579     39.111314     39.111314     78.222628
     -3.568569     34.790232     34.790232     69.580464
     -3.558559     30.497739     30.497739     60.995478
     -3.548549     26.595250     26.595250     53.190500
     -3.538539     23.227813     23.227813     46.455626
     -3.528529     20.341906     20.341906     40.683812
     -3.518519     17.759337     17.759337     35.518674
     -3.508509     15.288993     15.288993     30.577986
     -3.498498     12.834923     12.834923     25.669846
     -3.488488     10.454635     10.454635     20.909271
     -3.478478      8.344571      8.344571     16.689142
     -3.468468      6.765214      6.765214     13.530427
     -3.458458      5.942119      5.942119     11.884237
     -3.448448      5.980114      5.980114     11.960227
     -3.438438      6.814687      6.814687     13.629374
     -3.428428      8.211988      8.211988     16.423977
     -3.418418      9.821563      9.821563     19.643125
     -3.408408     11.276430     11.276430     22.552861
     -3.398398     12.316934     12.316934     24.633868
     -3.388388     12.895033     12.895033     25.790067
     -3.378378     13.211922     13.211922     26.423844
     -3.368368     13.664876     13.664876     27.329751
     -3.358358     14.719632     14.719632     29.439263
     -3.348348     16.756885     16.756885     33.513771
     -3.338338     19.945098     19.945098     39.890196
     -3.328328     24.169283     24.169283     48.338565
     -3.318318     29.020045     29.020045     58.040091
     -3.308308     33.840221     33.840221     67.680441
     -3.298298     37.834896     37.834896     75.669793
     -3.288288     40.248835     40.248835     80.497669
     -3.278278     40.583310     40.583310     81.166620
     -3.268268     38.776511     38.776511     77.553023
     -3.258258     35.252250     35.252250     70.504501
     -3.248248     30.785701     30.785701     61.571402
     -3.238238     26.228427     26.228427     52.456855
     -3.228228     22.217876     22.217876     44.435752
     -3.218218     19.008801     19.008801     38.017603
     -3.208208     16.495013     16.495013     32.990026
     -3.198198     14.386103     14.386103     28.772207
     -3.188188     12.431970     12.431970     24.863940
     -3.178178     10.585645     10.585645     21.171291
     -3.168168      9.049298      9.049298     18.098595
     -3.158158      8.213782      8.213782     16.427565
     -3.148148      8.537907      8.537907     17.075815
     -3.138138     10.410717     10.410717     20.821433
     -3.128128     14.020473     14.020473     28.040945
     -3.118118     19.245806     19.245806     38.491612
     -3.108108     25.596063     25.596063     51.192126
     -3.098098     32.241102     32.241102     64.482204
     -3.088088     38.158618     38.158618     76.317236
     -3.078078     42.380302     42.380302     84.760603
     -3.068068     44.258826     44.258826     88.517653
     -3.058058     43.646579     43.646579     87.293158
     -3.048048     40.903801     40.903801     81.807602
     -3.038038     36.731582     36.731582     73.463165
     -3.028028     31.911197     31.911197     63.822394
     -3.018018     27.073666     27.073666     54.147332
     -3.008008     22.596682     22.596682     45.193364
     -2.997998     18.648739     18.648739     37.297479
     -2.987988     15.322070     15.322070     30.644140
     -2.977978     12.761816     12.761816     25.523633
     -2.967968     11.219867     11.219867     22.439734
     -2.957958     11.013350     11.013350     22.026701
     -2.947948     12.414287     12.414287     24.828574
     -2.937938     15.518736     15.518736     31.037473
     -2.927928     20.144017     20.144017     40.288033
     -2.917918     25.793048     25.793048     51.586096
     -2.907908     31.710287     31.710287     63.420574
     -2.897898     37.030057     37.030057     74.060113
     -2.887888     40.984168     40.984168     81.968335
     -2.877878     43.102874     43.102874     86.205747
     -2.867868     43.331683     43.331683     86.663366
     -2.857858     42.010846     42.010846     84.021693
     -2.847848     39.719828     39.719828     79.439656
     -2.837838     37.050660     37.050660     74.101321
     -2.827828     34.408881     34.408881     68.817762
     -2.817818     31.927457     31.927457     63.854914
     -2.807808     29.521892     29.521892     59.043783
     -2.797798     27.042953     27.042953     54.085907
     -2.787788     24.436146     24.436146     48.872291
     -2.777778     21.820162     21.820162     43.640324
     -2.767768     19.447914     19.447914     38.895828
     -2.757758     17.583443     17.583443     35.166885
     -2.747748     16.375686     16.375686     32.751373
     -2.737738     15.807752     15.807752     31.615503
     -2.727728     15.749378     15.749378     31.498755
     -2.717718     16.071924     16.071924     32.143849
     -2.707708     16.743085     16.743085     33.486170
     -2.697698     17.831740     17.831740     35.663480
     -2.687688     19.415839     19.415839     38.831678
     -2.677678     21.457352     21.457352     42.914704
     -2.667668     23.738231     23.738231     47.476462
     -2.657658     25.915443     25.915443     51.830886
     -2.647648     27.672523     27.672523     55.345046
     -2.637638     28.875260     28.875260     57.750520
     -2.627628     29.631167     29.631167     59.262335
     -2.617618     30.214265     30.214265     60.428530
     -2.607608     30.904376     30.904376     61.808752
     -2.597598     31.840081     31.840081     63.680162
     -2.587588     32.962901     32.962901     65.925802
     -2.577578     34.059966     34.059966     68.119933
     -2.567568     34.852032     34.852032     69.704064
     -2.557558     35.067471     35.067471     70.134943
     -2.547548     34.484515     34.484515     68.969031
     -2.537538     32.966728     32.966728     65.933457
     -2.527528     30.518757     30.518757     61.037513
     -2.517518     27.351649     27.351649     54.703299
     -2.507508     23.909007     23.909007     47.818013
     -2.497497     20.805972     20.805972     41.611945
     -2.487487     18.676863     18.676863     37.353726
     -2.477477     17.982973     17.982973     35.965946
     -2.467467     18.862071     18.862071     37.724142
     -2.457457     21.088102     21.088102     42.176205
     -2.447447     24.162657     24.162657     48.325315
     -2.437437     27.502466     27.502466     55.004932
     -2.427427     30.644355     30.644355     61.288709
     -2.417417     33.378907     33.378907     66.757814
     -2.407407     35.753008     35.753008     71.506017
     -2.397397     37.940060     37.940060     75.880120
     -2.387387     40.040664     40.040664     80.081328
     -2.377377     41.915851     41.915851     83.831702
     -2.367367     43.147345     43.147345     86.294689
     -2.357357     43.162645     43.162645     86.325290
     -2.347347     41.479856     41.479856     82.959712
     -2.337337     37.959975     37.959975     75.919950
     -2.327327     32.943016     32.943016     65.886032
     -2.317317     27.199951     27.199951     54.399902
     -2.307307     21.724140     21.724140     43.448280
     -2.297297     17.458758     17.458758     34.917517
     -2.287287     15.070630     15.070630     30.141260
     -2.277277     14.838098     14.838098     29.676196
     -2.267267     16.658042     16.658042     33.316085
     -2.257257     20.133436     20.133436     40.266871
     -2.247247     24.692068     24.692068     49.384137
     -2.237237     29.698782     29.698782     59.397563
     -2.227227     34.540836     34.540836     69.081673
     -2.217217     38.680601     38.680601     77.361201
     -2.207207     41.681853     41.681853     83.363706
     -2.197197     43.225981     43.225981     86.451962
     -2.187187     43.136804     43.136804     86.273608
     -2.177177     41.420801     41.420801     82.841602
     -2.167167     38.305074     38.305074     76.610149
     -2.157157     34.234539     34.234539     68.469078
     -2.147147     29.794278     29.794278     59.588556
     -2.137137     25.560317     25.560317     51.120635
     -2.127127     21.932465     21.932465     43.864931
     -2.117117     19.028967     19.028967     38.057934
     -2.107107     16.699096     16.699096     33.398191
     -2.097097     14.646865     14.646865     29.293730
     -2.087087     12.598074     12.598074     25.196147
     -2.077077     10.424705     10.424705     20.849410
     -2.067067      8.174398      8.174398     16.348796
     -2.057057      6.011353      6.011353     12.022706
     -2.047047      4.118781      4.118781      8.237563
     -2.037037      2.619110      2.619110      5.238220
     -2.027027      1.542655      1.542655      3.085311
     -2.017017      0.842228      0.842228      1.684456
     -2.007007      0.431175      0.431175      0.862350
     -1.996997      0.221599      0.221599      0.443198
     -1.986987      0.150412      0.150412      0.300824
     -1.976977      0.192473      0.192473      0.384947
     -1.966967      0.365502      0.365502      0.731004
     -1.956957      0.730143      0.730143      1.460286
     -1.946947      1.383847      1.383847      2.767694
     -1.936937      2.443723      2.443723      4.887445
     -1.926927      4.015016      4.015016      8.030033
     -1.916917      6.149444      6.149444     12.298888
     -1.906907      8.807666      8.807666     17.615331
     -1.896897     11.845395     11.845395     23.690791
     -1.886887     15.036271     15.036271     30.072543
     -1.876877     18.127308     18.127308     36.254616
     -1.866867     20.904207     20.904207     41.808414
     -1.856857     23.236825     23.236825     46.473651
     -1.846847     25.085074     25.085074     50.170149
     -1.836837     26.466049     26.466049     52.932098
     -1.826827     27.401441     27.401441     54.802883
     -1.816817     27.871389     27.871389     55.742778
     -1.806807     27.796314     27.796314     55.592628
     -1.796797     27.056470     27.056470     54.112940
     -1.786787     25.544089     25.544089     51.088178
     -1.776777     23.228627     23.228627     46.457255
     -1.766767     20.206788     20.206788     40.413577
     -1.756757     16.711811     16.711811     33.423622
     -1.746747     13.073064     13.073064     26.146129
     -1.736737      9.640570      9.640570     19.281141
     -1.726727      6.706572      6.706572     13.413145
     -1.716717      4.456695      4.456695      8.913390
     -1.706707      2.966095      2.966095      5.932191
     -1.696697      2.231618      2.231618      4.463236
     -1.686687      2.213369      2.213369      4.426738
     -1.676677      2.857335      2.857335      5.714671
     -1.666667      4.084837      4.084837      8.169674
     -1.656657      5.757331      5.757331     11.514662
     -1.646647      7.644899      7.644899     15.289798
     -1.636637      9.432038      9.432038     18.864076
     -1.626627     10.779140     10.779140     21.558280
