# EIG2DOS: Utility for SIESTA to obtain the electronic density of states
#  E. Artacho, Apr 1999, A. Garcia, Apr 2012
#  Nick R. Papior, Feb 2017
# ------------------------------------------
# Eigenvalues calculated from a non-polarized calculation
# Eigenvalues read from siesta.EIG
# Kpoint weights read from siesta.KP
# Using smearing parameter:   0.0500
# Using 1000 points in the energy range
# Selected bands: 1 to: 2981
# Emin, Emax in file for selected band(s):    -27.1309868    218.3480690
# Nbands, Nspin, Nk   =   2981     1     1
# E_F                 =    -4.2564 eV --> (shifted to ZERO)
# Broadening          =     0.0500 eV
#
#        E            N(up)  (=)   N(down)         Ntot
     -5.000000     34.134175     34.134175     68.268350
     -4.989990     37.765068     37.765068     75.530136
     -4.979980     40.826694     40.826694     81.653388
     -4.969970     42.864354     42.864354     85.728707
     -4.959960     43.552229     43.552229     87.104458
     -4.949950     42.786934     42.786934     85.573867
     -4.939940     40.729278     40.729278     81.458556
     -4.929930     37.787951     37.787951     75.575903
     -4.919920     34.563091     34.563091     69.126182
     -4.909910     31.771177     31.771177     63.542355
     -4.899900     30.154704     30.154704     60.309409
     -4.889890     30.359672     30.359672     60.719344
     -4.879880     32.768306     32.768306     65.536612
     -4.869870     37.314810     37.314810     74.629619
     -4.859860     43.365627     43.365627     86.731254
     -4.849850     49.764826     49.764826     99.529652
     -4.839840     55.093737     55.093737    110.187475
     -4.829830     58.084886     58.084886    116.169772
     -4.819820     58.028132     58.028132    116.056265
     -4.809810     54.986003     54.986003    109.972005
     -4.799800     49.721080     49.721080     99.442160
     -4.789790     43.382579     43.382579     86.765158
     -4.779780     37.111131     37.111131     74.222261
     -4.769770     31.734415     31.734415     63.468830
     -4.759760     27.646914     27.646914     55.293827
     -4.749750     24.859553     24.859553     49.719107
     -4.739740     23.137701     23.137701     46.275402
     -4.729730     22.142714     22.142714     44.285428
     -4.719720     21.529870     21.529870     43.059740
     -4.709710     20.997020     20.997020     41.994039
     -4.699700     20.302978     20.302978     40.605955
     -4.689690     19.281051     19.281051     38.562103
     -4.679680     17.865888     17.865888     35.731777
     -4.669670     16.135011     16.135011     32.270023
     -4.659660     14.346791     14.346791     28.693582
     -4.649650     12.945178     12.945178     25.890355
     -4.639640     12.506185     12.506185     25.012370
     -4.629630     13.619674     13.619674     27.239347
     -4.619620     16.723803     16.723803     33.447606
     -4.609610     21.931944     21.931944     43.863889
     -4.599600     28.909566     28.909566     57.819133
     -4.589590     36.863963     36.863963     73.727925
     -4.579580     44.688648     44.688648     89.377296
     -4.569570     51.249123     51.249123    102.498246
     -4.559560     55.723865     55.723865    111.447731
     -4.549550     57.864805     57.864805    115.729611
     -4.539540     58.055326     58.055326    116.110652
     -4.529530     57.127306     57.127306    114.254613
     -4.519520     56.011961     56.011961    112.023921
     -4.509510     55.378625     55.378625    110.757250
     -4.499499     55.415503     55.415503    110.831007
     -4.489489     55.828909     55.828909    111.657818
     -4.479479     56.030118     56.030118    112.060235
     -4.469469     55.401698     55.401698    110.803397
     -4.459459     53.523052     53.523052    107.046104
     -4.449449     50.281043     50.281043    100.562086
     -4.439439     45.859460     45.859460     91.718919
     -4.429429     40.652098     40.652098     81.304195
     -4.419419     35.158751     35.158751     70.317502
     -4.409409     29.904401     29.904401     59.808802
     -4.399399     25.387696     25.387696     50.775392
     -4.389389     22.038198     22.038198     44.076395
     -4.379379     20.159679     20.159679     40.319358
     -4.369369     19.859772     19.859772     39.719543
     -4.359359     20.996899     20.996899     41.993799
     -4.349349     23.187904     23.187904     46.375807
     -4.339339     25.899519     25.899519     51.799037
     -4.329329     28.603441     28.603441     57.206882
     -4.319319     30.936216     30.936216     61.872432
     -4.309309     32.797223     32.797223     65.594447
     -4.299299     34.345005     34.345005     68.690011
     -4.289289     35.895421     35.895421     71.790843
     -4.279279     37.760333     37.760333     75.520667
     -4.269269     40.081201     40.081201     80.162402
     -4.259259     42.712744     42.712744     85.425488
     -4.249249     45.204327     45.204327     90.408654
     -4.239239     46.906592     46.906592     93.813184
     -4.229229     47.188736     47.188736     94.377471
     -4.219219     45.694100     45.694100     91.388200
     -4.209209     42.520903     42.520903     85.041806
     -4.199199     38.229872     38.229872     76.459743
     -4.189189     33.659177     33.659177     67.318353
     -4.179179     29.628567     29.628567     59.257133
     -4.169169     26.674128     26.674128     53.348255
     -4.159159     24.933585     24.933585     49.867170
     -4.149149     24.216080     24.216080     48.432160
     -4.139139     24.196041     24.196041     48.392082
     -4.129129     24.619898     24.619898     49.239796
     -4.119119     25.423107     25.423107     50.846213
     -4.109109     26.706801     26.706801     53.413602
     -4.099099     28.591415     28.591415     57.182830
     -4.089089     31.025293     31.025293     62.050585
     -4.079079     33.657525     33.657525     67.315051
     -4.069069     35.865281     35.865281     71.730561
     -4.059059     36.952501     36.952501     73.905002
     -4.049049     36.439228     36.439228     72.878455
     -4.039039     34.296997     34.296997     68.593994
     -4.029029     31.003466     31.003466     62.006933
     -4.019019     27.385253     27.385253     54.770506
     -4.009009     24.332896     24.332896     48.665793
     -3.998999     22.532142     22.532142     45.064283
     -3.988989     22.326816     22.326816     44.653631
     -3.978979     23.738026     23.738026     47.476052
     -3.968969     26.577778     26.577778     53.155557
     -3.958959     30.566402     30.566402     61.132803
     -3.948949     35.398662     35.398662     70.797324
     -3.938939     40.763590     40.763590     81.527181
     -3.928929     46.357303     46.357303     92.714606
     -3.918919     51.914627     51.914627    103.829254
     -3.908909     57.244514     57.244514    114.489028
     -3.898899     62.227842     62.227842    124.455685
     -3.888889     66.751301     66.751301    133.502602
     -3.878879     70.598940     70.598940    141.197879
     -3.868869     73.367975     73.367975    146.735949
     -3.858859     74.482438     74.482438    148.964877
     -3.848849     73.336579     73.336579    146.673157
     -3.838839     69.529676     69.529676    139.059351
     -3.828829     63.094160     63.094160    126.188321
     -3.818819     54.605764     54.605764    109.211529
     -3.808809     45.109520     45.109520     90.219040
     -3.798799     35.876729     35.876729     71.753457
     -3.788789     28.081781     28.081781     56.163563
     -3.778779     22.515866     22.515866     45.031731
     -3.768769     19.428618     19.428618     38.857237
     -3.758759     18.531056     18.531056     37.062112
     -3.748749     19.137157     19.137157     38.274314
     -3.738739     20.388744     20.388744     40.777488
     -3.728729     21.500236     21.500236     43.000471
     -3.718719     21.966184     21.966184     43.932367
     -3.708709     21.686176     21.686176     43.372351
     -3.698699     20.976709     20.976709     41.953417
     -3.688689     20.460882     20.460882     40.921764
     -3.678679     20.856308     20.856308     41.712617
     -3.668669     22.715781     22.715781     45.431562
     -3.658659     26.202364     26.202364     52.404728
     -3.648649     30.983652     30.983652     61.967304
     -3.638639     36.296150     36.296150     72.592300
     -3.628629     41.164858     41.164858     82.329716
     -3.618619     44.693994     44.693994     89.387988
     -3.608609     46.312441     46.312441     92.624881
     -3.598599     45.885030     45.885030     91.770059
     -3.588589     43.672003     43.672003     87.344006
     -3.578579     40.187344     40.187344     80.374689
     -3.568569     36.031328     36.031328     72.062655
     -3.558559     31.750823     31.750823     63.501646
     -3.548549     27.744843     27.744843     55.489686
     -3.538539     24.215099     24.215099     48.430198
     -3.528529     21.165172     21.165172     42.330344
     -3.518519     18.454940     18.454940     36.909880
     -3.508509     15.901079     15.901079     31.802158
     -3.498498     13.387800     13.387800     26.775600
     -3.488488     10.939608     10.939608     21.879216
     -3.478478      8.724729      8.724729     17.449458
     -3.468468      6.993159      6.993159     13.986318
     -3.458458      5.981788      5.981788     11.963575
     -3.448448      5.824986      5.824986     11.649973
     -3.438438      6.497435      6.497435     12.994870
     -3.428428      7.802401      7.802401     15.604803
     -3.418418      9.411069      9.411069     18.822139
     -3.408408     10.950967     10.950967     21.901935
     -3.398398     12.125582     12.125582     24.251163
     -3.388388     12.826314     12.826314     25.652627
     -3.378378     13.188576     13.188576     26.377151
     -3.368368     13.560586     13.560586     27.121173
     -3.358358     14.391961     14.391961     28.783921
     -3.348348     16.085801     16.085801     32.171603
     -3.338338     18.868026     18.868026     37.736052
     -3.328328     22.707329     22.707329     45.414658
     -3.318318     27.289773     27.289773     54.579547
     -3.308308     32.040180     32.040180     64.080359
     -3.298298     36.193726     36.193726     72.387451
     -3.288288     38.932326     38.932326     77.864651
     -3.278278     39.582712     39.582712     79.165423
     -3.268268     37.826311     37.826311     75.652622
     -3.258258     33.832042     33.832042     67.664084
     -3.248248     28.235565     28.235565     56.471131
     -3.238238     21.958500     21.958500     43.917001
     -3.228228     15.944856     15.944856     31.889712
     -3.218218     10.930671     10.930671     21.861342
     -3.208208      7.331730      7.331730     14.663459
     -3.198198      5.260435      5.260435     10.520869
     -3.188188      4.619307      4.619307      9.238613
     -3.178178      5.201622      5.201622     10.403244
     -3.168168      6.757962      6.757962     13.515925
     -3.158158      9.030683      9.030683     18.061367
     -3.148148     11.783104     11.783104     23.566208
     -3.138138     14.841676     14.841676     29.683351
     -3.128128     18.138619     18.138619     36.277238
     -3.118118     21.717812     21.717812     43.435624
     -3.108108     25.673351     25.673351     51.346702
     -3.098098     30.030013     30.030013     60.060026
     -3.088088     34.621756     34.621756     69.243513
     -3.078078     39.041933     39.041933     78.083867
     -3.068068     42.708662     42.708662     85.417323
     -3.058058     45.026617     45.026617     90.053233
     -3.048048     45.572119     45.572119     91.144238
     -3.038038     44.217032     44.217032     88.434064
     -3.028028     41.144429     41.144429     82.288857
     -3.018018     36.768929     36.768929     73.537857
     -3.008008     31.618341     31.618341     63.236681
     -2.997998     26.236876     26.236876     52.473752
     -2.987988     21.138908     21.138908     42.277816
     -2.977978     16.802613     16.802613     33.605226
     -2.967968     13.670761     13.670761     27.341521
     -2.957958     12.129213     12.129213     24.258426
     -2.947948     12.452558     12.452558     24.905116
     -2.937938     14.726932     14.726932     29.453864
     -2.927928     18.775617     18.775617     37.551234
     -2.917918     24.122073     24.122073     48.244147
     -2.907908     30.024372     30.024372     60.048745
     -2.897898     35.597974     35.597974     71.195947
     -2.887888     40.009306     40.009306     80.018612
     -2.877878     42.683124     42.683124     85.366249
     -2.867868     43.445117     43.445117     86.890234
     -2.857858     42.536347     42.536347     85.072694
     -2.847848     40.486960     40.486960     80.973920
     -2.837838     37.900020     37.900020     75.800041
     -2.827828     35.238921     35.238921     70.477842
     -2.817818     32.709384     32.709384     65.418769
     -2.807808     30.279073     30.279073     60.558147
     -2.797798     27.808583     27.808583     55.617167
     -2.787788     25.213500     25.213500     50.427001
     -2.777778     22.567053     22.567053     45.134106
     -2.767768     20.091741     20.091741     40.183482
     -2.757758     18.054327     18.054327     36.108653
     -2.747748     16.634278     16.634278     33.268556
     -2.737738     15.848867     15.848867     31.697734
     -2.727728     15.580324     15.580324     31.160648
     -2.717718     15.683849     15.683849     31.367697
     -2.707708     16.101262     16.101262     32.202523
     -2.697698     16.899474     16.899474     33.798948
     -2.687688     18.202175     18.202175     36.404351
     -2.677678     20.057145     20.057145     40.114290
     -2.667668     22.330942     22.330942     44.661884
     -2.657658     24.711280     24.711280     49.422560
     -2.647648     26.828797     26.828797     53.657593
     -2.637638     28.428754     28.428754     56.857509
     -2.627628     29.486117     29.486117     58.972234
     -2.617618     30.192637     30.192637     60.385274
     -2.607608     30.828329     30.828329     61.656659
     -2.597598     31.601753     31.601753     63.203507
     -2.587588     32.552599     32.552599     65.105198
     -2.577578     33.554619     33.554619     67.109238
     -2.567568     34.385681     34.385681     68.771362
     -2.557558     34.801706     34.801706     69.603412
     -2.547548     34.579184     34.579184     69.158368
     -2.537538     33.541470     33.541470     67.082939
     -2.527528     31.605172     31.605172     63.210343
     -2.517518     28.854759     28.854759     57.709518
     -2.507508     25.604895     25.604895     51.209790
     -2.497497     22.389256     22.389256     44.778513
     -2.487487     19.844970     19.844970     39.689940
     -2.477477     18.523177     18.523177     37.046355
     -2.467467     18.705479     18.705479     37.410959
     -2.457457     20.311504     20.311504     40.623008
     -2.447447     22.943069     22.943069     45.886138
     -2.437437     26.047849     26.047849     52.095699
     -2.427427     29.130373     29.130373     58.260747
     -2.417417     31.915300     31.915300     63.830599
     -2.407407     34.388538     34.388538     68.777076
     -2.397397     36.698632     36.698632     73.397265
     -2.387387     38.968926     38.968926     77.937851
     -2.377377     41.117655     41.117655     82.235309
     -2.367367     42.784182     42.784182     85.568365
     -2.357357     43.411934     43.411934     86.823868
     -2.347347     42.462797     42.462797     84.925594
     -2.337337     39.669835     39.669835     79.339670
     -2.327327     35.210868     35.210868     70.421735
     -2.317317     29.720251     29.720251     59.440502
     -2.307307     24.132907     24.132907     48.265814
     -2.297297     19.430363     19.430363     38.860726
     -2.287287     16.392207     16.392207     32.784414
     -2.277277     15.436023     15.436023     30.872046
     -2.267267     16.576823     16.576823     33.153646
     -2.257257     19.487929     19.487929     38.975858
     -2.247247     23.620294     23.620294     47.240587
     -2.237237     28.335462     28.335462     56.670924
     -2.227227     33.017188     33.017188     66.034375
     -2.217217     37.140728     37.140728     74.281455
     -2.207207     40.296545     40.296545     80.593091
     -2.197197     42.185225     42.185225     84.370450
     -2.187187     42.613857     42.613857     85.227713
     -2.177177     41.518619     41.518619     83.037238
     -2.167167     39.010841     39.010841     78.021683
     -2.157157     35.410032     35.410032     70.820063
     -2.147147     31.214919     31.214919     62.429837
     -2.137137     26.990343     26.990343     53.980687
     -2.127127     23.202451     23.202451     46.404902
     -2.117117     20.079078     20.079078     40.158157
     -2.107107     17.570059     17.570059     35.140118
     -2.097097     15.429303     15.429303     30.858606
     -2.087087     13.371491     13.371491     26.742982
     -2.077077     11.217872     11.217872     22.435745
     -2.067067      8.961489      8.961489     17.922978
     -2.057057      6.736306      6.736306     13.472611
     -2.047047      4.727878      4.727878      9.455757
     -2.037037      3.083578      3.083578      6.167155
     -2.027027      1.863995      1.863995      3.727990
     -2.017017      1.043909      1.043909      2.087818
     -2.007007      0.545189      0.545189      1.090378
     -1.996997      0.276966      0.276966      0.553932
     -1.986987      0.166487      0.166487      0.332975
     -1.976977      0.176407      0.176407      0.352815
     -1.966967      0.312041      0.312041      0.624082
     -1.956957      0.622706      0.622706      1.245412
     -1.946947      1.197153      1.197153      2.394306
     -1.936937      2.148735      2.148735      4.297469
     -1.926927      3.585760      3.585760      7.171520
     -1.916917      5.568487      5.568487     11.136974
     -1.906907      8.064400      8.064400     16.128799
     -1.896897     10.921512     10.921512     21.843024
     -1.886887     13.878283     13.878283     27.756565
     -1.876877     16.616278     16.616278     33.232557
     -1.866867     18.843667     18.843667     37.687334
     -1.856857     20.383621     20.383621     40.767241
     -1.846847     21.237341     21.237341     42.474682
     -1.836837     21.595611     21.595611     43.191221
     -1.826827     21.783069     21.783069     43.566138
     -1.816817     22.137975     22.137975     44.275950
     -1.806807     22.859374     22.859374     45.718748
     -1.796797     23.883899     23.883899     47.767799
     -1.786787     24.862248     24.862248     49.724496
     -1.776777     25.270371     25.270371     50.540742
     -1.766767     24.620905     24.620905     49.241810
     -1.756757     22.677624     22.677624     45.355249
     -1.746747     19.566074     19.566074     39.132149
     -1.736737     15.729099     15.729099     31.458197
     -1.726727     11.761218     11.761218     23.522435
     -1.716717      8.214348      8.214348     16.428696
     -1.706707      5.465395      5.465395     10.930789
     -1.696697      3.684490      3.684490      7.368980
     -1.686687      2.881600      2.881600      5.763200
     -1.676677      2.976003      2.976003      5.952005
     -1.666667      3.839458      3.839458      7.678917
     -1.656657      5.296707      5.296707     10.593413
     -1.646647      7.102911      7.102911     14.205821
     -1.636637      8.936823      8.936823     17.873647
     -1.626627     10.441262     10.441262     20.882524
