# EIG2DOS: Utility for SIESTA to obtain the electronic density of states
#  E. Artacho, Apr 1999, A. Garcia, Apr 2012
#  Nick R. Papior, Feb 2017
# ------------------------------------------
# Eigenvalues calculated from a non-polarized calculation
# Eigenvalues read from siesta.EIG
# Kpoint weights read from siesta.KP
# Using smearing parameter:   0.0500
# Using 1000 points in the energy range
# Selected bands: 1 to: 2981
# Emin, Emax in file for selected band(s):    -27.2511652    218.3677250
# Nbands, Nspin, Nk   =   2981     1     1
# E_F                 =    -4.2351 eV --> (shifted to ZERO)
# Broadening          =     0.0500 eV
#
#        E            N(up)  (=)   N(down)         Ntot
     -5.000000     33.735786     33.735786     67.471573
     -4.989990     38.001064     38.001064     76.002127
     -4.979980     41.681594     41.681594     83.363188
     -4.969970     44.188199     44.188199     88.376398
     -4.959960     45.088426     45.088426     90.176851
     -4.949950     44.247785     44.247785     88.495570
     -4.939940     41.882878     41.882878     83.765756
     -4.929930     38.520269     38.520269     77.040538
     -4.919920     34.895041     34.895041     69.790082
     -4.909910     31.830423     31.830423     63.660846
     -4.899900     30.115856     30.115856     60.231712
     -4.889890     30.372669     30.372669     60.745337
     -4.879880     32.897156     32.897156     65.794312
     -4.869870     37.508910     37.508910     75.017819
     -4.859860     43.479078     43.479078     86.958156
     -4.849850     49.621398     49.621398     99.242795
     -4.839840     54.571669     54.571669    109.143338
     -4.829830     57.181406     57.181406    114.362812
     -4.819820     56.871314     56.871314    113.742628
     -4.809810     53.789327     53.789327    107.578653
     -4.799800     48.706211     48.706211     97.412422
     -4.789790     42.708651     42.708651     85.417302
     -4.779780     36.838227     36.838227     73.676454
     -4.769770     31.826082     31.826082     63.652165
     -4.759760     27.998700     27.998700     55.997400
     -4.749750     25.336756     25.336756     50.673511
     -4.739740     23.612073     23.612073     47.224145
     -4.729730     22.525284     22.525284     45.050568
     -4.719720     21.799728     21.799728     43.599456
     -4.709710     21.225102     21.225102     42.450204
     -4.699700     20.668908     20.668908     41.337816
     -4.689690     20.080041     20.080041     40.160082
     -4.679680     19.499384     19.499384     38.998767
     -4.669670     19.073834     19.073834     38.147669
     -4.659660     19.055289     19.055289     38.110578
     -4.649650     19.766678     19.766678     39.533356
     -4.639640     21.532975     21.532975     43.065951
     -4.629630     24.592181     24.592181     49.184361
     -4.619620     29.006388     29.006388     58.012776
     -4.609610     34.588969     34.588969     69.177939
     -4.599600     40.865068     40.865068     81.730135
     -4.589590     47.093644     47.093644     94.187288
     -4.579580     52.383030     52.383030    104.766060
     -4.569570     55.904904     55.904904    111.809808
     -4.559560     57.154610     57.154610    114.309220
     -4.549550     56.153780     56.153780    112.307559
     -4.539540     53.488751     53.488751    106.977503
     -4.529530     50.140443     50.140443    100.280887
     -4.519520     47.158164     47.158164     94.316327
     -4.509510     45.306389     45.306389     90.612778
     -4.499499     44.827300     44.827300     89.654599
     -4.489489     45.407510     45.407510     90.815021
     -4.479479     46.345848     46.345848     92.691697
     -4.469469     46.836642     46.836642     93.673285
     -4.459459     46.247044     46.247044     92.494088
     -4.449449     44.288479     44.288479     88.576958
     -4.439439     41.044039     41.044039     82.088078
     -4.429429     36.880851     36.880851     73.761703
     -4.419419     32.315628     32.315628     64.631256
     -4.409409     27.897252     27.897252     55.794504
     -4.399399     24.132609     24.132609     48.265218
     -4.389389     21.440792     21.440792     42.881585
     -4.379379     20.106007     20.106007     40.212014
     -4.369369     20.219460     20.219460     40.438920
     -4.359359     21.635424     21.635424     43.270847
     -4.349349     23.983962     23.983962     47.967923
     -4.339339     26.763832     26.763832     53.527663
     -4.329329     29.494366     29.494366     58.988732
     -4.319319     31.866188     31.866188     63.732376
     -4.309309     33.824513     33.824513     67.649027
     -4.299299     35.548403     35.548403     71.096807
     -4.289289     37.334399     37.334399     74.668799
     -4.279279     39.428892     39.428892     78.857785
     -4.269269     41.869538     41.869538     83.739076
     -4.259259     44.395169     44.395169     88.790337
     -4.249249     46.469727     46.469727     92.939454
     -4.239239     47.434430     47.434430     94.868859
     -4.229229     46.750997     46.750997     93.501995
     -4.219219     44.243727     44.243727     88.487453
     -4.209209     40.225497     40.225497     80.450995
     -4.199199     35.431817     35.431817     70.863633
     -4.189189     30.778463     30.778463     61.556927
     -4.179179     27.050978     27.050978     54.101957
     -4.169169     24.669467     24.669467     49.338935
     -4.159159     23.628180     23.628180     47.256360
     -4.149149     23.616040     23.616040     47.232079
     -4.139139     24.238042     24.238042     48.476085
     -4.129129     25.220570     25.220570     50.441140
     -4.119119     26.504114     26.504114     53.008229
     -4.109109     28.186269     28.186269     56.372539
     -4.099099     30.349935     30.349935     60.699870
     -4.089089     32.871054     32.871054     65.742109
     -4.079079     35.321174     35.321174     70.642349
     -4.069069     37.043341     37.043341     74.086682
     -4.059059     37.391076     37.391076     74.782153
     -4.049049     36.022482     36.022482     72.044965
     -4.039039     33.096707     33.096707     66.193414
     -4.029029     29.264378     29.264378     58.528757
     -4.019019     25.454587     25.454587     50.909175
     -4.009009     22.568535     22.568535     45.137069
     -3.998999     21.226992     21.226992     42.453984
     -3.988989     21.668915     21.668915     43.337830
     -3.978979     23.803528     23.803528     47.607056
     -3.968969     27.342737     27.342737     54.685474
     -3.958959     31.926439     31.926439     63.852877
     -3.948949     37.194560     37.194560     74.389119
     -3.938939     42.814505     42.814505     85.629010
     -3.928929     48.497880     48.497880     96.995759
     -3.918919     54.023351     54.023351    108.046701
     -3.908909     59.247981     59.247981    118.495963
     -3.898899     64.074979     64.074979    128.149957
     -3.888889     68.369430     68.369430    136.738860
     -3.878879     71.858726     71.858726    143.717452
     -3.868869     74.084867     74.084867    148.169734
     -3.858859     74.464851     74.464851    148.929702
     -3.848849     72.464239     72.464239    144.928477
     -3.838839     67.825366     67.825366    135.650732
     -3.828829     60.751632     60.751632    121.503265
     -3.818819     51.956859     51.956859    103.913719
     -3.808809     42.542406     42.542406     85.084812
     -3.798799     33.737863     33.737863     67.475725
     -3.788789     26.596758     26.596758     53.193516
     -3.778779     21.751068     21.751068     43.502135
     -3.768769     19.297259     19.297259     38.594518
     -3.758759     18.833858     18.833858     37.667716
     -3.748749     19.622755     19.622755     39.245509
     -3.738739     20.819107     20.819107     41.638214
     -3.728729     21.708005     21.708005     43.416010
     -3.718719     21.892417     21.892417     43.784834
     -3.708709     21.389760     21.389760     42.779521
     -3.698699     20.611968     20.611968     41.223936
     -3.688689     20.227616     20.227616     40.455232
     -3.678679     20.934954     20.934954     41.869907
     -3.668669     23.206678     23.206678     46.413355
     -3.658659     27.089092     27.089092     54.178185
     -3.648649     32.133756     32.133756     64.267512
     -3.638639     37.499217     37.499217     74.998435
     -3.628629     42.193129     42.193129     84.386258
     -3.618619     45.362200     45.362200     90.724400
     -3.608609     46.516582     46.516582     93.033163
     -3.598599     45.612156     45.612156     91.224312
     -3.588589     42.986423     42.986423     85.972846
     -3.578579     39.204792     39.204792     78.409585
     -3.568569     34.890226     34.890226     69.780451
     -3.558559     30.584561     30.584561     61.169123
     -3.548549     26.657307     26.657307     53.314614
     -3.538539     23.264081     23.264081     46.528162
     -3.528529     20.359864     20.359864     40.719728
     -3.518519     17.769904     17.769904     35.539809
     -3.508509     15.301155     15.301155     30.602310
     -3.498498     12.852331     12.852331     25.704663
     -3.488488     10.475083     10.475083     20.950167
     -3.478478      8.361814      8.361814     16.723629
     -3.468468      6.771898      6.771898     13.543796
     -3.458458      5.932644      5.932644     11.865289
     -3.448448      5.952735      5.952735     11.905471
     -3.438438      6.772511      6.772511     13.545022
     -3.428428      8.162625      8.162625     16.325251
     -3.418418      9.775307      9.775307     19.550614
     -3.408408     11.243267     11.243267     22.486534
     -3.398398     12.303420     12.303420     24.606841
     -3.388388     12.902750     12.902750     25.805500
     -3.378378     13.239270     13.239270     26.478541
     -3.368368     13.713533     13.713533     27.427065
     -3.358358     14.806343     14.806343     29.612686
     -3.348348     16.930713     16.930713     33.861426
     -3.338338     20.309018     20.309018     40.618037
     -3.328328     24.901629     24.901629     49.803257
     -3.318318     30.384978     30.384978     60.769955
     -3.308308     36.169560     36.169560     72.339119
     -3.298298     41.462720     41.462720     82.925439
     -3.288288     45.392892     45.392892     90.785784
     -3.278278     47.195560     47.195560     94.391120
     -3.268268     46.418765     46.418765     92.837529
     -3.258258     43.070595     43.070595     86.141191
     -3.248248     37.638313     37.638313     75.276626
     -3.238238     30.962719     30.962719     61.925438
     -3.228228     24.018774     24.018774     48.037548
     -3.218218     17.690888     17.690888     35.381775
     -3.208208     12.619055     12.619055     25.238111
     -3.198198      9.145134      9.145134     18.290267
     -3.188188      7.340386      7.340386     14.680771
     -3.178178      7.072755      7.072755     14.145509
     -3.168168      8.079999      8.079999     16.159998
     -3.158158     10.037514     10.037514     20.075027
     -3.148148     12.624734     12.624734     25.249467
     -3.138138     15.588551     15.588551     31.177101
     -3.128128     18.783276     18.783276     37.566552
     -3.118118     22.157266     22.157266     44.314533
     -3.108108     25.675550     25.675550     51.351100
     -3.098098     29.210766     29.210766     58.421532
     -3.088088     32.470281     32.470281     64.940563
     -3.078078     35.021183     35.021183     70.042366
     -3.068068     36.420385     36.420385     72.840770
     -3.058058     36.387202     36.387202     72.774404
     -3.048048     34.920978     34.920978     69.841955
     -3.038038     32.295710     32.295710     64.591420
     -3.028028     28.939447     28.939447     57.878894
     -3.018018     25.275802     25.275802     50.551603
     -3.008008     21.620307     21.620307     43.240615
     -2.997998     18.178527     18.178527     36.357055
     -2.987988     15.122822     15.122822     30.245644
     -2.977978     12.679797     12.679797     25.359594
     -2.967968     11.164476     11.164476     22.328951
     -2.957958     10.936394     10.936394     21.872788
     -2.947948     12.295049     12.295049     24.590098
     -2.937938     15.355646     15.355646     30.711291
     -2.927928     19.950076     19.950076     39.900151
     -2.917918     25.591770     25.591770     51.183539
     -2.907908     31.530301     31.530301     63.060601
     -2.897898     36.898413     36.898413     73.796826
     -2.887888     40.919750     40.919750     81.839500
     -2.877878     43.111757     43.111757     86.223514
     -2.867868     43.405835     43.405835     86.811670
     -2.857858     42.130633     42.130633     84.261267
     -2.847848     39.859733     39.859733     79.719467
     -2.837838     37.186597     37.186597     74.373194
     -2.827828     34.524774     34.524774     69.049548
     -2.817818     32.018743     32.018743     64.037486
     -2.807808     29.594589     29.594589     59.189178
     -2.797798     27.108838     27.108838     54.217677
     -2.787788     24.506390     24.506390     49.012781
     -2.777778     21.900477     21.900477     43.800954
     -2.767768     19.537286     19.537286     39.074571
     -2.757758     17.676568     17.676568     35.353135
     -2.747748     16.467366     16.467366     32.934732
     -2.737738     15.896827     15.896827     31.793653
     -2.727728     15.840316     15.840316     31.680632
     -2.717718     16.173334     16.173334     32.346667
     -2.707708     16.863533     16.863533     33.727067
     -2.697698     17.974157     17.974157     35.948315
     -2.687688     19.572430     19.572430     39.144860
     -2.677678     21.607319     21.607319     43.214638
     -2.667668     23.850190     23.850190     47.700379
     -2.657658     25.954833     25.954833     51.909667
     -2.647648     27.612021     27.612021     55.224042
     -2.637638     28.704310     28.704310     57.408620
     -2.627628     29.360640     29.360640     58.721280
     -2.617618     29.874197     29.874197     59.748395
     -2.607608     30.535849     30.535849     61.071698
     -2.597598     31.484811     31.484811     62.969622
     -2.587588     32.654776     32.654776     65.309551
     -2.577578     33.821277     33.821277     67.642554
     -2.567568     34.694436     34.694436     69.388872
     -2.557558     34.995298     34.995298     69.990596
     -2.547548     34.497323     34.497323     68.994646
     -2.537538     33.059402     33.059402     66.118803
     -2.527528     30.679879     30.679879     61.359758
     -2.517518     27.562538     27.562538     55.125077
     -2.507508     24.145355     24.145355     48.290709
     -2.497497     21.041919     21.041919     42.083839
     -2.487487     18.889282     18.889282     37.778564
     -2.477477     18.153486     18.153486     36.306971
     -2.467467     18.976019     18.976019     37.952038
     -2.457457     21.131991     21.131991     42.263982
     -2.447447     24.122708     24.122708     48.245416
     -2.437437     27.366074     27.366074     54.732149
     -2.427427     30.404128     30.404128     60.808257
     -2.417417     33.037268     33.037268     66.074535
     -2.407407     35.325313     35.325313     70.650626
     -2.397397     37.455628     37.455628     74.911255
     -2.387387     39.542286     39.542286     79.084571
     -2.377377     41.457869     41.457869     82.915738
     -2.367367     42.790642     42.790642     85.581284
     -2.357357     42.964351     42.964351     85.928703
     -2.347347     41.478183     41.478183     82.956365
     -2.337337     38.159292     38.159292     76.318584
     -2.327327     33.307095     33.307095     66.614189
     -2.317317     27.658911     27.658911     55.317821
     -2.307307     22.193803     22.193803     44.387606
     -2.297297     17.864374     17.864374     35.728748
     -2.287287     15.364880     15.364880     30.729759
     -2.277277     15.006892     15.006892     30.013785
     -2.267267     16.714002     16.714002     33.428003
     -2.257257     20.102243     20.102243     40.204486
     -2.247247     24.598893     24.598893     49.197786
     -2.237237     29.560619     29.560619     59.121238
     -2.227227     34.367109     34.367109     68.734218
     -2.217217     38.480178     38.480178     76.960355
     -2.207207     41.471445     41.471445     82.942890
     -2.197197     43.034109     43.034109     86.068217
     -2.187187     42.999835     42.999835     85.999671
     -2.177177     41.372000     41.372000     82.743999
     -2.167167     38.361848     38.361848     76.723696
     -2.157157     34.390626     34.390626     68.781252
     -2.147147     30.021302     30.021302     60.042603
     -2.137137     25.818167     25.818167     51.636334
     -2.127127     22.183284     22.183284     44.366568
     -2.117117     19.248002     19.248002     38.496005
     -2.107107     16.878071     16.878071     33.756143
     -2.097097     14.790047     14.790047     29.580093
     -2.087087     12.714821     12.714821     25.429641
     -2.077077     10.523034     10.523034     21.046068
     -2.067067      8.258179      8.258179     16.516358
     -2.057057      6.080994      6.080994     12.161989
     -2.047047      4.173539      4.173539      8.347078
     -2.037037      2.659077      2.659077      5.318153
     -2.027027      1.569488      1.569488      3.138976
     -2.017017      0.858763      0.858763      1.717525
     -2.007007      0.440618      0.440618      0.881236
     -1.996997      0.226929      0.226929      0.453858
     -1.986987      0.154380      0.154380      0.308760
     -1.976977      0.198454      0.198454      0.396909
     -1.966967      0.379669      0.379669      0.759337
     -1.956957      0.765925      0.765925      1.531850
     -1.946947      1.470146      1.470146      2.940293
     -1.936937      2.638186      2.638186      5.276372
     -1.926927      4.421804      4.421804      8.843608
     -1.916917      6.936348      6.936348     13.872697
     -1.906907     10.210577     10.210577     20.421154
     -1.896897     14.142436     14.142436     28.284871
     -1.886887     18.476063     18.476063     36.952126
     -1.876877     22.812236     22.812236     45.624473
     -1.866867     26.659398     26.659398     53.318796
     -1.856857     29.525320     29.525320     59.050639
     -1.846847     31.036196     31.036196     62.072392
     -1.836837     31.049596     31.049596     62.099193
     -1.826827     29.711508     29.711508     59.423015
     -1.816817     27.415760     27.415760     54.831520
     -1.806807     24.665777     24.665777     49.331554
     -1.796797     21.894934     21.894934     43.789869
     -1.786787     19.333132     19.333132     38.666263
     -1.776777     16.984937     16.984937     33.969873
     -1.766767     14.719375     14.719375     29.438749
     -1.756757     12.407839     12.407839     24.815677
     -1.746747     10.027958     10.027958     20.055916
     -1.736737      7.685539      7.685539     15.371077
     -1.726727      5.563648      5.563648     11.127295
     -1.716717      3.846654      3.846654      7.693309
     -1.706707      2.667080      2.667080      5.334160
     -1.696697      2.093971      2.093971      4.187943
     -1.686687      2.148831      2.148831      4.297662
     -1.676677      2.819968      2.819968      5.639936
     -1.666667      4.054068      4.054068      8.108136
     -1.656657      5.726529      5.726529     11.453059
     -1.646647      7.614708      7.614708     15.229416
     -1.636637      9.406380      9.406380     18.812760
     -1.626627     10.762236     10.762236     21.524472
