# EIG2DOS: Utility for SIESTA to obtain the electronic density of states
#  E. Artacho, Apr 1999, A. Garcia, Apr 2012
#  Nick R. Papior, Feb 2017
# ------------------------------------------
# Eigenvalues calculated from a non-polarized calculation
# Eigenvalues read from siesta.EIG
# Kpoint weights read from siesta.KP
# Using smearing parameter:   0.0500
# Using 1000 points in the energy range
# Selected bands: 1 to: 2981
# Emin, Emax in file for selected band(s):    -27.4188576    218.3823870
# Nbands, Nspin, Nk   =   2981     1     1
# E_F                 =    -4.2224 eV --> (shifted to ZERO)
# Broadening          =     0.0500 eV
#
#        E            N(up)  (=)   N(down)         Ntot
     -5.000000     32.487983     32.487983     64.975965
     -4.989990     37.028062     37.028062     74.056125
     -4.979980     41.177065     41.177065     82.354129
     -4.969970     44.259311     44.259311     88.518623
     -4.959960     45.716086     45.716086     91.432173
     -4.949950     45.290972     45.290972     90.581945
     -4.939940     43.124031     43.124031     86.248062
     -4.929930     39.729155     39.729155     79.458310
     -4.919920     35.882650     35.882650     71.765300
     -4.909910     32.475040     32.475040     64.950081
     -4.899900     30.362364     30.362364     60.724728
     -4.889890     30.221104     30.221104     60.442208
     -4.879880     32.399459     32.399459     64.798918
     -4.869870     36.783663     36.783663     73.567325
     -4.859860     42.739175     42.739175     85.478350
     -4.849850     49.197185     49.197185     98.394370
     -4.839840     54.908087     54.908087    109.816174
     -4.829830     58.793781     58.793781    117.587563
     -4.819820     60.258116     60.258116    120.516231
     -4.809810     59.316460     59.316460    118.632920
     -4.799800     56.491377     56.491377    112.982754
     -4.789790     52.541871     52.541871    105.083742
     -4.779780     48.171988     48.171988     96.343976
     -4.769770     43.852388     43.852388     87.704776
     -4.759760     39.801668     39.801668     79.603335
     -4.749750     36.077904     36.077904     72.155808
     -4.739740     32.687284     32.687284     65.374568
     -4.729730     29.640509     29.640509     59.281018
     -4.719720     26.945242     26.945242     53.890484
     -4.709710     24.568803     24.568803     49.137606
     -4.699700     22.416987     22.416987     44.833975
     -4.689690     20.357845     20.357845     40.715689
     -4.679680     18.290617     18.290617     36.581234
     -4.669670     16.233804     16.233804     32.467609
     -4.659660     14.391658     14.391658     28.783315
     -4.649650     13.160881     13.160881     26.321762
     -4.639640     13.058675     13.058675     26.117349
     -4.629630     14.581587     14.581587     29.163174
     -4.619620     18.030995     18.030995     36.061991
     -4.609610     23.358021     23.358021     46.716042
     -4.599600     30.084944     30.084944     60.169889
     -4.589590     37.348020     37.348020     74.696039
     -4.579580     44.074171     44.074171     88.148342
     -4.569570     49.255340     49.255340     98.510680
     -4.559560     52.236799     52.236799    104.473597
     -4.549550     52.914740     52.914740    105.829480
     -4.539540     51.760731     51.760731    103.521462
     -4.529530     49.652168     49.652168     99.304337
     -4.519520     47.564205     47.564205     95.128410
     -4.509510     46.236530     46.236530     92.473061
     -4.499499     45.940956     45.940956     91.881912
     -4.489489     46.434828     46.434828     92.869655
     -4.479479     47.106975     47.106975     94.213951
     -4.469469     47.242931     47.242931     94.485862
     -4.459459     46.292734     46.292734     92.585469
     -4.449449     44.037820     44.037820     88.075641
     -4.439439     40.612994     40.612994     81.225988
     -4.429429     36.410944     36.410944     72.821887
     -4.419419     31.941566     31.941566     63.883132
     -4.409409     27.715878     27.715878     55.431756
     -4.399399     24.183305     24.183305     48.366609
     -4.389389     21.704023     21.704023     43.408046
     -4.379379     20.518957     20.518957     41.037914
     -4.369369     20.700477     20.700477     41.400953
     -4.359359     22.106594     22.106594     44.213188
     -4.349349     24.384684     24.384684     48.769368
     -4.339339     27.054843     27.054843     54.109687
     -4.329329     29.657073     29.657073     59.314146
     -4.319319     31.903139     31.903139     63.806278
     -4.309309     33.763257     33.763257     67.526515
     -4.299299     35.445152     35.445152     70.890305
     -4.289289     37.269750     37.269750     74.539501
     -4.279279     39.489123     39.489123     78.978246
     -4.269269     42.114777     42.114777     84.229554
     -4.259259     44.826501     44.826501     89.653002
     -4.249249     47.013515     47.013515     94.027031
     -4.239239     47.957210     47.957210     95.914420
     -4.229229     47.102808     47.102808     94.205617
     -4.219219     44.310987     44.310987     88.621974
     -4.209209     39.968308     39.968308     79.936616
     -4.199199     34.889727     34.889727     69.779454
     -4.189189     30.046869     30.046869     60.093738
     -4.179179     26.244848     26.244848     52.489695
     -4.169169     23.893334     23.893334     47.786668
     -4.159159     22.962121     22.962121     45.924242
     -4.149149     23.115039     23.115039     46.230079
     -4.139139     23.935208     23.935208     47.870417
     -4.129129     25.126323     25.126323     50.252646
     -4.119119     26.600794     26.600794     53.201588
     -4.109109     28.424536     28.424536     56.849072
     -4.099099     30.654784     30.654784     61.309568
     -4.089089     33.159916     33.159916     66.319831
     -4.079079     35.528019     35.528019     71.056038
     -4.069069     37.137069     37.137069     74.274139
     -4.059059     37.378431     37.378431     74.756863
     -4.049049     35.934656     35.934656     71.869312
     -4.039039     32.968734     32.968734     65.937469
     -4.029029     29.120250     29.120250     58.240499
     -4.019019     25.305950     25.305950     50.611901
     -4.009009     22.424715     22.424715     44.849431
     -3.998999     21.106233     21.106233     42.212466
     -3.988989     21.600669     21.600669     43.201338
     -3.978979     23.818854     23.818854     47.637708
     -3.968969     27.458749     27.458749     54.917497
     -3.958959     32.135003     32.135003     64.270005
     -3.948949     37.462456     37.462456     74.924911
     -3.938939     43.094703     43.094703     86.189407
     -3.928929     48.744897     48.744897     97.489793
     -3.918919     54.204193     54.204193    108.408385
     -3.908909     59.344381     59.344381    118.688763
     -3.898899     64.079165     64.079165    128.158329
     -3.888889     68.279857     68.279857    136.559714
     -3.878879     71.681127     71.681127    143.362253
     -3.868869     73.838426     73.838426    147.676852
     -3.858859     74.187491     74.187491    148.374982
     -3.848849     72.209691     72.209691    144.419382
     -3.838839     67.649526     67.649526    135.299051
     -3.828829     60.693423     60.693423    121.386846
     -3.818819     52.023616     52.023616    104.047232
     -3.808809     42.707876     42.707876     85.415752
     -3.798799     33.953793     33.953793     67.907587
     -3.788789     26.811745     26.811745     53.623489
     -3.778779     21.927514     21.927514     43.855028
     -3.768769     19.419751     19.419751     38.839502
     -3.758759     18.907428     18.907428     37.814855
     -3.748749     19.664030     19.664030     39.328060
     -3.738739     20.845312     20.845312     41.690625
     -3.728729     21.728252     21.728252     43.456503
     -3.718719     21.903860     21.903860     43.807720
     -3.708709     21.379171     21.379171     42.758343
     -3.698699     20.561765     20.561765     41.123530
     -3.688689     20.124440     20.124440     40.248880
     -3.678679     20.778188     20.778188     41.556376
     -3.668669     23.013825     23.013825     46.027649
     -3.658659     26.895108     26.895108     53.790217
     -3.648649     31.983058     31.983058     63.966115
     -3.638639     37.432131     37.432131     74.864261
     -3.628629     42.231722     42.231722     84.463444
     -3.618619     45.501612     45.501612     91.003224
     -3.608609     46.725921     46.725921     93.451843
     -3.598599     45.844735     45.844735     91.689471
     -3.588589     43.195164     43.195164     86.390329
     -3.578579     39.357540     39.357540     78.715080
     -3.568569     34.981817     34.981817     69.963633
     -3.558559     30.646126     30.646126     61.292252
     -3.548549     26.765847     26.765847     53.531694
     -3.538539     23.555055     23.555055     47.110110
     -3.528529     21.041733     21.041733     42.083467
     -3.518519     19.133145     19.133145     38.266290
     -3.508509     17.707742     17.707742     35.415484
     -3.498498     16.689981     16.689981     33.379961
     -3.488488     16.069184     16.069184     32.138367
     -3.478478     15.858581     15.858581     31.717163
     -3.468468     16.031423     16.031423     32.062846
     -3.458458     16.483967     16.483967     32.967935
     -3.448448     17.049644     17.049644     34.099287
     -3.438438     17.547863     17.547863     35.095725
     -3.428428     17.830530     17.830530     35.661060
     -3.418418     17.804001     17.804001     35.608001
     -3.408408     17.435112     17.435112     34.870224
     -3.398398     16.764353     16.764353     33.528707
     -3.388388     15.933418     15.933418     31.866836
     -3.378378     15.206015     15.206015     30.412029
     -3.368368     14.950230     14.950230     29.900460
     -3.358358     15.569943     15.569943     31.139886
     -3.348348     17.404422     17.404422     34.808844
     -3.338338     20.630925     20.630925     41.261849
     -3.328328     25.194476     25.194476     50.388953
     -3.318318     30.769081     30.769081     61.538162
     -3.308308     36.750710     36.750710     73.501420
     -3.298298     42.299024     42.299024     84.598048
     -3.288288     46.457212     46.457212     92.914425
     -3.278278     48.357998     48.357998     96.715996
     -3.268268     47.468655     47.468655     94.937311
     -3.258258     43.777715     43.777715     87.555430
     -3.248248     37.827778     37.827778     75.655556
     -3.238238     30.564185     30.564185     61.128371
     -3.228228     23.059640     23.059640     46.119280
     -3.218218     16.231765     16.231765     32.463531
     -3.208208     10.661033     10.661033     21.322067
     -3.198198      6.554933      6.554933     13.109867
     -3.188188      3.834556      3.834556      7.669112
     -3.178178      2.279898      2.279898      4.559797
     -3.168168      1.669762      1.669762      3.339523
     -3.158158      1.875586      1.875586      3.751172
     -3.148148      2.894098      2.894098      5.788196
     -3.138138      4.819630      4.819630      9.639260
     -3.128128      7.765703      7.765703     15.531407
     -3.118118     11.755517     11.755517     23.511034
     -3.108108     16.615888     16.615888     33.231776
     -3.098098     21.921386     21.921386     43.842772
     -3.088088     27.030194     27.030194     54.060388
     -3.078078     31.221381     31.221381     62.442762
     -3.068068     33.893294     33.893294     67.786589
     -3.058058     34.741825     34.741825     69.483649
     -3.048048     33.835464     33.835464     67.670928
     -3.038038     31.551264     31.551264     63.102529
     -3.028028     28.408549     28.408549     56.817097
     -3.018018     24.890582     24.890582     49.781163
     -3.008008     21.343185     21.343185     42.686370
     -2.997998     17.985181     17.985181     35.970362
     -2.987988     14.996579     14.996579     29.993158
     -2.977978     12.611426     12.611426     25.222853
     -2.967968     11.151841     11.151841     22.303682
     -2.957958     10.981419     10.981419     21.962839
     -2.947948     12.398291     12.398291     24.796582
     -2.937938     15.510400     15.510400     31.020800
     -2.927928     20.138551     20.138551     40.277101
     -2.917918     25.785669     25.785669     51.571338
     -2.907908     31.696949     31.696949     63.393899
     -2.897898     37.011219     37.011219     74.022438
     -2.887888     40.969030     40.969030     81.938061
     -2.877878     43.110463     43.110463     86.220926
     -2.867868     43.386016     43.386016     86.772032
     -2.857858     42.130625     42.130625     84.261250
     -2.847848     39.907045     39.907045     79.814091
     -2.837838     37.284338     37.284338     74.568677
     -2.827828     34.648237     34.648237     69.296474
     -2.817818     32.123997     32.123997     64.247994
     -2.807808     29.635224     29.635224     59.270447
     -2.797798     27.053432     27.053432     54.106865
     -2.787788     24.349547     24.349547     48.699094
     -2.777778     21.663893     21.663893     43.327786
     -2.767768     19.262152     19.262152     38.524303
     -2.757758     17.412102     17.412102     34.824204
     -2.747748     16.260845     16.260845     32.521689
     -2.737738     15.788130     15.788130     31.576260
     -2.727728     15.860312     15.860312     31.720624
     -2.717718     16.342622     16.342622     32.685243
     -2.707708     17.187969     17.187969     34.375939
     -2.697698     18.436516     18.436516     36.873032
     -2.687688     20.124076     20.124076     40.248153
     -2.677678     22.166875     22.166875     44.333750
     -2.667668     24.315050     24.315050     48.630100
     -2.657658     26.225427     26.225427     52.450853
     -2.647648     27.620913     27.620913     55.241826
     -2.637638     28.437835     28.437835     56.875671
     -2.627628     28.863323     28.863323     57.726647
     -2.617618     29.234572     29.234572     58.469144
     -2.607608     29.860924     29.860924     59.721847
     -2.597598     30.873923     30.873923     61.747845
     -2.587588     32.180798     32.180798     64.361597
     -2.577578     33.521587     33.521587     67.043174
     -2.567568     34.570091     34.570091     69.140182
     -2.557558     35.016159     35.016159     70.032317
     -2.547548     34.611696     34.611696     69.223393
     -2.537538     33.206905     33.206905     66.413811
     -2.527528     30.805118     30.805118     61.610236
     -2.517518     27.626238     27.626238     55.252477
     -2.507508     24.130263     24.130263     48.260525
     -2.497497     20.952914     20.952914     41.905829
     -2.487487     18.749236     18.749236     37.498471
     -2.477477     17.997048     17.997048     35.994095
     -2.467467     18.842652     18.842652     37.685304
     -2.457457     21.058547     21.058547     42.117094
     -2.447447     24.135809     24.135809     48.271618
     -2.437437     27.475456     27.475456     54.950911
     -2.427427     30.598762     30.598762     61.197524
     -2.417417     33.285631     33.285631     66.571261
     -2.407407     35.580032     35.580032     71.160064
     -2.397397     37.661995     37.661995     75.323989
     -2.387387     39.649981     39.649981     79.299962
     -2.377377     41.434557     41.434557     82.869115
     -2.367367     42.634102     42.634102     85.268205
     -2.357357     42.707739     42.707739     85.415477
     -2.347347     41.183718     41.183718     82.367436
     -2.337337     37.900528     37.900528     75.801057
     -2.327327     33.146472     33.146472     66.292944
     -2.317317     27.630663     27.630663     55.261326
     -2.307307     22.299358     22.299358     44.598717
     -2.297297     18.080067     18.080067     36.160134
     -2.287287     15.655385     15.655385     31.310770
     -2.277277     15.336526     15.336526     30.673053
     -2.267267     17.051689     17.051689     34.103379
     -2.257257     20.420951     20.420951     40.841902
     -2.247247     24.873107     24.873107     49.746214
     -2.237237     29.765214     29.765214     59.530429
     -2.227227     34.479171     34.479171     68.958343
     -2.217217     38.483619     38.483619     76.967238
     -2.207207     41.363170     41.363170     82.726339
     -2.197197     42.829860     42.829860     85.659720
     -2.187187     42.737978     42.737978     85.475956
     -2.177177     41.114990     41.114990     82.229979
     -2.167167     38.197945     38.197945     76.395890
     -2.157157     34.440528     34.440528     68.881056
     -2.147147     30.452867     30.452867     60.905734
     -2.137137     26.865568     26.865568     53.731135
     -2.127127     24.156889     24.156889     48.313778
     -2.117117     22.514431     22.514431     45.028862
     -2.107107     21.794037     21.794037     43.588074
     -2.097097     21.592644     21.592644     43.185288
     -2.087087     21.399092     21.399092     42.798184
     -2.077077     20.759296     20.759296     41.518592
     -2.067067     19.399151     19.399151     38.798303
     -2.057057     17.276069     17.276069     34.552138
     -2.047047     14.558407     14.558407     29.116813
     -2.037037     11.551241     11.551241     23.102482
     -2.027027      8.597305      8.597305     17.194610
     -2.017017      5.985165      5.985165     11.970330
     -2.007007      3.891385      3.891385      7.782770
     -1.996997      2.369115      2.369115      4.738231
     -1.986987      1.377420      1.377420      2.754840
     -1.976977      0.832561      0.832561      1.665122
     -1.966967      0.659677      0.659677      1.319354
     -1.956957      0.828921      0.828921      1.657843
     -1.946947      1.368086      1.368086      2.736172
     -1.936937      2.349624      2.349624      4.699247
     -1.926927      3.854441      3.854441      7.708883
     -1.916917      5.920669      5.920669     11.841338
     -1.906907      8.493277      8.493277     16.986553
     -1.896897     11.395387     11.395387     22.790774
     -1.886887     14.338444     14.338444     28.676887
     -1.876877     16.974721     16.974721     33.949442
     -1.866867     18.978331     18.978331     37.956662
     -1.856857     20.129255     20.129255     40.258511
     -1.846847     20.373700     20.373700     40.747400
     -1.836837     19.840602     19.840602     39.681205
     -1.826827     18.804287     18.804287     37.608574
     -1.816817     17.597183     17.597183     35.194365
     -1.806807     16.495872     16.495872     32.991745
     -1.796797     15.622882     15.622882     31.245765
     -1.786787     14.910571     14.910571     29.821143
     -1.776777     14.150410     14.150410     28.300819
     -1.766767     13.107678     13.107678     26.215356
     -1.756757     11.644496     11.644496     23.288991
     -1.746747      9.789726      9.789726     19.579452
     -1.736737      7.727050      7.727050     15.454100
     -1.726727      5.719768      5.719768     11.439536
     -1.716717      4.021037      4.021037      8.042073
     -1.706707      2.814742      2.814742      5.629484
     -1.696697      2.203070      2.203070      4.406140
     -1.686687      2.224929      2.224929      4.449858
     -1.676677      2.874513      2.874513      5.749027
     -1.666667      4.097392      4.097392      8.194784
     -1.656657      5.764669      5.764669     11.529339
     -1.646647      7.649049      7.649049     15.298098
     -1.636637      9.435222      9.435222     18.870445
     -1.626627     10.783561     10.783561     21.567122
