# EIG2DOS: Utility for SIESTA to obtain the electronic density of states
#  E. Artacho, Apr 1999, A. Garcia, Apr 2012
#  Nick R. Papior, Feb 2017
# ------------------------------------------
# Eigenvalues calculated from a non-polarized calculation
# Eigenvalues read from siesta.EIG
# Kpoint weights read from siesta.KP
# Using smearing parameter:   0.0500
# Using 1000 points in the energy range
# Selected bands: 1 to: 2981
# Emin, Emax in file for selected band(s):    -27.0893247    218.3503500
# Nbands, Nspin, Nk   =   2981     1     1
# E_F                 =    -4.2562 eV --> (shifted to ZERO)
# Broadening          =     0.0500 eV
#
#        E            N(up)  (=)   N(down)         Ntot
     -5.000000     33.708113     33.708113     67.416227
     -4.989990     37.616965     37.616965     75.233931
     -4.979980     41.036614     41.036614     82.073227
     -4.969970     43.416415     43.416415     86.832830
     -4.959960     44.345823     44.345823     88.691647
     -4.949950     43.674040     43.674040     87.348079
     -4.939940     41.562176     41.562176     83.124353
     -4.929930     38.458872     38.458872     76.917744
     -4.919920     35.023448     35.023448     70.046897
     -4.909910     32.028264     32.028264     64.056528
     -4.899900     30.252043     30.252043     60.504086
     -4.889890     30.350905     30.350905     60.701810
     -4.879880     32.694326     32.694326     65.388652
     -4.869870     37.191640     37.191640     74.383280
     -4.859860     43.186742     43.186742     86.373483
     -4.849850     49.515975     49.515975     99.031949
     -4.839840     54.772362     54.772362    109.544723
     -4.829830     57.713412     57.713412    115.426825
     -4.819820     57.653639     57.653639    115.307279
     -4.809810     54.666684     54.666684    109.333368
     -4.799800     49.507342     49.507342     99.014685
     -4.789790     43.302450     43.302450     86.604899
     -4.779780     37.165366     37.165366     74.330732
     -4.769770     31.900414     31.900414     63.800829
     -4.759760     27.887005     27.887005     55.774010
     -4.749750     25.129792     25.129792     50.259583
     -4.739740     23.395685     23.395685     46.791369
     -4.729730     22.354259     22.354259     44.708517
     -4.719720     21.673923     21.673923     43.347846
     -4.709710     21.067457     21.067457     42.134914
     -4.699700     20.306421     20.306421     40.612842
     -4.689690     19.231485     19.231485     38.462969
     -4.679680     17.778391     17.778391     35.556783
     -4.669670     16.021242     16.021242     32.042483
     -4.659660     14.214005     14.214005     28.428009
     -4.649650     12.799293     12.799293     25.598585
     -4.639640     12.357945     12.357945     24.715890
     -4.629630     13.491064     13.491064     26.982129
     -4.619620     16.649506     16.649506     33.299011
     -4.609610     21.949388     21.949388     43.898776
     -4.599600     29.033767     29.033767     58.067533
     -4.589590     37.051360     37.051360     74.102719
     -4.579580     44.805163     44.805163     89.610326
     -4.569570     51.065157     51.065157    102.130315
     -4.559560     54.955825     54.955825    109.911650
     -4.549550     56.266124     56.266124    112.532248
     -4.539540     55.534511     55.534511    111.069021
     -4.529530     53.847283     53.847283    107.694566
     -4.519520     52.417569     52.417569    104.835139
     -4.509510     52.117535     52.117535    104.235069
     -4.499499     53.161051     53.161051    106.322102
     -4.489489     55.064412     55.064412    110.128824
     -4.479479     56.884326     56.884326    113.768651
     -4.469469     57.610733     57.610733    115.221467
     -4.459459     56.536817     56.536817    113.073634
     -4.449449     53.462521     53.462521    106.925041
     -4.439439     48.684954     48.684954     97.369907
     -4.429429     42.831618     42.831618     85.663236
     -4.419419     36.646535     36.646535     73.293071
     -4.409409     30.825143     30.825143     61.650286
     -4.399399     25.933245     25.933245     51.866489
     -4.389389     22.383996     22.383996     44.767992
     -4.379379     20.423755     20.423755     40.847510
     -4.369369     20.100443     20.100443     40.200886
     -4.359359     21.231623     21.231623     42.463246
     -4.349349     23.415856     23.415856     46.831711
     -4.339339     26.117924     26.117924     52.235849
     -4.329329     28.815351     28.815351     57.630702
     -4.319319     31.151772     31.151772     62.303544
     -4.309309     33.031413     33.031413     66.062826
     -4.299299     34.613805     34.613805     69.227610
     -4.289289     36.210699     36.210699     72.421398
     -4.279279     38.123148     38.123148     76.246297
     -4.269269     40.474100     40.474100     80.948201
     -4.259259     43.094007     43.094007     86.188014
     -4.249249     45.508961     45.508961     91.017922
     -4.239239     47.057861     47.057861     94.115723
     -4.229229     47.119283     47.119283     94.238566
     -4.219219     45.369692     45.369692     90.739383
     -4.209209     41.956669     41.956669     83.913337
     -4.199199     37.491397     37.491397     74.982794
     -4.189189     32.847694     32.847694     65.695389
     -4.179179     28.856444     28.856444     57.712888
     -4.169169     26.039984     26.039984     52.079968
     -4.159159     24.504902     24.504902     49.009804
     -4.149149     24.023084     24.023084     48.046169
     -4.139139     24.236221     24.236221     48.472442
     -4.129129     24.868979     24.868979     49.737957
     -4.119119     25.846248     25.846248     51.692495
     -4.109109     27.264129     27.264129     54.528258
     -4.099099     29.235550     29.235550     58.471101
     -4.089089     31.694237     31.694237     63.388473
     -4.079079     34.270827     34.270827     68.541654
     -4.069069     36.331114     36.331114     72.662228
     -4.059059     37.187190     37.187190     74.374381
     -4.049049     36.392361     36.392361     72.784721
     -4.039039     33.970364     33.970364     67.940729
     -4.029029     30.454418     30.454418     60.908835
     -4.019019     26.713071     26.713071     53.426142
     -4.009009     23.654823     23.654823     47.309645
     -3.998999     21.958662     21.958662     43.917325
     -3.988989     21.943162     21.943162     43.886324
     -3.978979     23.594023     23.594023     47.188047
     -3.968969     26.685079     26.685079     53.370158
     -3.958959     30.901758     30.901758     61.803515
     -3.948949     35.912543     35.912543     71.825086
     -3.938939     41.393125     41.393125     82.786249
     -3.928929     47.040892     47.040892     94.081784
     -3.918919     52.603861     52.603861    105.207723
     -3.908909     57.908858     57.908858    115.817716
     -3.898899     62.849750     62.849750    125.699499
     -3.888889     67.313704     67.313704    134.627408
     -3.878879     71.071665     71.071665    142.143330
     -3.868869     73.701927     73.701927    147.403855
     -3.858859     74.617917     74.617917    149.235834
     -3.848849     73.224864     73.224864    146.449729
     -3.838839     69.158574     69.158574    138.317148
     -3.828829     62.504029     62.504029    125.008057
     -3.818819     53.886228     53.886228    107.772456
     -3.808809     44.376852     44.376852     88.753705
     -3.798799     35.241600     35.241600     70.483200
     -3.788789     27.620794     27.620794     55.241588
     -3.778779     22.256677     22.256677     44.513354
     -3.768769     19.351053     19.351053     38.702106
     -3.758759     18.580421     18.580421     37.160842
     -3.748749     19.243486     19.243486     38.486973
     -3.738739     20.486285     20.486285     40.972571
     -3.728729     21.543133     21.543133     43.086265
     -3.718719     21.937750     21.937750     43.875499
     -3.708709     21.600382     21.600382     43.200764
     -3.698699     20.871875     20.871875     41.743749
     -3.688689     20.387167     20.387167     40.774334
     -3.678679     20.860120     20.860120     41.720240
     -3.668669     22.825207     22.825207     45.650415
     -3.658659     26.417763     26.417763     52.835527
     -3.648649     31.276309     31.276309     62.552619
     -3.638639     36.615451     36.615451     73.230902
     -3.628629     41.451537     41.451537     82.903073
     -3.618619     44.894947     44.894947     89.789894
     -3.608609     46.392524     46.392524     92.785048
     -3.598599     45.833009     45.833009     91.666019
     -3.588589     43.500278     43.500278     87.000556
     -3.578579     39.926716     39.926716     79.853431
     -3.568569     35.722602     35.722602     71.445205
     -3.558559     31.435073     31.435073     62.870147
     -3.548549     27.454409     27.454409     54.908818
     -3.538539     23.967748     23.967748     47.935496
     -3.528529     20.963345     20.963345     41.926690
     -3.518519     18.290216     18.290216     36.580432
     -3.508509     15.761704     15.761704     31.523408
     -3.498498     13.265798     13.265798     26.531596
     -3.488488     10.834537     10.834537     21.669074
     -3.478478      8.643149      8.643149     17.286298
     -3.468468      6.944881      6.944881     13.889763
     -3.458458      5.974936      5.974936     11.949873
     -3.448448      5.861659      5.861659     11.723319
     -3.438438      6.571159      6.571159     13.142318
     -3.428428      7.898179      7.898179     15.796358
     -3.418418      9.508514      9.508514     19.017028
     -3.408408     11.030256     11.030256     22.060511
     -3.398398     12.174643     12.174643     24.349285
     -3.388388     12.846519     12.846519     25.693038
     -3.378378     13.196326     13.196326     26.392652
     -3.368368     13.583820     13.583820     27.167640
     -3.358358     14.462817     14.462817     28.925635
     -3.348348     16.231911     16.231911     32.463823
     -3.338338     19.104503     19.104503     38.209005
     -3.328328     23.030384     23.030384     46.060768
     -3.318318     27.672534     27.672534     55.345067
     -3.308308     32.432375     32.432375     64.864750
     -3.298298     36.528008     36.528008     73.056015
     -3.288288     39.138732     39.138732     78.277463
     -3.278278     39.608460     39.608460     79.216921
     -3.268268     37.653114     37.653114     75.306229
     -3.258258     33.481437     33.481437     66.962875
     -3.248248     27.756579     27.756579     55.513158
     -3.238238     21.399176     21.399176     42.798352
     -3.228228     15.315356     15.315356     30.630712
     -3.218218     10.167908     10.167908     20.335817
     -3.208208      6.275245      6.275245     12.550490
     -3.198198      3.650010      3.650010      7.300020
     -3.188188      2.127324      2.127324      4.254648
     -3.178178      1.512234      1.512234      3.024467
     -3.168168      1.692475      1.692475      3.384950
     -3.158158      2.691311      2.691311      5.382621
     -3.148148      4.655657      4.655657      9.311314
     -3.138138      7.784394      7.784394     15.568789
     -3.128128     12.210643     12.210643     24.421287
     -3.118118     17.868315     17.868315     35.736630
     -3.108108     24.392893     24.392893     48.785786
     -3.098098     31.112842     31.112842     62.225685
     -3.088088     37.165345     37.165345     74.330690
     -3.078078     41.718436     41.718436     83.436872
     -3.068068     44.223198     44.223198     88.446396
     -3.058058     44.588478     44.588478     89.176956
     -3.048048     43.191509     43.191509     86.383018
     -3.038038     40.708551     40.708551     81.417101
     -3.028028     37.837585     37.837585     75.675170
     -3.018018     35.042755     35.042755     70.085510
     -3.008008     32.441983     32.441983     64.883965
     -2.997998     29.885130     29.885130     59.770261
     -2.987988     27.169867     27.169867     54.339734
     -2.977978     24.273273     24.273273     48.546545
     -2.967968     21.476995     21.476995     42.953990
     -2.957958     19.326812     19.326812     38.653623
     -2.947948     18.451583     18.451583     36.903165
     -2.937938     19.325379     19.325379     38.650759
     -2.927928     22.068851     22.068851     44.137702
     -2.917918     26.360441     26.360441     52.720883
     -2.907908     31.486239     31.486239     62.972478
     -2.897898     36.514411     36.514411     73.028821
     -2.887888     40.542587     40.542587     81.085174
     -2.877878     42.939935     42.939935     85.879871
     -2.867868     43.500788     43.500788     87.001576
     -2.857858     42.453234     42.453234     84.906468
     -2.847848     40.320733     40.320733     80.641465
     -2.837838     37.696349     37.696349     75.392697
     -2.827828     35.027415     35.027415     70.054831
     -2.817818     32.501407     32.501407     65.002813
     -2.807808     30.072421     30.072421     60.144842
     -2.797798     27.597264     27.597264     55.194529
     -2.787788     24.997443     24.997443     49.994886
     -2.777778     22.356508     22.356508     44.713015
     -2.767768     19.904322     19.904322     39.808643
     -2.757758     17.907147     17.907147     35.814295
     -2.747748     16.536584     16.536584     33.073168
     -2.737738     15.800012     15.800012     31.600023
     -2.727728     15.574187     15.574187     31.148375
     -2.717718     15.716256     15.716256     31.432511
     -2.707708     16.174686     16.174686     32.349372
     -2.697698     17.021016     17.021016     34.042032
     -2.687688     18.375584     18.375584     36.751168
     -2.677678     20.274347     20.274347     40.548694
     -2.667668     22.569729     22.569729     45.139458
     -2.657658     24.942245     24.942245     49.884490
     -2.647648     27.028342     27.028342     54.056683
     -2.637638     28.590368     28.590368     57.180736
     -2.627628     29.622688     29.622688     59.245376
     -2.617618     30.328240     30.328240     60.656480
     -2.607608     30.984662     30.984662     61.969323
     -2.597598     31.787197     31.787197     63.574393
     -2.587588     32.758855     32.758855     65.517710
     -2.577578     33.759947     33.759947     67.519895
     -2.567568     34.560138     34.560138     69.120276
     -2.557558     34.911211     34.911211     69.822421
     -2.547548     34.589510     34.589510     69.179019
     -2.537538     33.425466     33.425466     66.850931
     -2.527528     31.353900     31.353900     62.707799
     -2.517518     28.488023     28.488023     56.976046
     -2.507508     25.173926     25.173926     50.347852
     -2.497497     21.967194     21.967194     43.934388
     -2.487487     19.507527     19.507527     39.015055
     -2.477477     18.327619     18.327619     36.655238
     -2.467467     18.676928     18.676928     37.353857
     -2.457457     20.441563     20.441563     40.883127
     -2.447447     23.199677     23.199677     46.399355
     -2.437437     26.390622     26.390622     52.781244
     -2.427427     29.524285     29.524285     59.048569
     -2.417417     32.337378     32.337378     64.674756
     -2.407407     34.825858     34.825858     69.651717
     -2.397397     37.139559     37.139559     74.279118
     -2.387387     39.392039     39.392039     78.784078
     -2.377377     41.483828     41.483828     82.967655
     -2.367367     43.036838     43.036838     86.073677
     -2.357357     43.488222     43.488222     86.976445
     -2.347347     42.313888     42.313888     84.627776
     -2.337337     39.282986     39.282986     78.565971
     -2.327327     34.622704     34.622704     69.245409
     -2.317317     29.013179     29.013179     58.026358
     -2.307307     23.414457     23.414457     46.828915
     -2.297297     18.804086     18.804086     37.608172
     -2.287287     15.932665     15.932665     31.865330
     -2.277277     15.177288     15.177288     30.354576
     -2.267267     16.516212     16.516212     33.032424
     -2.257257     19.599512     19.599512     39.199025
     -2.247247     23.869597     23.869597     47.739195
     -2.237237     28.688300     28.688300     57.376600
     -2.227227     33.440046     33.440046     66.880092
     -2.217217     37.595161     37.595161     75.190321
     -2.207207     40.733496     40.733496     81.466992
     -2.197197     42.545516     42.545516     85.091032
     -2.187187     42.837934     42.837934     85.675868
     -2.177177     41.563211     41.563211     83.126421
     -2.167167     38.865176     38.865176     77.730351
     -2.157157     35.102767     35.102767     70.205534
     -2.147147     30.806489     30.806489     61.612977
     -2.137137     26.552723     26.552723     53.105445
     -2.127127     22.795295     22.795295     45.590589
     -2.117117     19.733343     19.733343     39.466687
     -2.107107     17.285970     17.285970     34.571939
     -2.097097     15.187517     15.187517     30.375035
     -2.087087     13.149656     13.149656     26.299312
     -2.077077     11.003398     11.003398     22.006795
     -2.067067      8.755348      8.755348     17.510695
     -2.057057      6.548648      6.548648     13.097296
     -2.047047      4.570241      4.570241      9.140483
     -2.037037      2.962686      2.962686      5.925371
     -2.027027      1.779629      1.779629      3.559258
     -2.017017      0.990386      0.990386      1.980772
     -2.007007      0.514461      0.514461      1.028922
     -1.996997      0.261462      0.261462      0.522924
     -1.986987      0.160816      0.160816      0.321631
     -1.976977      0.177982      0.177982      0.355964
     -1.966967      0.321059      0.321059      0.642118
     -1.956957      0.641811      0.641811      1.283621
     -1.946947      1.230780      1.230780      2.461560
     -1.936937      2.201918      2.201918      4.403835
     -1.926927      3.662223      3.662223      7.324447
     -1.916917      5.668147      5.668147     11.336295
     -1.906907      8.180674      8.180674     16.361348
     -1.896897     11.038630     11.038630     22.077260
     -1.886887     13.967936     13.967936     27.935872
     -1.876877     16.631710     16.631710     33.263421
     -1.866867     18.708887     18.708887     37.417773
     -1.856857     19.977299     19.977299     39.954598
     -1.846847     20.376191     20.376191     40.752383
     -1.836837     20.029728     20.029728     40.059456
     -1.826827     19.221855     19.221855     38.443709
     -1.816817     18.323085     18.323085     36.646170
     -1.806807     17.684392     17.684392     35.368784
     -1.796797     17.530154     17.530154     35.060308
     -1.786787     17.889741     17.889741     35.779482
     -1.776777     18.595010     18.595010     37.190020
     -1.766767     19.342007     19.342007     38.684013
     -1.756757     19.787845     19.787845     39.575689
     -1.746747     19.645777     19.645777     39.291553
     -1.736737     18.753770     18.753770     37.507540
     -1.726727     17.109534     17.109534     34.219068
     -1.716717     14.873742     14.873742     29.747485
     -1.706707     12.342840     12.342840     24.685680
     -1.696697      9.892926      9.892926     19.785851
     -1.686687      7.902489      7.902489     15.804978
     -1.676677      6.669874      6.669874     13.339747
     -1.666667      6.344012      6.344012     12.688024
     -1.656657      6.883643      6.883643     13.767286
     -1.646647      8.055863      8.055863     16.111727
     -1.636637      9.481564      9.481564     18.963127
     -1.626627     10.727961     10.727961     21.455922
