# EIG2DOS: Utility for SIESTA to obtain the electronic density of states
#  E. Artacho, Apr 1999, A. Garcia, Apr 2012
#  Nick R. Papior, Feb 2017
# ------------------------------------------
# Eigenvalues calculated from a non-polarized calculation
# Eigenvalues read from siesta.EIG
# Kpoint weights read from siesta.KP
# Using smearing parameter:   0.0500
# Using 1000 points in the energy range
# Selected bands: 1 to: 2981
# Emin, Emax in file for selected band(s):    -27.1348129    218.3497570
# Nbands, Nspin, Nk   =   2981     1     1
# E_F                 =    -4.2578 eV --> (shifted to ZERO)
# Broadening          =     0.0500 eV
#
#        E            N(up)  (=)   N(down)         Ntot
     -5.000000     32.260764     32.260764     64.521527
     -4.989990     36.332766     36.332766     72.665532
     -4.979980     40.059382     40.059382     80.118763
     -4.969970     42.892226     42.892226     85.784452
     -4.959960     44.353396     44.353396     88.706792
     -4.949950     44.186363     44.186363     88.372726
     -4.939940     42.450583     42.450583     84.901166
     -4.929930     39.530447     39.530447     79.060895
     -4.919920     36.069784     36.069784     72.139567
     -4.909910     32.865186     32.865186     65.730372
     -4.899900     30.742787     30.742787     61.485574
     -4.889890     30.418320     30.418320     60.836641
     -4.879880     32.331286     32.331286     64.662572
     -4.869870     36.471278     36.471278     72.942557
     -4.859860     42.263166     42.263166     84.526331
     -4.849850     48.602387     48.602387     97.204773
     -4.839840     54.092367     54.092367    108.184734
     -4.829830     57.438050     57.438050    114.876099
     -4.819820     57.849543     57.849543    115.699086
     -4.809810     55.279497     55.279497    110.558995
     -4.799800     50.388352     50.388352    100.776705
     -4.789790     44.265340     44.265340     88.530680
     -4.779780     38.047218     38.047218     76.094436
     -4.769770     32.603292     32.603292     65.206585
     -4.759760     28.389685     28.389685     56.779369
     -4.749750     25.473437     25.473437     50.946874
     -4.739740     23.654991     23.654991     47.309982
     -4.729730     22.606027     22.606027     45.212055
     -4.719720     21.972010     21.972010     43.944021
     -4.709710     21.429620     21.429620     42.859241
     -4.699700     20.715002     20.715002     41.430004
     -4.689690     19.645497     19.645497     39.290993
     -4.679680     18.150368     18.150368     36.300737
     -4.669670     16.310617     16.310617     32.621235
     -4.659660     14.391324     14.391324     28.782647
     -4.649650     12.841302     12.841302     25.682605
     -4.639640     12.239977     12.239977     24.479953
     -4.629630     13.187381     13.187381     26.374762
     -4.619620     16.152281     16.152281     32.304563
     -4.609610     21.310680     21.310680     42.621360
     -4.599600     28.421435     28.421435     56.842870
     -4.589590     36.792459     36.792459     73.584918
     -4.579580     45.378129     45.378129     90.756258
     -4.569570     53.007819     53.007819    106.015638
     -4.559560     58.687398     58.687398    117.374797
     -4.549550     61.870376     61.870376    123.740752
     -4.539540     62.593874     62.593874    125.187748
     -4.529530     61.423681     61.423681    122.847363
     -4.519520     59.229216     59.229216    118.458433
     -4.509510     56.875852     56.875852    113.751703
     -4.499499     54.949816     54.949816    109.899632
     -4.489489     53.611526     53.611526    107.223052
     -4.479479     52.617906     52.617906    105.235812
     -4.469469     51.486508     51.486508    102.973017
     -4.459459     49.721877     49.721877     99.443753
     -4.449449     47.009758     47.009758     94.019516
     -4.439439     43.312977     43.312977     86.625954
     -4.429429     38.857402     38.857402     77.714805
     -4.419419     34.046387     34.046387     68.092774
     -4.409409     29.360030     29.360030     58.720060
     -4.399399     25.276253     25.276253     50.552505
     -4.389389     22.214506     22.214506     44.429013
     -4.379379     20.481095     20.481095     40.962191
     -4.369369     20.204891     20.204891     40.409782
     -4.359359     21.282762     21.282762     42.565524
     -4.349349     23.375466     23.375466     46.750933
     -4.339339     25.983671     25.983671     51.967341
     -4.329329     28.593419     28.593419     57.186837
     -4.319319     30.838118     30.838118     61.676236
     -4.309309     32.608920     32.608920     65.217839
     -4.299299     34.065998     34.065998     68.131997
     -4.289289     35.544543     35.544543     71.089086
     -4.279279     37.388119     37.388119     74.776237
     -4.269269     39.765515     39.765515     79.531030
     -4.259259     42.535537     42.535537     85.071073
     -4.249249     45.219063     45.219063     90.438126
     -4.239239     47.112601     47.112601     94.225201
     -4.229229     47.525939     47.525939     95.051878
     -4.219219     46.061119     46.061119     92.122237
     -4.209209     42.808140     42.808140     85.616279
     -4.199199     38.353413     38.353413     76.706825
     -4.189189     33.583311     33.583311     67.166623
     -4.179179     29.371467     29.371467     58.742934
     -4.169169     26.298155     26.298155     52.596310
     -4.159159     24.525716     24.525716     49.051432
     -4.149149     23.864675     23.864675     47.729350
     -4.139139     23.969121     23.969121     47.938243
     -4.129129     24.548995     24.548995     49.097989
     -4.119119     25.496388     25.496388     50.992776
     -4.109109     26.874604     26.874604     53.749208
     -4.099099     28.784629     28.784629     57.569258
     -4.089089     31.181581     31.181581     62.363162
     -4.079079     33.744629     33.744629     67.489258
     -4.069069     35.889470     35.889470     71.778940
     -4.059059     36.946720     36.946720     73.893439
     -4.049049     36.437180     36.437180     72.874360
     -4.039039     34.308845     34.308845     68.617691
     -4.029029     31.008618     31.008618     62.017237
     -4.019019     27.347019     27.347019     54.694037
     -4.009009     24.225455     24.225455     48.450909
     -3.998999     22.362199     22.362199     44.724398
     -3.988989     22.136089     22.136089     44.272179
     -3.978979     23.585326     23.585326     47.170651
     -3.968969     26.511962     26.511962     53.023923
     -3.958959     30.605513     30.605513     61.211025
     -3.948949     35.524577     35.524577     71.049153
     -3.938939     40.931119     40.931119     81.862238
     -3.928929     46.509836     46.509836     93.019672
     -3.918919     51.998719     51.998719    103.997439
     -3.908909     57.220755     57.220755    114.441509
     -3.898899     62.079335     62.079335    124.158670
     -3.888889     66.490784     66.490784    132.981568
     -3.878879     70.272309     70.272309    140.544617
     -3.868869     73.049788     73.049788    146.099575
     -3.858859     74.260710     74.260710    148.521420
     -3.848849     73.289277     73.289277    146.578555
     -3.838839     69.700500     69.700500    139.401000
     -3.828829     63.476993     63.476993    126.953986
     -3.818819     55.144348     55.144348    110.288697
     -3.808809     45.712826     45.712826     91.425652
     -3.798799     36.444356     36.444356     72.888712
     -3.788789     28.530430     28.530430     57.060860
     -3.778779     22.798579     22.798579     45.597159
     -3.768769     19.542027     19.542027     39.084054
     -3.758759     18.510194     18.510194     37.020388
     -3.748749     19.040777     19.040777     38.081555
     -3.738739     20.279796     20.279796     40.559591
     -3.728729     21.426580     21.426580     42.853159
     -3.718719     21.946252     21.946252     43.892504
     -3.708709     21.703337     21.703337     43.406673
     -3.698699     20.984523     20.984523     41.969045
     -3.688689     20.398973     20.398973     40.797947
     -3.678679     20.673261     20.673261     41.346521
     -3.668669     22.392016     22.392016     44.784031
     -3.658659     25.764065     25.764065     51.528131
     -3.648649     30.500502     30.500502     61.001005
     -3.638639     35.861671     35.861671     71.723342
     -3.628629     40.866398     40.866398     81.732796
     -3.618619     44.585182     44.585182     89.170365
     -3.608609     46.400043     46.400043     92.800087
     -3.598599     46.134430     46.134430     92.268861
     -3.588589     44.025826     44.025826     88.051651
     -3.578579     40.586378     40.586378     81.172757
     -3.568569     36.428770     36.428770     72.857541
     -3.558559     32.117264     32.117264     64.234528
     -3.548549     28.066898     28.066898     56.133797
     -3.538539     24.491777     24.491777     48.983554
     -3.528529     21.403868     21.403868     42.807736
     -3.518519     18.666785     18.666785     37.333570
     -3.508509     16.095394     16.095394     32.190788
     -3.498498     13.566951     13.566951     27.133902
     -3.488488     11.096466     11.096466     22.192933
     -3.478478      8.844108      8.844108     17.688216
     -3.468468      7.056810      7.056810     14.113620
     -3.458458      5.975235      5.975235     11.950470
     -3.448448      5.744205      5.744205     11.488411
     -3.438438      6.353556      6.353556     12.707113
     -3.428428      7.622679      7.622679     15.245357
     -3.418418      9.234562      9.234562     18.469125
     -3.408408     10.818696     10.818696     21.637391
     -3.398398     12.067350     12.067350     24.134700
     -3.388388     12.848689     12.848689     25.697377
     -3.378378     13.268786     13.268786     26.537571
     -3.368368     13.648885     13.648885     27.297770
     -3.358358     14.421786     14.421786     28.843572
     -3.348348     15.989082     15.989082     31.978164
     -3.338338     18.592986     18.592986     37.185971
     -3.328328     22.236536     22.236536     44.473072
     -3.318318     26.654891     26.654891     53.309781
     -3.308308     31.327159     31.327159     62.654317
     -3.298298     35.531359     35.531359     71.062719
     -3.288288     38.461784     38.461784     76.923568
     -3.278278     39.415482     39.415482     78.830964
     -3.268268     38.007047     38.007047     76.014094
     -3.258258     34.323731     34.323731     68.647461
     -3.248248     28.934686     28.934686     57.869372
     -3.238238     22.732867     22.732867     45.465735
     -3.228228     16.676246     16.676246     33.352492
     -3.218218     11.544392     11.544392     23.088783
     -3.208208      7.804543      7.804543     15.609086
     -3.198198      5.609580      5.609580     11.219159
     -3.188188      4.882133      4.882133      9.764266
     -3.178178      5.415628      5.415628     10.831256
     -3.168168      6.947198      6.947198     13.894396
     -3.158158      9.199934      9.199934     18.399868
     -3.148148     11.917917     11.917917     23.835833
     -3.138138     14.910543     14.910543     29.821087
     -3.128128     18.093805     18.093805     36.187609
     -3.118118     21.493995     21.493995     42.987990
     -3.108108     25.188208     25.188208     50.376416
     -3.098098     29.195210     29.195210     58.390419
     -3.088088     33.371865     33.371865     66.743731
     -3.078078     37.379341     37.379341     74.758682
     -3.068068     40.747482     40.747482     81.494965
     -3.058058     43.007866     43.007866     86.015732
     -3.048048     43.827200     43.827200     87.654400
     -3.038038     43.079951     43.079951     86.159902
     -3.028028     40.843778     40.843778     81.687556
     -3.018018     37.348253     37.348253     74.696507
     -3.008008     32.923549     32.923549     65.847097
     -2.997998     27.975880     27.975880     55.951760
     -2.987988     22.982671     22.982671     45.965342
     -2.977978     18.480555     18.480555     36.961109
     -2.967968     15.024361     15.024361     30.048723
     -2.957958     13.114562     13.114562     26.229124
     -2.947948     13.106966     13.106966     26.213932
     -2.937938     15.124460     15.124460     30.248919
     -2.927928     18.991550     18.991550     37.983100
     -2.917918     24.214889     24.214889     48.429779
     -2.907908     30.033606     30.033606     60.067213
     -2.897898     35.551203     35.551203     71.102407
     -2.887888     39.930864     39.930864     79.861729
     -2.877878     42.599203     42.599203     85.198406
     -2.867868     43.383074     43.383074     86.766149
     -2.857858     42.519211     42.519211     85.038422
     -2.847848     40.526412     40.526412     81.052824
     -2.837838     37.991751     37.991751     75.983503
     -2.827828     35.362934     35.362934     70.725867
     -2.817818     32.835335     32.835335     65.670670
     -2.807808     30.374485     30.374485     60.748969
     -2.797798     27.846895     27.846895     55.693791
     -2.787788     25.179666     25.179666     50.359332
     -2.777778     22.459889     22.459889     44.919778
     -2.767768     19.923415     19.923415     39.846830
     -2.757758     17.847585     17.847585     35.695170
     -2.747748     16.417613     16.417613     32.835227
     -2.737738     15.649743     15.649743     31.299486
     -2.727728     15.417487     15.417487     30.834974
     -2.717718     15.561296     15.561296     31.122591
     -2.707708     16.007160     16.007160     32.014320
     -2.697698     16.811906     16.811906     33.623812
     -2.687688     18.100086     18.100086     36.200172
     -2.677678     19.931259     19.931259     39.862518
     -2.667668     22.188431     22.188431     44.376861
     -2.657658     24.570916     24.570916     49.141831
     -2.647648     26.708932     26.708932     53.417864
     -2.637638     28.335170     28.335170     56.670339
     -2.627628     29.407266     29.407266     58.814532
     -2.617618     30.105422     30.105422     60.210843
     -2.607608     30.711015     30.711015     61.422029
     -2.597598     31.446434     31.446434     62.892869
     -2.587588     32.370536     32.370536     64.741071
     -2.577578     33.372766     33.372766     66.745532
     -2.567568     34.237873     34.237873     68.475745
     -2.557558     34.719537     34.719537     69.439074
     -2.547548     34.585283     34.585283     69.170566
     -2.537538     33.644604     33.644604     67.289209
     -2.527528     31.795805     31.795805     63.591610
     -2.517518     29.101877     29.101877     58.203754
     -2.507508     25.857515     25.857515     51.715030
     -2.497497     22.585857     22.585857     45.171714
     -2.487487     19.930420     19.930420     39.860841
     -2.477477     18.467885     18.467885     36.935770
     -2.467467     18.518698     18.518698     37.037395
     -2.457457     20.042102     20.042102     40.084205
     -2.447447     22.666095     22.666095     45.332190
     -2.437437     25.841462     25.841462     51.682924
     -2.427427     29.052017     29.052017     58.104033
     -2.417417     31.986049     31.986049     63.972097
     -2.407407     34.590484     34.590484     69.180967
     -2.397397     36.984528     36.984528     73.969057
     -2.387387     39.279212     39.279212     78.558424
     -2.377377     41.398838     41.398838     82.797677
     -2.367367     43.003460     43.003460     86.006920
     -2.357357     43.564351     43.564351     87.128703
     -2.347347     42.568945     42.568945     85.137889
     -2.337337     39.764845     39.764845     79.529689
     -2.327327     35.329041     35.329041     70.658081
     -2.317317     29.881937     29.881937     59.763875
     -2.307307     24.339014     24.339014     48.678029
     -2.297297     19.665453     19.665453     39.330905
     -2.287287     16.632538     16.632538     33.265075
     -2.277277     15.657363     15.657363     31.314726
     -2.267267     16.758876     16.758876     33.517753
     -2.257257     19.615598     19.615598     39.231196
     -2.247247     23.683927     23.683927     47.367855
     -2.237237     28.331752     28.331752     56.663505
     -2.227227     32.950598     32.950598     65.901196
     -2.217217     37.024058     37.024058     74.048116
     -2.207207     40.149358     40.149358     80.298716
     -2.197197     42.029963     42.029963     84.059926
     -2.187187     42.470675     42.470675     84.941350
     -2.177177     41.400619     41.400619     82.801239
     -2.167167     38.921447     38.921447     77.842894
     -2.157157     35.343722     35.343722     70.687443
     -2.147147     31.161430     31.161430     62.322861
     -2.137137     26.940900     26.940900     53.881800
     -2.127127     23.155254     23.155254     46.310507
     -2.117117     20.041205     20.041205     40.082410
     -2.107107     17.554483     17.554483     35.108966
     -2.097097     15.448399     15.448399     30.896799
     -2.087087     13.430435     13.430435     26.860870
     -2.077077     11.311421     11.311421     22.622841
     -2.067067      9.075608      9.075608     18.151216
     -2.057057      6.853389      6.853389     13.706777
     -2.047047      4.832615      4.832615      9.665230
     -2.037037      3.166773      3.166773      6.333547
     -2.027027      1.923264      1.923264      3.846529
     -2.017017      1.081883      1.081883      2.163765
     -2.007007      0.566714      0.566714      1.133429
     -1.996997      0.286551      0.286551      0.573102
     -1.986987      0.166510      0.166510      0.333020
     -1.976977      0.166005      0.166005      0.332011
     -1.966967      0.286449      0.286449      0.572898
     -1.956957      0.573151      0.573151      1.146302
     -1.946947      1.111910      1.111910      2.223819
     -1.936937      2.016195      2.016195      4.032390
     -1.926927      3.399962      3.399962      6.799924
     -1.916917      5.336479      5.336479     10.672959
     -1.906907      7.813666      7.813666     15.627333
     -1.896897     10.705351     10.705351     21.410702
     -1.886887     13.777995     13.777995     27.555989
     -1.876877     16.740234     16.740234     33.480467
     -1.866867     19.322739     19.322739     38.645479
     -1.856857     21.359036     21.359036     42.718073
     -1.846847     22.833300     22.833300     45.666600
     -1.836837     23.870988     23.870988     47.741976
     -1.826827     24.668767     24.668767     49.337534
     -1.816817     25.385578     25.385578     50.771156
     -1.806807     26.039151     26.039151     52.078302
     -1.796797     26.460144     26.460144     52.920287
     -1.786787     26.338021     26.338021     52.676043
     -1.776777     25.349666     25.349666     50.699331
     -1.766767     23.314426     23.314426     46.628853
     -1.756757     20.298996     20.298996     40.597993
     -1.746747     16.619399     16.619399     33.238799
     -1.736737     12.742656     12.742656     25.485312
     -1.726727      9.142031      9.142031     18.284063
     -1.716717      6.176006      6.176006     12.352013
     -1.706707      4.036976      4.036976      8.073952
     -1.696697      2.771691      2.771691      5.543382
     -1.686687      2.339710      2.339710      4.679420
     -1.676677      2.665601      2.665601      5.331201
     -1.666667      3.655082      3.655082      7.310165
     -1.656657      5.173199      5.173199     10.346397
     -1.646647      7.009134      7.009134     14.018268
     -1.636637      8.864735      8.864735     17.729471
     -1.626627     10.394777     10.394777     20.789554
