# EIG2DOS: Utility for SIESTA to obtain the electronic density of states
#  E. Artacho, Apr 1999, A. Garcia, Apr 2012
#  Nick R. Papior, Feb 2017
# ------------------------------------------
# Eigenvalues calculated from a non-polarized calculation
# Eigenvalues read from siesta.EIG
# Kpoint weights read from siesta.KP
# Using smearing parameter:   0.0500
# Using 1000 points in the energy range
# Selected bands: 1 to: 2981
# Emin, Emax in file for selected band(s):    -27.1416725    218.3490610
# Nbands, Nspin, Nk   =   2981     1     1
# E_F                 =    -4.2537 eV --> (shifted to ZERO)
# Broadening          =     0.0500 eV
#
#        E            N(up)  (=)   N(down)         Ntot
     -5.000000     36.332544     36.332544     72.665087
     -4.989990     39.514038     39.514038     79.028075
     -4.979980     41.806171     41.806171     83.612343
     -4.969970     42.905076     42.905076     85.810152
     -4.959960     42.676708     42.676708     85.353417
     -4.949950     41.193353     41.193353     82.386705
     -4.939940     38.729570     38.729570     77.459140
     -4.929930     35.730761     35.730761     71.461522
     -4.919920     32.771587     32.771587     65.543174
     -4.909910     30.507866     30.507866     61.015732
     -4.899900     29.604266     29.604266     59.208531
     -4.889890     30.611411     30.611411     61.222821
     -4.879880     33.788614     33.788614     67.577228
     -4.869870     38.920769     38.920769     77.841537
     -4.859860     45.227326     45.227326     90.454652
     -4.849850     51.460581     51.460581    102.921162
     -4.839840     56.216355     56.216355    112.432710
     -4.829830     58.363202     58.363202    116.726404
     -4.819820     57.410136     57.410136    114.820272
     -4.809810     53.643299     53.643299    107.286598
     -4.799800     47.973086     47.973086     95.946172
     -4.789790     41.578168     41.578168     83.156336
     -4.779780     35.520962     35.520962     71.041924
     -4.769770     30.492543     30.492543     60.985086
     -4.759760     26.749962     26.749962     53.499924
     -4.749750     24.206986     24.206986     48.413972
     -4.739740     22.588637     22.588637     45.177274
     -4.729730     21.569573     21.569573     43.139146
     -4.719720     20.856927     20.856927     41.713854
     -4.709710     20.217526     20.217526     40.435052
     -4.699700     19.473451     19.473451     38.946902
     -4.689690     18.498199     18.498199     36.996398
     -4.679680     17.238400     17.238400     34.476800
     -4.669670     15.763958     15.763958     31.527916
     -4.659660     14.321748     14.321748     28.643496
     -4.649650     13.351479     13.351479     26.702959
     -4.639640     13.429038     13.429038     26.858075
     -4.629630     15.130053     15.130053     30.260107
     -4.619620     18.841508     18.841508     37.683016
     -4.609610     24.578932     24.578932     49.157864
     -4.599600     31.881837     31.881837     63.763674
     -4.589590     39.850840     39.850840     79.701680
     -4.579580     47.348138     47.348138     94.696275
     -4.569570     53.314277     53.314277    106.628553
     -4.559560     57.088337     57.088337    114.176673
     -4.549550     58.597911     58.597911    117.195822
     -4.539540     58.333380     58.333380    116.666761
     -4.529530     57.118657     57.118657    114.237315
     -4.519520     55.783575     55.783575    111.567150
     -4.509510     54.878846     54.878846    109.757692
     -4.499499     54.538067     54.538067    109.076133
     -4.489489     54.511745     54.511745    109.023491
     -4.479479     54.324213     54.324213    108.648425
     -4.469469     53.470134     53.470134    106.940269
     -4.459459     51.577375     51.577375    103.154750
     -4.449449     48.498009     48.498009     96.996018
     -4.439439     44.325665     44.325665     88.651330
     -4.429429     39.360555     39.360555     78.721110
     -4.419419     34.049609     34.049609     68.099218
     -4.409409     28.920907     28.920907     57.841814
     -4.399399     24.516362     24.516362     49.032724
     -4.389389     21.315746     21.315746     42.631492
     -4.379379     19.649093     19.649093     39.298186
     -4.369369     19.613445     19.613445     39.226890
     -4.359359     21.029458     21.029458     42.058916
     -4.349349     23.473545     23.473545     46.947089
     -4.339339     26.393497     26.393497     52.786994
     -4.329329     29.272978     29.272978     58.545955
     -4.319319     31.780327     31.780327     63.560655
     -4.309309     33.840886     33.840886     67.681772
     -4.299299     35.607481     35.607481     71.214962
     -4.289289     37.347691     37.347691     74.695383
     -4.279279     39.294122     39.294122     78.588244
     -4.269269     41.508120     41.508120     83.016240
     -4.259259     43.799099     43.799099     87.598198
     -4.249249     45.731973     45.731973     91.463946
     -4.239239     46.739518     46.739518     93.479037
     -4.229229     46.322139     46.322139     92.644278
     -4.219219     44.267577     44.267577     88.535154
     -4.209209     40.788645     40.788645     81.577290
     -4.199199     36.495580     36.495580     72.991160
     -4.189189     32.196879     32.196879     64.393759
     -4.179179     28.616388     28.616388     57.232776
     -4.169169     26.162851     26.162851     52.325702
     -4.159159     24.857970     24.857970     49.715940
     -4.149149     24.441256     24.441256     48.882513
     -4.139139     24.580037     24.580037     49.160074
     -4.129129     25.068744     25.068744     50.137489
     -4.119119     25.916871     25.916871     51.833741
     -4.109109     27.284074     27.284074     54.568148
     -4.099099     29.296863     29.296863     58.593726
     -4.089089     31.845446     31.845446     63.690892
     -4.079079     34.482422     34.482422     68.964844
     -4.069069     36.505578     36.505578     73.011156
     -4.059059     37.212087     37.212087     74.424174
     -4.049049     36.208129     36.208129     72.416258
     -4.039039     33.612673     33.612673     67.225346
     -4.029029     30.044372     30.044372     60.088745
     -4.019019     26.400050     26.400050     52.800101
     -4.009009     23.545502     23.545502     47.091004
     -3.998999     22.072712     22.072712     44.145424
     -3.988989     22.217434     22.217434     44.434867
     -3.978979     23.926699     23.926699     47.853398
     -3.968969     26.989915     26.989915     53.979830
     -3.958959     31.142778     31.142778     62.285556
     -3.948949     36.107562     36.107562     72.215123
     -3.938939     41.594784     41.594784     83.189568
     -3.928929     47.312089     47.312089     94.624178
     -3.918919     52.998149     52.998149    105.996298
     -3.908909     58.455280     58.455280    116.910560
     -3.898899     63.537349     63.537349    127.074698
     -3.888889     68.076749     68.076749    136.153497
     -3.878879     71.785280     71.785280    143.570560
     -3.868869     74.199325     74.199325    148.398651
     -3.858859     74.731327     74.731327    149.462654
     -3.848849     72.838364     72.838364    145.676728
     -3.838839     68.252113     68.252113    136.504227
     -3.828829     61.169964     61.169964    122.339928
     -3.818819     52.311120     52.311120    104.622239
     -3.808809     42.795199     42.795199     85.590399
     -3.798799     33.877666     33.877666     67.755332
     -3.788789     26.636584     26.636584     53.273169
     -3.778779     21.719697     21.719697     43.439393
     -3.768769     19.228084     19.228084     38.456168
     -3.758759     18.756375     18.756375     37.512749
     -3.748749     19.559004     19.559004     39.118007
     -3.738739     20.784362     20.784362     41.568724
     -3.728729     21.713400     21.713400     43.426800
     -3.718719     21.947166     21.947166     43.894332
     -3.708709     21.501345     21.501345     43.002690
     -3.698699     20.783573     20.783573     41.567146
     -3.688689     20.453272     20.453272     40.906545
     -3.678679     21.194463     21.194463     42.388925
     -3.668669     23.463885     23.463885     46.927771
     -3.658659     27.297036     27.297036     54.594071
     -3.648649     32.247490     32.247490     64.494980
     -3.638639     37.492395     37.492395     74.984790
     -3.628629     42.070551     42.070551     84.141102
     -3.618619     45.160840     45.160840     90.321680
     -3.608609     46.292954     46.292954     92.585909
     -3.598599     45.421416     45.421416     90.842833
     -3.588589     42.863307     42.863307     85.726614
     -3.578579     39.155192     39.155192     78.310383
     -3.568569     34.895791     34.895791     69.791582
     -3.558559     30.615714     30.615714     61.231427
     -3.548549     26.686804     26.686804     53.373608
     -3.538539     23.275142     23.275142     46.550285
     -3.528529     20.347486     20.347486     40.694973
     -3.518519     17.737856     17.737856     35.475713
     -3.508509     15.258183     15.258183     30.516366
     -3.498498     12.809693     12.809693     25.619386
     -3.488488     10.445503     10.445503     20.891006
     -3.478478      8.358710      8.358710     16.717420
     -3.468468      6.807654      6.807654     13.615308
     -3.458458      6.015340      6.015340     12.030681
     -3.448448      6.081775      6.081775     12.163551
     -3.438438      6.934686      6.934686     13.869371
     -3.428428      8.330921      8.330921     16.661841
     -3.418418      9.912473      9.912473     19.824946
     -3.408408     11.310418     11.310418     22.620836
     -3.398398     12.271400     12.271400     24.542800
     -3.388388     12.762084     12.762084     25.524167
     -3.378378     13.004326     13.004326     26.008652
     -3.368368     13.417665     13.417665     26.835330
     -3.358358     14.486026     14.486026     28.972052
     -3.348348     16.597562     16.597562     33.195123
     -3.338338     19.910821     19.910821     39.821642
     -3.328328     24.279481     24.279481     48.558962
     -3.318318     29.243006     29.243006     58.486011
     -3.308308     34.081290     34.081290     68.162579
     -3.298298     37.935316     37.935316     75.870631
     -3.288288     39.991705     39.991705     79.983409
     -3.278278     39.700744     39.700744     79.401489
     -3.268268     36.958240     36.958240     73.916481
     -3.258258     32.168332     32.168332     64.336663
     -3.248248     26.143705     26.143705     52.287409
     -3.238238     19.876286     19.876286     39.752573
     -3.228228     14.275261     14.275261     28.550522
     -3.218218      9.975869      9.975869     19.951738
     -3.208208      7.270924      7.270924     14.541848
     -3.198198      6.148329      6.148329     12.296658
     -3.188188      6.379201      6.379201     12.758403
     -3.178178      7.609484      7.609484     15.218969
     -3.168168      9.442586      9.442586     18.885172
     -3.158158     11.525344     11.525344     23.050688
     -3.148148     13.642586     13.642586     27.285172
     -3.138138     15.794687     15.794687     31.589375
     -3.128128     18.208115     18.208115     36.416229
     -3.118118     21.239513     21.239513     42.479026
     -3.108108     25.183464     25.183464     50.366927
     -3.098098     30.056286     30.056286     60.112572
     -3.088088     35.462547     35.462547     70.925094
     -3.078078     40.628804     40.628804     81.257609
     -3.068068     44.614142     44.614142     89.228284
     -3.058058     46.616327     46.616327     93.232653
     -3.048048     46.237606     46.237606     92.475211
     -3.038038     43.591144     43.591144     87.182287
     -3.028028     39.212345     39.212345     78.424691
     -3.018018     33.840290     33.840290     67.680580
     -3.008008     28.191358     28.191358     56.382715
     -2.997998     22.827967     22.827967     45.655933
     -2.987988     18.150895     18.150895     36.301789
     -2.977978     14.468731     14.468731     28.937461
     -2.967968     12.067894     12.067894     24.135788
     -2.957958     11.227123     11.227123     22.454246
     -2.947948     12.164279     12.164279     24.328557
     -2.937938     14.940544     14.940544     29.881087
     -2.927928     19.365465     19.365465     38.730929
     -2.917918     24.948898     24.948898     49.897795
     -2.907908     30.936382     30.936382     61.872763
     -2.897898     36.440793     36.440793     72.881585
     -2.887888     40.645647     40.645647     81.291295
     -2.877878     43.016434     43.016434     86.032869
     -2.867868     43.437981     43.437981     86.875963
     -2.857858     42.215373     42.215373     84.430746
     -2.847848     39.930864     39.930864     79.861727
     -2.837838     37.214678     37.214678     74.429356
     -2.827828     34.528958     34.528958     69.057916
     -2.817818     32.057265     32.057265     64.114531
     -2.807808     29.738334     29.738334     59.476668
     -2.797798     27.409861     27.409861     54.819722
     -2.787788     24.975021     24.975021     49.950042
     -2.777778     22.499906     22.499906     44.999813
     -2.767768     20.195888     20.195888     40.391777
     -2.757758     18.310340     18.310340     36.620680
     -2.747748     17.001760     17.001760     34.003521
     -2.737738     16.279968     16.279968     32.559935
     -2.727728     16.045783     16.045783     32.091566
     -2.717718     16.196379     16.196379     32.392759
     -2.707708     16.716691     16.716691     33.433381
     -2.697698     17.685999     17.685999     35.371997
     -2.687688     19.188741     19.188741     38.377482
     -2.677678     21.190311     21.190311     42.380621
     -2.667668     23.471281     23.471281     46.942561
     -2.657658     25.680403     25.680403     51.360806
     -2.647648     27.486867     27.486867     54.973735
     -2.637638     28.740405     28.740405     57.480811
     -2.627628     29.536626     29.536626     59.073252
     -2.617618     30.145181     30.145181     60.290362
     -2.607608     30.847822     30.847822     61.695644
     -2.597598     31.787223     31.787223     63.574447
     -2.587588     32.908323     32.908323     65.816646
     -2.577578     34.002081     34.002081     68.004162
     -2.567568     34.796795     34.796795     69.593591
     -2.557558     35.032983     35.032983     70.065966
     -2.547548     34.501131     34.501131     69.002263
     -2.537538     33.069335     33.069335     66.138670
     -2.527528     30.733534     30.733534     61.467068
     -2.517518     27.684099     27.684099     55.368198
     -2.507508     24.339291     24.339291     48.678582
     -2.497497     21.292462     21.292462     42.584924
     -2.487487     19.163717     19.163717     38.327434
     -2.477477     18.406692     18.406692     36.813383
     -2.467467     19.155352     19.155352     38.310705
     -2.457457     21.183418     21.183418     42.366837
     -2.447447     23.998980     23.998980     47.997959
     -2.437437     27.035950     27.035950     54.071900
     -2.427427     29.860242     29.860242     59.720485
     -2.417417     32.300754     32.300754     64.601508
     -2.407407     34.447151     34.447151     68.894302
     -2.397397     36.515500     36.515500     73.031000
     -2.387387     38.644152     38.644152     77.288304
     -2.377377     40.719055     40.719055     81.438110
     -2.367367     42.321533     42.321533     84.643065
     -2.357357     42.840682     42.840682     85.681365
     -2.347347     41.714957     41.714957     83.429914
     -2.337337     38.698762     38.698762     77.397524
     -2.327327     34.029013     34.029013     68.058026
     -2.317317     28.411007     28.411007     56.822014
     -2.307307     22.830786     22.830786     45.661572
     -2.297297     18.280819     18.280819     36.561637
     -2.287287     15.512084     15.512084     31.024167
     -2.277277     14.891939     14.891939     29.783878
     -2.267267     16.385712     16.385712     32.771424
     -2.257257     19.631335     19.631335     39.262671
     -2.247247     24.059362     24.059362     48.118724
     -2.237237     29.017544     29.017544     58.035088
     -2.227227     33.873147     33.873147     67.746295
     -2.217217     38.079030     38.079030     76.158061
     -2.207207     41.202980     41.202980     82.405960
     -2.197197     42.934992     42.934992     85.869984
     -2.187187     43.096683     43.096683     86.193365
     -2.177177     41.669679     41.669679     83.339358
     -2.167167     38.834067     38.834067     77.668134
     -2.157157     34.980095     34.980095     69.960190
     -2.147147     30.652135     30.652135     61.304270
     -2.137137     26.416381     26.416381     52.832762
     -2.127127     22.696491     22.696491     45.392982
     -2.117117     19.655652     19.655652     39.311305
     -2.107107     17.188717     17.188717     34.377434
     -2.097097     15.028809     15.028809     30.057617
     -2.087087     12.908463     12.908463     25.816926
     -2.077077     10.689657     10.689657     21.379315
     -2.067067      8.404553      8.404553     16.809106
     -2.057057      6.206014      6.206014     12.412028
     -2.047047      4.273854      4.273854      8.547708
     -2.037037      2.733371      2.733371      5.466743
     -2.027027      1.619958      1.619958      3.239916
     -2.017017      0.890335      0.890335      1.780670
     -2.007007      0.459340      0.459340      0.918680
     -1.996997      0.238727      0.238727      0.477455
     -1.986987      0.164591      0.164591      0.329182
     -1.976977      0.211671      0.211671      0.423342
     -1.966967      0.398625      0.398625      0.797249
     -1.956957      0.787287      0.787287      1.574573
     -1.946947      1.474439      1.474439      2.948877
     -1.936937      2.571463      2.571463      5.142926
     -1.926927      4.169405      4.169405      8.338811
     -1.916917      6.295078      6.295078     12.590157
     -1.906907      8.873878      8.873878     17.747755
     -1.896897     11.719432     11.719432     23.438864
     -1.886887     14.563214     14.563214     29.126429
     -1.876877     17.120500     17.120500     34.240999
     -1.866867     19.171801     19.171801     38.343602
     -1.856857     20.630982     20.630982     41.261964
     -1.846847     21.574674     21.574674     43.149348
     -1.836837     22.217561     22.217561     44.435123
     -1.826827     22.831028     22.831028     45.662055
     -1.816817     23.621264     23.621264     47.242528
     -1.806807     24.608001     24.608001     49.216002
     -1.796797     25.563666     25.563666     51.127331
     -1.786787     26.062358     26.062358     52.124716
     -1.776777     25.638822     25.638822     51.277644
     -1.766767     23.992264     23.992264     47.984528
     -1.756757     21.133986     21.133986     42.267972
     -1.746747     17.402700     17.402700     34.805399
     -1.736737     13.344648     13.344648     26.689297
     -1.726727      9.527921      9.527921     19.055842
     -1.716717      6.384970      6.384970     12.769939
     -1.706707      4.145047      4.145047      8.290094
     -1.696697      2.858627      2.858627      5.717253
     -1.686687      2.469219      2.469219      4.938437
     -1.676677      2.876967      2.876967      5.753934
     -1.666667      3.959701      3.959701      7.919402
     -1.656657      5.552311      5.552311     11.104622
     -1.646647      7.414580      7.414580     14.829160
     -1.636637      9.227379      9.227379     18.454757
     -1.626627     10.642808     10.642808     21.285617
