# EIG2DOS: Utility for SIESTA to obtain the electronic density of states
#  E. Artacho, Apr 1999, A. Garcia, Apr 2012
#  Nick R. Papior, Feb 2017
# ------------------------------------------
# Eigenvalues calculated from a non-polarized calculation
# Eigenvalues read from siesta.EIG
# Kpoint weights read from siesta.KP
# Using smearing parameter:   0.0500
# Using 1000 points in the energy range
# Selected bands: 1 to: 2981
# Emin, Emax in file for selected band(s):    -27.0303329    218.3102080
# Nbands, Nspin, Nk   =   2981     1     1
# E_F                 =    -4.2998 eV --> (shifted to ZERO)
# Broadening          =     0.0500 eV
#
#        E            N(up)  (=)   N(down)         Ntot
     -5.000000     45.407324     45.407324     90.814647
     -4.989990     49.216130     49.216130     98.432261
     -4.979980     51.437257     51.437257    102.874514
     -4.969970     51.846315     51.846315    103.692630
     -4.959960     50.499454     50.499454    100.998908
     -4.949950     47.701333     47.701333     95.402667
     -4.939940     43.925895     43.925895     87.851789
     -4.929930     39.735335     39.735335     79.470671
     -4.919920     35.730053     35.730053     71.460106
     -4.909910     32.529077     32.529077     65.058154
     -4.899900     30.746848     30.746848     61.493696
     -4.889890     30.919306     30.919306     61.838611
     -4.879880     33.355260     33.355260     66.710520
     -4.869870     37.946196     37.946196     75.892393
     -4.859860     44.030087     44.030087     88.060175
     -4.849850     50.424260     50.424260    100.848520
     -4.839840     55.684672     55.684672    111.369344
     -4.829830     58.530105     58.530105    117.060211
     -4.819820     58.259634     58.259634    116.519267
     -4.809810     54.969680     54.969680    109.939359
     -4.799800     49.469869     49.469869     98.939739
     -4.789790     42.950979     42.950979     85.901958
     -4.779780     36.575173     36.575173     73.150346
     -4.769770     31.168861     31.168861     62.337721
     -4.759760     27.110565     27.110565     54.221130
     -4.749750     24.392083     24.392083     48.784167
     -4.739740     22.763812     22.763812     45.527625
     -4.729730     21.877006     21.877006     43.754011
     -4.719720     21.378659     21.378659     42.757318
     -4.709710     20.957605     20.957605     41.915210
     -4.699700     20.362576     20.362576     40.725151
     -4.689690     19.416292     19.416292     38.832583
     -4.679680     18.041840     18.041840     36.083681
     -4.669670     16.302841     16.302841     32.605683
     -4.659660     14.441602     14.441602     28.883203
     -4.649650     12.888342     12.888342     25.776683
     -4.639640     12.216964     12.216964     24.433929
     -4.629630     13.037647     13.037647     26.075294
     -4.619620     15.836655     15.836655     31.673311
     -4.609610     20.794810     20.794810     41.589620
     -4.599600     27.637154     27.637154     55.274307
     -4.589590     35.581331     35.581331     71.162662
     -4.579580     43.443858     43.443858     86.887716
     -4.569570     49.916124     49.916124     99.832248
     -4.559560     53.943628     53.943628    107.887255
     -4.549550     55.071785     55.071785    110.143570
     -4.539540     53.608584     53.608584    107.217167
     -4.529530     50.519536     50.519536    101.039072
     -4.519520     47.086419     47.086419     94.172838
     -4.509510     44.466834     44.466834     88.933668
     -4.499499     43.330848     43.330848     86.661695
     -4.489489     43.707114     43.707114     87.414229
     -4.479479     45.072419     45.072419     90.144838
     -4.469469     46.617771     46.617771     93.235541
     -4.459459     47.566241     47.566241     95.132481
     -4.449449     47.419966     47.419966     94.839933
     -4.439439     46.063694     46.063694     92.127388
     -4.429429     43.720540     43.720540     87.441079
     -4.419419     40.812049     40.812049     81.624098
     -4.409409     37.798976     37.798976     75.597951
     -4.399399     35.066297     35.066297     70.132593
     -4.389389     32.876932     32.876932     65.753865
     -4.379379     31.376918     31.376918     62.753836
     -4.369369     30.614619     30.614619     61.229237
     -4.359359     30.547737     30.547737     61.095473
     -4.349349     31.041595     31.041595     62.083190
     -4.339339     31.884000     31.884000     63.768001
     -4.329329     32.836780     32.836780     65.673559
     -4.319319     33.715957     33.715957     67.431914
     -4.309309     34.465158     34.465158     68.930315
     -4.299299     35.182258     35.182258     70.364516
     -4.289289     36.079620     36.079620     72.159240
     -4.279279     37.387269     37.387269     74.774538
     -4.269269     39.229592     39.229592     78.459184
     -4.259259     41.516391     41.516391     83.032781
     -4.249249     43.893016     43.893016     87.786032
     -4.239239     45.788995     45.788995     91.577990
     -4.229229     46.577397     46.577397     93.154793
     -4.219219     45.804358     45.804358     91.608717
     -4.209209     43.393648     43.393648     86.787296
     -4.199199     39.718255     39.718255     79.436510
     -4.189189     35.485588     35.485588     70.971177
     -4.179179     31.481463     31.481463     62.962926
     -4.169169     28.297850     28.297850     56.595700
     -4.159159     26.175870     26.175870     52.351740
     -4.149149     25.026096     25.026096     50.052192
     -4.139139     24.590941     24.590941     49.181882
     -4.129129     24.647126     24.647126     49.294251
     -4.119119     25.138697     25.138697     50.277394
     -4.109109     26.174936     26.174936     52.349872
     -4.099099     27.896751     27.896751     55.793502
     -4.089089     30.282863     30.282863     60.565725
     -4.079079     33.007187     33.007187     66.014374
     -4.069069     35.447083     35.447083     70.894165
     -4.059059     36.871069     36.871069     73.742137
     -4.049049     36.732739     36.732739     73.465478
     -4.039039     34.924797     34.924797     69.849595
     -4.029029     31.856792     31.856792     63.713584
     -4.019019     28.314443     28.314443     56.628886
     -4.009009     25.179119     25.179119     50.358238
     -3.998999     23.154276     23.154276     46.308553
     -3.988989     22.620615     22.620615     45.241230
     -3.978979     23.648745     23.648745     47.297490
     -3.968969     26.106529     26.106529     52.213058
     -3.958959     29.767275     29.767275     59.534550
     -3.948949     34.363107     34.363107     68.726214
     -3.938939     39.593044     39.593044     79.186089
     -3.928929     45.132569     45.132569     90.265138
     -3.918919     50.675834     50.675834    101.351669
     -3.908909     55.994060     55.994060    111.988120
     -3.898899     60.959031     60.959031    121.918061
     -3.888889     65.490981     65.490981    130.981963
     -3.878879     69.440961     69.440961    138.881923
     -3.868869     72.474046     72.474046    144.948092
     -3.858859     74.041289     74.041289    148.082578
     -3.848849     73.495120     73.495120    146.990240
     -3.838839     70.327720     70.327720    140.655441
     -3.828829     64.435116     64.435116    128.870232
     -3.818819     56.278021     56.278021    112.556042
     -3.808809     46.847924     46.847924     93.695849
     -3.798799     37.436046     37.436046     74.872092
     -3.788789     29.293298     29.293298     58.586596
     -3.778779     23.311463     23.311463     46.622927
     -3.768769     19.833243     19.833243     39.666486
     -3.758759     18.635013     18.635013     37.270026
     -3.748749     19.061288     19.061288     38.122576
     -3.738739     20.251557     20.251557     40.503113
     -3.728729     21.391507     21.391507     42.783014
     -3.718719     21.929263     21.929263     43.858525
     -3.708709     21.710995     21.710995     43.421989
     -3.698699     21.005542     21.005542     42.011083
     -3.688689     20.407439     20.407439     40.814879
     -3.678679     20.635296     20.635296     41.270592
     -3.668669     22.275529     22.275529     44.551059
     -3.658659     25.549772     25.549772     51.099544
     -3.648649     30.191193     30.191193     60.382387
     -3.638639     35.486418     35.486418     70.972835
     -3.628629     40.477442     40.477442     80.954885
     -3.618619     44.247602     44.247602     88.495203
     -3.608609     46.176961     46.176961     92.353921
     -3.598599     46.072230     46.072230     92.144459
     -3.588589     44.143720     44.143720     88.287440
     -3.578579     40.872921     40.872921     81.745841
     -3.568569     36.845515     36.845515     73.691030
     -3.558559     32.607820     32.607820     65.215640
     -3.548549     28.568640     28.568640     57.137280
     -3.538539     24.947482     24.947482     49.894964
     -3.528529     21.771145     21.771145     43.542289
     -3.518519     18.923926     18.923926     37.847851
     -3.508509     16.243018     16.243018     32.486036
     -3.498498     13.625496     13.625496     27.250992
     -3.488488     11.100335     11.100335     22.200671
     -3.478478      8.833871      8.833871     17.667742
     -3.468468      7.070959      7.070959     14.141919
     -3.458458      6.042541      6.042541     12.085083
     -3.448448      5.877266      5.877266     11.754531
     -3.438438      6.544314      6.544314     13.088628
     -3.428428      7.841504      7.841504     15.683008
     -3.418418      9.434854      9.434854     18.869707
     -3.408408     10.947690     10.947690     21.895380
     -3.398398     12.080990     12.080990     24.161980
     -3.388388     12.725673     12.725673     25.451346
     -3.378378     13.018478     13.018478     26.036956
     -3.368368     13.310157     13.310157     26.620315
     -3.358358     14.053486     14.053486     28.106972
     -3.348348     15.655420     15.655420     31.310841
     -3.338338     18.347788     18.347788     36.695575
     -3.328328     22.109999     22.109999     44.219997
     -3.318318     26.646300     26.646300     53.292601
     -3.308308     31.406523     31.406523     62.813045
     -3.298298     35.650672     35.650672     71.301344
     -3.288288     38.572433     38.572433     77.144867
     -3.278278     39.484453     39.484453     78.968907
     -3.268268     38.024206     38.024206     76.048412
     -3.258258     34.296500     34.296500     68.593000
     -3.248248     28.872096     28.872096     57.744193
     -3.238238     22.624194     22.624194     45.248388
     -3.228228     16.468537     16.468537     32.937073
     -3.218218     11.120534     11.120534     22.241068
     -3.208208      6.963525      6.963525     13.927051
     -3.198198      4.055549      4.055549      8.111098
     -3.188188      2.235898      2.235898      4.471797
     -3.178178      1.264159      1.264159      2.528318
     -3.168168      0.936495      0.936495      1.872990
     -3.158158      1.154255      1.154255      2.308510
     -3.148148      1.944013      1.944013      3.888026
     -3.138138      3.436230      3.436230      6.872459
     -3.128128      5.807784      5.807784     11.615569
     -3.118118      9.194266      9.194266     18.388532
     -3.108108     13.588672     13.588672     27.177345
     -3.098098     18.760641     18.760641     37.521283
     -3.088088     24.240354     24.240354     48.480708
     -3.078078     29.398100     29.398100     58.796199
     -3.068068     33.609728     33.609728     67.219455
     -3.058058     36.446491     36.446491     72.892981
     -3.048048     37.798316     37.798316     75.596632
     -3.038038     37.861251     37.861251     75.722503
     -3.028028     36.991611     36.991611     73.983222
     -3.018018     35.511187     35.511187     71.022374
     -3.008008     33.583114     33.583114     67.166229
     -2.997998     31.235800     31.235800     62.471601
     -2.987988     28.515976     28.515976     57.031952
     -2.977978     25.665876     25.665876     51.331752
     -2.967968     23.201258     23.201258     46.402516
     -2.957958     21.825047     21.825047     43.650094
     -2.947948     22.203634     22.203634     44.407269
     -2.937938     24.703208     24.703208     49.406417
     -2.927928     29.200155     29.200155     58.400310
     -2.917918     35.046088     35.046088     70.092176
     -2.907908     41.207477     41.207477     82.414954
     -2.897898     46.536500     46.536500     93.073000
     -2.887888     50.083055     50.083055    100.166110
     -2.877878     51.342424     51.342424    102.684849
     -2.867868     50.355917     50.355917    100.711834
     -2.857858     47.635973     47.635973     95.271947
     -2.847848     43.951797     43.951797     87.903595
     -2.837838     40.060724     40.060724     80.121448
     -2.827828     36.485517     36.485517     72.971034
     -2.817818     33.414051     33.414051     66.828101
     -2.807808     30.745131     30.745131     61.490262
     -2.797798     28.243209     28.243209     56.486418
     -2.787788     25.720583     25.720583     51.441166
     -2.777778     23.158785     23.158785     46.317570
     -2.767768     20.716287     20.716287     41.432574
     -2.757758     18.631513     18.631513     37.263027
     -2.747748     17.086628     17.086628     34.173257
     -2.737738     16.116904     16.116904     32.233808
     -2.727728     15.619962     15.619962     31.239924
     -2.717718     15.455129     15.455129     30.910258
     -2.707708     15.564114     15.564114     31.128227
     -2.697698     16.028240     16.028240     32.056480
     -2.687688     17.017093     17.017093     34.034187
     -2.677678     18.655378     18.655378     37.310755
     -2.667668     20.892835     20.892835     41.785670
     -2.657658     23.466467     23.466467     46.932933
     -2.647648     25.988880     25.988880     51.977760
     -2.637638     28.115472     28.115472     56.230943
     -2.627628     29.690432     29.690432     59.380864
     -2.617618     30.784806     30.784806     61.569612
     -2.607608     31.611183     31.611183     63.222367
     -2.597598     32.378361     32.378361     64.756722
     -2.587588     33.178557     33.178557     66.357115
     -2.577578     33.961619     33.961619     67.923239
     -2.567568     34.581137     34.581137     69.162275
     -2.557558     34.855544     34.855544     69.711088
     -2.547548     34.603185     34.603185     69.206371
     -2.537538     33.659862     33.659862     67.319723
     -2.527528     31.917032     31.917032     63.834064
     -2.517518     29.397893     29.397893     58.795785
     -2.507508     26.336965     26.336965     52.673929
     -2.497497     23.197145     23.197145     46.394291
     -2.487487     20.579609     20.579609     41.159217
     -2.477477     19.044229     19.044229     38.088458
     -2.467467     18.916981     18.916981     37.833963
     -2.457457     20.176696     20.176696     40.353392
     -2.447447     22.478236     22.478236     44.956471
     -2.437437     25.304012     25.304012     50.608024
     -2.427427     28.174509     28.174509     56.349018
     -2.417417     30.819838     30.819838     61.639676
     -2.407407     33.231686     33.231686     66.463373
     -2.397397     35.571560     35.571560     71.143120
     -2.387387     37.981572     37.981572     75.963145
     -2.377377     40.394707     40.394707     80.789414
     -2.367367     42.446800     42.446800     84.893601
     -2.357357     43.547819     43.547819     87.095639
     -2.347347     43.094407     43.094407     86.188815
     -2.337337     40.734472     40.734472     81.468945
     -2.327327     36.564003     36.564003     73.128006
     -2.317317     31.164621     31.164621     62.329241
     -2.307307     25.464447     25.464447     50.928893
     -2.297297     20.484281     20.484281     40.968563
     -2.287287     17.072925     17.072925     34.145851
     -2.277277     15.722766     15.722766     31.445533
     -2.267267     16.507463     16.507463     33.014926
     -2.257257     19.131877     19.131877     38.263754
     -2.247247     23.053854     23.053854     46.107708
     -2.237237     27.629778     27.629778     55.259557
     -2.227227     32.241213     32.241213     64.482426
     -2.217217     36.372589     36.372589     72.745178
     -2.207207     39.630875     39.630875     79.261750
     -2.197197     41.725578     41.725578     83.451156
     -2.187187     42.448452     42.448452     84.896903
     -2.177177     41.689281     41.689281     83.378562
     -2.167167     39.491687     39.491687     78.983374
     -2.157157     36.109458     36.109458     72.218916
     -2.147147     32.003168     32.003168     64.006335
     -2.137137     27.741785     27.741785     55.483569
     -2.127127     23.834106     23.834106     47.668211
     -2.117117     20.568918     20.568918     41.137836
     -2.107107     17.948991     17.948991     35.897982
     -2.097097     15.753700     15.753700     31.507401
     -2.087087     13.691519     13.691519     27.383038
     -2.077077     11.556545     11.556545     23.113091
     -2.067067      9.311430      9.311430     18.622860
     -2.057057      7.071112      7.071112     14.142224
     -2.047047      5.018756      5.018756     10.037512
     -2.037037      3.312073      3.312073      6.624146
     -2.027027      2.026462      2.026462      4.052923
     -2.017017      1.148729      1.148729      2.297457
     -2.007007      0.606692      0.606692      1.213383
     -1.996997      0.309790      0.309790      0.619581
     -1.986987      0.182263      0.182263      0.364526
     -1.976977      0.182767      0.182767      0.365534
     -1.966967      0.313012      0.313012      0.626024
     -1.956957      0.619487      0.619487      1.238975
     -1.946947      1.188660      1.188660      2.377320
     -1.936937      2.131742      2.131742      4.263484
     -1.926927      3.554788      3.554788      7.109576
     -1.916917      5.515763      5.515763     11.031525
     -1.906907      7.980153      7.980153     15.960306
     -1.896897     10.794349     10.794349     21.588698
     -1.886887     13.694189     13.694189     27.388378
     -1.876877     16.353228     16.353228     32.706457
     -1.866867     18.457955     18.457955     36.915911
     -1.856857     19.785826     19.785826     39.571651
     -1.846847     20.261771     20.261771     40.523542
     -1.836837     19.976354     19.976354     39.952708
     -1.826827     19.157703     19.157703     38.315406
     -1.816817     18.099188     18.099188     36.198377
     -1.806807     17.059493     17.059493     34.118987
     -1.796797     16.169776     16.169776     32.339552
     -1.786787     15.391001     15.391001     30.782002
     -1.776777     14.548671     14.548671     29.097343
     -1.766767     13.433615     13.433615     26.867231
     -1.756757     11.919174     11.919174     23.838348
     -1.746747     10.035215     10.035215     20.070430
     -1.736737      7.966747      7.966747     15.933495
     -1.726727      5.990305      5.990305     11.980610
     -1.716717      4.392881      4.392881      8.785761
     -1.706707      3.416532      3.416532      6.833065
     -1.696697      3.242627      3.242627      6.485254
     -1.686687      3.996401      3.996401      7.992802
     -1.676677      5.738186      5.738186     11.476371
     -1.666667      8.421165      8.421165     16.842330
     -1.656657     11.828329     11.828329     23.656658
     -1.646647     15.532549     15.532549     31.065099
     -1.636637     18.930574     18.930574     37.861148
     -1.626627     21.372987     21.372987     42.745973
