# EIG2DOS: Utility for SIESTA to obtain the electronic density of states
#  E. Artacho, Apr 1999, A. Garcia, Apr 2012
#  Nick R. Papior, Feb 2017
# ------------------------------------------
# Eigenvalues calculated from a non-polarized calculation
# Eigenvalues read from siesta.EIG
# Kpoint weights read from siesta.KP
# Using smearing parameter:   0.0500
# Using 1000 points in the energy range
# Selected bands: 1 to: 2981
# Emin, Emax in file for selected band(s):    -27.2796024    218.3876620
# Nbands, Nspin, Nk   =   2981     1     1
# E_F                 =    -4.2112 eV --> (shifted to ZERO)
# Broadening          =     0.0500 eV
#
#        E            N(up)  (=)   N(down)         Ntot
     -5.000000     31.560330     31.560330     63.120661
     -4.989990     36.393876     36.393876     72.787752
     -4.979980     40.978580     40.978580     81.957160
     -4.969970     44.551026     44.551026     89.102053
     -4.959960     46.445328     46.445328     92.890655
     -4.949950     46.313541     46.313541     92.627082
     -4.939940     44.248982     44.248982     88.497965
     -4.929930     40.774549     40.774549     81.549097
     -4.919920     36.720969     36.720969     73.441938
     -4.909910     33.053425     33.053425     66.106850
     -4.899900     30.694047     30.694047     61.388093
     -4.889890     30.354500     30.354500     60.709000
     -4.879880     32.376647     32.376647     64.753293
     -4.869870     36.600197     36.600197     73.200394
     -4.859860     42.313929     42.313929     84.627859
     -4.849850     48.356736     48.356736     96.713472
     -4.839840     53.387882     53.387882    106.775764
     -4.829830     56.259498     56.259498    112.518996
     -4.819820     56.353329     56.353329    112.706658
     -4.809810     53.740963     53.740963    107.481927
     -4.799800     49.102679     49.102679     98.205357
     -4.789790     43.452687     43.452687     86.905373
     -4.779780     37.801793     37.801793     75.603586
     -4.769770     32.897253     32.897253     65.794505
     -4.759760     29.118489     29.118489     58.236978
     -4.749750     26.521752     26.521752     53.043503
     -4.739740     24.966605     24.966605     49.933211
     -4.729730     24.244499     24.244499     48.488997
     -4.719720     24.154863     24.154863     48.309726
     -4.709710     24.514410     24.514410     49.028821
     -4.699700     25.122524     25.122524     50.245048
     -4.689690     25.728959     25.728959     51.457918
     -4.679680     26.050547     26.050547     52.101095
     -4.669670     25.856809     25.856809     51.713617
     -4.659660     25.099220     25.099220     50.198439
     -4.649650     24.019304     24.019304     48.038609
     -4.639640     23.162236     23.162236     46.324473
     -4.629630     23.254790     23.254790     46.509580
     -4.619620     24.966270     24.966270     49.932541
     -4.609610     28.631211     28.631211     57.262422
     -4.599600     34.045624     34.045624     68.091249
     -4.589590     40.436651     40.436651     80.873302
     -4.579580     46.646694     46.646694     93.293387
     -4.569570     51.485590     51.485590    102.971179
     -4.559560     54.124519     54.124519    108.249037
     -4.549550     54.374158     54.374158    108.748315
     -4.539540     52.729250     52.729250    105.458499
     -4.529530     50.158475     50.158475    100.316951
     -4.519520     47.727113     47.727113     95.454227
     -4.509510     46.208430     46.208430     92.416860
     -4.499499     45.837344     45.837344     91.674689
     -4.489489     46.291154     46.291154     92.582309
     -4.479479     46.881808     46.881808     93.763617
     -4.469469     46.859091     46.859091     93.718182
     -4.459459     45.690997     45.690997     91.381994
     -4.449449     43.216727     43.216727     86.433454
     -4.439439     39.639479     39.639479     79.278958
     -4.429429     35.401713     35.401713     70.803426
     -4.419419     31.027040     31.027040     62.054080
     -4.409409     27.003064     27.003064     54.006128
     -4.399399     23.730988     23.730988     47.461976
     -4.389389     21.516083     21.516083     43.032165
     -4.379379     20.553648     20.553648     41.107296
     -4.369369     20.888726     20.888726     41.777452
     -4.359359     22.371802     22.371802     44.743603
     -4.349349     24.658885     24.658885     49.317771
     -4.339339     27.289176     27.289176     54.578352
     -4.329329     29.826744     29.826744     59.653487
     -4.319319     32.008146     32.008146     64.016293
     -4.309309     33.826026     33.826026     67.652053
     -4.299299     35.505120     35.505120     71.010239
     -4.289289     37.373584     37.373584     74.747169
     -4.279279     39.675396     39.675396     79.350792
     -4.269269     42.395011     42.395011     84.790022
     -4.259259     45.169560     45.169560     90.339120
     -4.249249     47.343191     47.343191     94.686382
     -4.239239     48.169337     48.169337     96.338674
     -4.229229     47.098546     47.098546     94.197091
     -4.219219     44.032869     44.032869     88.065738
     -4.209209     39.422768     39.422768     78.845536
     -4.199199     34.146599     34.146599     68.293199
     -4.189189     29.218143     29.218143     58.436285
     -4.179179     25.453761     25.453761     50.907521
     -4.169169     23.246137     23.246137     46.492274
     -4.159159     22.530157     22.530157     45.060314
     -4.149149     22.928964     22.928964     45.857928
     -4.139139     23.989365     23.989365     47.978731
     -4.129129     25.389390     25.389390     50.778781
     -4.119119     27.027680     27.027680     54.055359
     -4.109109     28.964400     28.964400     57.928799
     -4.099099     31.252360     31.252360     62.504721
     -4.089089     33.751966     33.751966     67.503932
     -4.079079     36.040961     36.040961     72.081921
     -4.069069     37.492108     37.492108     74.984216
     -4.059059     37.505805     37.505805     75.011611
     -4.049049     35.792061     35.792061     71.584121
     -4.039039     32.555589     32.555589     65.111178
     -4.029029     28.481710     28.481710     56.963419
     -4.019019     24.526273     24.526273     49.052546
     -4.009009     21.613922     21.613922     43.227844
     -3.998999     20.384128     20.384128     40.768255
     -3.988989     21.079762     21.079762     42.159525
     -3.978979     23.586573     23.586573     47.173147
     -3.968969     27.561326     27.561326     55.122652
     -3.958959     32.568461     32.568461     65.136922
     -3.948949     38.176181     38.176181     76.352362
     -3.938939     44.008589     44.008589     88.017178
     -3.928929     49.774351     49.774351     99.548702
     -3.918919     55.282558     55.282558    110.565116
     -3.908909     60.432497     60.432497    120.864995
     -3.898899     65.157117     65.157117    130.314233
     -3.888889     69.324437     69.324437    138.648874
     -3.878879     72.640857     72.640857    145.281714
     -3.868869     74.621917     74.621917    149.243833
     -3.858859     74.676735     74.676735    149.353470
     -3.848849     72.297579     72.297579    144.595158
     -3.838839     67.286084     67.286084    134.572167
     -3.828829     59.917430     59.917430    119.834860
     -3.818819     50.961742     50.961742    101.923484
     -3.808809     41.539943     41.539943     83.079886
     -3.798799     32.859915     32.859915     65.719829
     -3.788789     25.924451     25.924451     51.848902
     -3.778779     21.306404     21.306404     42.612808
     -3.768769     19.053263     19.053263     38.106525
     -3.758759     18.734669     18.734669     37.469337
     -3.748749     19.604600     19.604600     39.209201
     -3.738739     20.826477     20.826477     41.652954
     -3.728729     21.703310     21.703310     43.406620
     -3.718719     21.859876     21.859876     43.719753
     -3.708709     21.334937     21.334937     42.669874
     -3.698699     20.558060     20.558060     41.116120
     -3.688689     20.209060     20.209060     40.418121
     -3.678679     20.988600     20.988600     41.977201
     -3.668669     23.361164     23.361164     46.722329
     -3.658659     27.354120     27.354120     54.708241
     -3.648649     32.492330     32.492330     64.984661
     -3.638639     37.906407     37.906407     75.812814
     -3.628629     42.583515     42.583515     85.167030
     -3.618619     45.664939     45.664939     91.329878
     -3.608609     46.673481     46.673481     93.346963
     -3.598599     45.592471     45.592471     91.184942
     -3.588589     42.793346     42.793346     85.586692
     -3.578579     38.872132     38.872132     77.744265
     -3.568569     34.471530     34.471530     68.943060
     -3.558559     30.139152     30.139152     60.278305
     -3.548549     26.237727     26.237727     52.475455
     -3.538539     22.907849     22.907849     45.815697
     -3.528529     20.086344     20.086344     40.172687
     -3.518519     17.581446     17.581446     35.162891
     -3.508509     15.186880     15.186880     30.373759
     -3.498498     12.792955     12.792955     25.585911
     -3.488488     10.447617     10.447617     20.895234
     -3.478478      8.343566      8.343566     16.687132
     -3.468468      6.743754      6.743754     13.487509
     -3.458458      5.881973      5.881973     11.763945
     -3.448448      5.876297      5.876297     11.752593
     -3.438438      6.679527      6.679527     13.359054
     -3.428428      8.077963      8.077963     16.155926
     -3.418418      9.743203      9.743203     19.486406
     -3.408408     11.333157     11.333157     22.666314
     -3.398398     12.620195     12.620195     25.240389
     -3.388388     13.602008     13.602008     27.204016
     -3.378378     14.542428     14.542428     29.084856
     -3.368368     15.909239     15.909239     31.818478
     -3.358358     18.218835     18.218835     36.437669
     -3.348348     21.839788     21.839788     43.679576
     -3.338338     26.824834     26.824834     53.649667
     -3.328328     32.826614     32.826614     65.653228
     -3.318318     39.120894     39.120894     78.241789
     -3.308308     44.731764     44.731764     89.463529
     -3.298298     48.634831     48.634831     97.269662
     -3.288288     49.999634     49.999634     99.999269
     -3.278278     48.413809     48.413809     96.827618
     -3.268268     44.017319     44.017319     88.034639
     -3.258258     37.487167     37.487167     74.974334
     -3.248248     29.863126     29.863126     59.726253
     -3.238238     22.274218     22.274218     44.548435
     -3.228228     15.671150     15.671150     31.342300
     -3.218218     10.659653     10.659653     21.319306
     -3.208208      7.469955      7.469955     14.939911
     -3.198198      6.029811      6.029811     12.059623
     -3.188188      6.075150      6.075150     12.150299
     -3.178178      7.246576      7.246576     14.493151
     -3.168168      9.159544      9.159544     18.319089
     -3.158158     11.465031     11.465031     22.930061
     -3.148148     13.914068     13.914068     27.828137
     -3.138138     16.411000     16.411000     32.822000
     -3.128128     19.016470     19.016470     38.032941
     -3.118118     21.870597     21.870597     43.741193
     -3.108108     25.052003     25.052003     50.104005
     -3.098098     28.440352     28.440352     56.880704
     -3.088088     31.667281     31.667281     63.334563
     -3.078078     34.201802     34.201802     68.403604
     -3.068068     35.539826     35.539826     71.079652
     -3.058058     35.402038     35.402038     70.804077
     -3.048048     33.835143     33.835143     67.670285
     -3.038038     31.167305     31.167305     62.334610
     -3.028028     27.854087     27.854087     55.708174
     -3.018018     24.310449     24.310449     48.620899
     -3.008008     20.820666     20.820666     41.641333
     -2.997998     17.558609     17.558609     35.117218
     -2.987988     14.679906     14.679906     29.359812
     -2.977978     12.411139     12.411139     24.822278
     -2.967968     11.075076     11.075076     22.150153
     -2.957958     11.034909     11.034909     22.069818
     -2.947948     12.581786     12.581786     25.163572
     -2.937938     15.809808     15.809808     31.619617
     -2.927928     20.523144     20.523144     41.046289
     -2.917918     26.211330     26.211330     52.422660
     -2.907908     32.114579     32.114579     64.229159
     -2.897898     37.377242     37.377242     74.754483
     -2.887888     41.254184     41.254184     82.508369
     -2.877878     43.303980     43.303980     86.607961
     -2.867868     43.494090     43.494090     86.988181
     -2.857858     42.169903     42.169903     84.339805
     -2.847848     39.895276     39.895276     79.790552
     -2.837838     37.231435     37.231435     74.462871
     -2.827828     34.551493     34.551493     69.102986
     -2.817818     31.970236     31.970236     63.940472
     -2.807808     29.409728     29.409728     58.819455
     -2.797798     26.751659     26.751659     53.503318
     -2.787788     23.985431     23.985431     47.970862
     -2.777778     21.269855     21.269855     42.539711
     -2.767768     18.880453     18.880453     37.760906
     -2.757758     17.082050     17.082050     34.164100
     -2.747748     16.008487     16.008487     32.016973
     -2.737738     15.623042     15.623042     31.246084
     -2.727728     15.779521     15.779521     31.559043
     -2.717718     16.337579     16.337579     32.675158
     -2.707708     17.249496     17.249496     34.498992
     -2.697698     18.555187     18.555187     37.110374
     -2.687688     20.287602     20.287602     40.575205
     -2.677678     22.358662     22.358662     44.717325
     -2.667668     24.517210     24.517210     49.034421
     -2.657658     26.425604     26.425604     52.851208
     -2.647648     27.818357     27.818357     55.636715
     -2.637638     28.643526     28.643526     57.287052
     -2.627628     29.092594     29.092594     58.185188
     -2.617618     29.496120     29.496120     58.992241
     -2.607608     30.148934     30.148934     60.297867
     -2.597598     31.167781     31.167781     62.335561
     -2.587588     32.451272     32.451272     64.902544
     -2.577578     33.738088     33.738088     67.476176
     -2.567568     34.704394     34.704394     69.408787
     -2.557558     35.042771     35.042771     70.085541
     -2.547548     34.509197     34.509197     69.018394
     -2.537538     32.963881     32.963881     65.927761
     -2.527528     30.429301     30.429301     60.858601
     -2.517518     27.150853     27.150853     54.301707
     -2.507508     23.611823     23.611823     47.223646
     -2.497497     20.459882     20.459882     40.919763
     -2.487487     18.346837     18.346837     36.693675
     -2.477477     17.735528     17.735528     35.471057
     -2.467467     18.753254     18.753254     37.506508
     -2.457457     21.156295     21.156295     42.312589
     -2.447447     24.424635     24.424635     48.849269
     -2.437437     27.951274     27.951274     55.902549
     -2.427427     31.248855     31.248855     62.497710
     -2.417417     34.085461     34.085461     68.170922
     -2.407407     36.489439     36.489439     72.978878
     -2.397397     38.621796     38.621796     77.243591
     -2.387387     40.579603     40.579603     81.159205
     -2.377377     42.232991     42.232991     84.465981
     -2.367367     43.188930     43.188930     86.377860
     -2.357357     42.916200     42.916200     85.832400
     -2.347347     40.983359     40.983359     81.966717
     -2.337337     37.297935     37.297935     74.595870
     -2.327327     32.228366     32.228366     64.456731
     -2.317317     26.547650     26.547650     53.095300
     -2.307307     21.226444     21.226444     42.452889
     -2.297297     17.170529     17.170529     34.341059
     -2.287287     15.007330     15.007330     30.014661
     -2.277277     14.983388     14.983388     29.966776
     -2.267267     16.975203     16.975203     33.950406
     -2.257257     20.575537     20.575537     41.151075
     -2.247247     25.208188     25.208188     50.416376
     -2.237237     30.236049     30.236049     60.472099
     -2.227227     35.044141     35.044141     70.088282
     -2.217217     39.093053     39.093053     78.186106
     -2.207207     41.949016     41.949016     83.898033
     -2.197197     43.304905     43.304905     86.609810
     -2.187187     43.007633     43.007633     86.015266
     -2.177177     41.095929     41.095929     82.191859
     -2.167167     37.830427     37.830427     75.660855
     -2.157157     33.680273     33.680273     67.360545
     -2.147147     29.236939     29.236939     58.473878
     -2.137137     25.062841     25.062841     50.125682
     -2.127127     21.529849     21.529849     43.059698
     -2.117117     18.724965     18.724965     37.449930
     -2.107107     16.474086     16.474086     32.948173
     -2.097097     14.471984     14.471984     28.943968
     -2.087087     12.448614     12.448614     24.897227
     -2.077077     10.287487     10.287487     20.574973
     -2.067067      8.047889      8.047889     16.095777
     -2.057057      5.901119      5.901119     11.802239
     -2.047047      4.032558      4.032558      8.065116
     -2.037037      2.565217      2.565217      5.130433
     -2.027027      1.533974      1.533974      3.067948
     -2.017017      0.906755      0.906755      1.813509
     -2.007007      0.629422      0.629422      1.258845
     -1.996997      0.669640      0.669640      1.339280
     -1.986987      1.043562      1.043562      2.087123
     -1.976977      1.818464      1.818464      3.636927
     -1.966967      3.090538      3.090538      6.181076
     -1.956957      4.942377      4.942377      9.884753
     -1.946947      7.391835      7.391835     14.783670
     -1.936937     10.351237     10.351237     20.702474
     -1.926927     13.616968     13.616968     27.233936
     -1.916917     16.899421     16.899421     33.798842
     -1.906907     19.884667     19.884667     39.769335
     -1.896897     22.302808     22.302808     44.605616
     -1.886887     23.975383     23.975383     47.950766
     -1.876877     24.828109     24.828109     49.656219
     -1.866867     24.876412     24.876412     49.752824
     -1.856857     24.204679     24.204679     48.409359
     -1.846847     22.956193     22.956193     45.912386
     -1.836837     21.332201     21.332201     42.664403
     -1.826827     19.580472     19.580472     39.160943
     -1.816817     17.952588     17.952588     35.905176
     -1.806807     16.630724     16.630724     33.261448
     -1.796797     15.655248     15.655248     31.310496
     -1.786787     14.899363     14.899363     29.798726
     -1.776777     14.118965     14.118965     28.237931
     -1.766767     13.062734     13.062734     26.125468
     -1.756757     11.588632     11.588632     23.177265
     -1.746747      9.727397      9.727397     19.454793
     -1.736737      7.665753      7.665753     15.331506
     -1.726727      5.668746      5.668746     11.337493
     -1.716717      3.989764      3.989764      7.979528
     -1.706707      2.812347      2.812347      5.624694
     -1.696697      2.238388      2.238388      4.476776
     -1.686687      2.305870      2.305870      4.611741
     -1.676677      3.005543      3.005543      6.011086
     -1.666667      4.275174      4.275174      8.550347
     -1.656657      5.973789      5.973789     11.947579
     -1.646647      7.860971      7.860971     15.721941
     -1.636637      9.613105      9.613105     19.226211
     -1.626627     10.892986     10.892986     21.785972
