# EIG2DOS: Utility for SIESTA to obtain the electronic density of states
#  E. Artacho, Apr 1999, A. Garcia, Apr 2012
#  Nick R. Papior, Feb 2017
# ------------------------------------------
# Eigenvalues calculated from a non-polarized calculation
# Eigenvalues read from siesta.EIG
# Kpoint weights read from siesta.KP
# Using smearing parameter:   0.0500
# Using 1000 points in the energy range
# Selected bands: 1 to: 2981
# Emin, Emax in file for selected band(s):    -27.0605144    218.3163640
# Nbands, Nspin, Nk   =   2981     1     1
# E_F                 =    -4.2960 eV --> (shifted to ZERO)
# Broadening          =     0.0500 eV
#
#        E            N(up)  (=)   N(down)         Ntot
     -5.000000     45.478685     45.478685     90.957371
     -4.989990     47.114830     47.114830     94.229660
     -4.979980     47.608093     47.608093     95.216186
     -4.969970     47.042971     47.042971     94.085942
     -4.959960     45.542352     45.542352     91.084705
     -4.949950     43.255551     43.255551     86.511102
     -4.939940     40.378104     40.378104     80.756208
     -4.929930     37.188413     37.188413     74.376825
     -4.919920     34.080723     34.080723     68.161445
     -4.909910     31.573231     31.573231     63.146462
     -4.899900     30.268244     30.268244     60.536488
     -4.889890     30.742237     30.742237     61.484475
     -4.879880     33.362532     33.362532     66.725064
     -4.869870     38.073051     38.073051     76.146103
     -4.859860     44.245512     44.245512     88.491024
     -4.849850     50.709205     50.709205    101.418409
     -4.839840     56.015028     56.015028    112.030057
     -4.829830     58.869860     58.869860    117.739720
     -4.819820     58.565123     58.565123    117.130246
     -4.809810     55.200569     55.200569    110.401138
     -4.799800     49.599686     49.599686     99.199372
     -4.789790     42.971752     42.971752     85.943504
     -4.779780     36.495411     36.495411     72.990823
     -4.769770     31.007968     31.007968     62.015935
     -4.759760     26.893304     26.893304     53.786608
     -4.749750     24.144666     24.144666     48.289333
     -4.739740     22.511179     22.511179     45.022358
     -4.729730     21.640557     21.640557     43.281114
     -4.719720     21.174563     21.174563     42.349126
     -4.709710     20.796288     20.796288     41.592577
     -4.699700     20.249480     20.249480     40.498960
     -4.689690     19.353116     19.353116     38.706232
     -4.679680     18.027347     18.027347     36.054694
     -4.669670     16.333022     16.333022     32.666044
     -4.659660     14.509767     14.509767     29.019534
     -4.649650     12.985698     12.985698     25.971396
     -4.639640     12.333528     12.333528     24.667055
     -4.629630     13.162732     13.162732     26.325465
     -4.619620     15.958516     15.958516     31.917033
     -4.609610     20.900066     20.900066     41.800132
     -4.599600     27.711452     27.711452     55.422904
     -4.589590     35.612194     35.612194     71.224388
     -4.579580     43.424915     43.424915     86.849831
     -4.569570     49.850262     49.850262     99.700523
     -4.559560     53.842534     53.842534    107.685068
     -4.549550     54.951476     54.951476    109.902951
     -4.539540     53.483472     53.483472    106.966945
     -4.529530     50.399504     50.399504    100.799007
     -4.519520     46.980761     46.980761     93.961523
     -4.509510     44.396308     44.396308     88.792616
     -4.499499     43.345506     43.345506     86.691013
     -4.489489     43.904241     43.904241     87.808482
     -4.479479     45.605768     45.605768     91.211536
     -4.469469     47.686950     47.686950     95.373900
     -4.459459     49.375655     49.375655     98.751311
     -4.449449     50.104346     50.104346    100.208692
     -4.439439     49.594187     49.594187     99.188375
     -4.429429     47.826994     47.826994     95.653989
     -4.419419     44.969694     44.969694     89.939388
     -4.409409     41.315140     41.315140     82.630280
     -4.399399     37.260653     37.260653     74.521305
     -4.389389     33.294989     33.294989     66.589978
     -4.379379     29.945213     29.945213     59.890427
     -4.369369     27.663816     27.663816     55.327632
     -4.359359     26.692013     26.692013     53.384025
     -4.349349     26.972701     26.972701     53.945403
     -4.339339     28.173221     28.173221     56.346442
     -4.329329     29.819995     29.819995     59.639990
     -4.319319     31.484281     31.484281     62.968563
     -4.309309     32.932541     32.932541     65.865083
     -4.299299     34.179017     34.179017     68.358034
     -4.289289     35.429802     35.429802     70.859604
     -4.279279     36.952150     36.952150     73.904301
     -4.269269     38.920961     38.920961     77.841922
     -4.259259     41.292268     41.292268     82.584536
     -4.249249     43.746611     43.746611     87.493222
     -4.239239     45.735776     45.735776     91.471552
     -4.229229     46.641129     46.641129     93.282258
     -4.219219     46.002722     46.002722     92.005444
     -4.209209     43.725935     43.725935     87.451870
     -4.199199     40.158780     40.158780     80.317561
     -4.189189     35.985269     35.985269     71.970539
     -4.179179     31.977069     31.977069     63.954139
     -4.169169     28.725464     28.725464     57.450927
     -4.159159     26.483741     26.483741     52.967482
     -4.149149     25.182784     25.182784     50.365567
     -4.139139     24.586969     24.586969     49.173938
     -4.129129     24.491278     24.491278     48.982556
     -4.119119     24.852306     24.852306     49.704611
     -4.109109     25.787834     25.787834     51.575667
     -4.099099     27.446653     27.446653     54.893305
     -4.089089     29.816777     29.816777     59.633553
     -4.079079     32.581054     32.581054     65.162108
     -4.069069     35.120061     35.120061     70.240122
     -4.059059     36.693993     36.693993     73.387986
     -4.049049     36.734422     36.734422     73.468843
     -4.039039     35.102143     35.102143     70.204287
     -4.029029     32.173472     32.173472     64.346945
     -4.019019     28.708851     28.708851     57.417703
     -4.009009     25.578284     25.578284     51.156569
     -3.998999     23.488762     23.488762     46.977524
     -3.988989     22.836481     22.836481     45.672962
     -3.978979     23.714869     23.714869     47.429737
     -3.968969     26.017207     26.017207     52.034413
     -3.958959     29.540602     29.540602     59.081203
     -3.948949     34.035777     34.035777     68.071554
     -3.938939     39.212566     39.212566     78.425132
     -3.928929     44.748421     44.748421     89.496842
     -3.918919     50.331401     50.331401    100.662802
     -3.908909     55.720939     55.720939    111.441879
     -3.898899     60.774614     60.774614    121.549228
     -3.888889     65.399303     65.399303    130.798605
     -3.878879     69.435963     69.435963    138.871926
     -3.868869     72.543802     72.543802    145.087604
     -3.858859     74.171565     74.171565    148.343130
     -3.848849     73.671100     73.671100    147.342201
     -3.838839     70.533737     70.533737    141.067474
     -3.828829     64.653362     64.653362    129.306724
     -3.818819     56.487879     56.487879    112.975758
     -3.808809     47.027222     47.027222     94.054444
     -3.798799     37.564447     37.564447     75.128895
     -3.788789     29.356864     29.356864     58.713727
     -3.778779     23.306751     23.306751     46.613502
     -3.768769     19.769407     19.769407     39.538814
     -3.758759     18.532945     18.532945     37.065889
     -3.748749     18.949630     18.949630     37.899261
     -3.738739     20.160352     20.160352     40.320704
     -3.728729     21.345058     21.345058     42.690116
     -3.718719     21.940270     21.940270     43.880541
     -3.708709     21.777824     21.777824     43.555649
     -3.698699     21.113478     21.113478     42.226955
     -3.688689     20.533415     20.533415     41.066830
     -3.678679     20.754388     20.754388     41.508776
     -3.668669     22.367063     22.367063     44.734126
     -3.658659     25.601331     25.601331     51.202661
     -3.648649     30.199901     30.199901     60.399801
     -3.638639     35.457941     35.457941     70.915883
     -3.628629     40.423684     40.423684     80.847369
     -3.618619     44.183864     44.183864     88.367727
     -3.608609     46.118861     46.118861     92.237722
     -3.598599     46.032448     46.032448     92.064896
     -3.588589     44.129020     44.129020     88.258041
     -3.578579     40.882530     40.882530     81.765061
     -3.568569     36.872001     36.872001     73.744002
     -3.558559     32.640674     32.640674     65.281348
     -3.548549     28.599223     28.599223     57.198447
     -3.538539     24.972902     24.972902     49.945803
     -3.528529     21.794975     21.794975     43.589951
     -3.518519     18.953402     18.953402     37.906805
     -3.508509     16.284326     16.284326     32.568653
     -3.498498     13.679770     13.679770     27.359541
     -3.488488     11.162348     11.162348     22.324696
     -3.478478      8.893742      8.893742     17.787484
     -3.468468      7.117690      7.117690     14.235379
     -3.458458      6.067656      6.067656     12.135311
     -3.448448      5.877292      5.877292     11.754584
     -3.438438      6.521612      6.521612     13.043223
     -3.428428      7.803439      7.803439     15.606877
     -3.418418      9.391516      9.391516     18.783032
     -3.408408     10.908551     10.908551     21.817103
     -3.398398     12.051352     12.051352     24.102705
     -3.388388     12.704220     12.704220     25.408441
     -3.378378     12.997150     12.997150     25.994301
     -3.368368     13.276694     13.276694     26.553389
     -3.358358     13.995763     13.995763     27.991526
     -3.348348     15.565874     15.565874     31.131748
     -3.338338     18.226398     18.226398     36.452796
     -3.328328     21.965230     21.965230     43.930460
     -3.318318     26.494285     26.494285     52.988569
     -3.308308     31.268937     31.268937     62.537875
     -3.298298     35.551335     35.551335     71.102670
     -3.288288     38.532472     38.532472     77.064945
     -3.278278     39.516649     39.516649     79.033298
     -3.268268     38.128372     38.128372     76.256744
     -3.258258     34.458290     34.458290     68.916580
     -3.248248     29.066504     29.066504     58.133008
     -3.238238     22.822677     22.822677     45.645353
     -3.228228     16.646767     16.646767     33.293533
     -3.218218     11.263598     11.263598     22.527196
     -3.208208      7.067018      7.067018     14.134035
     -3.198198      4.123164      4.123164      8.246327
     -3.188188      2.275508      2.275508      4.551016
     -3.178178      1.284534      1.284534      2.569068
     -3.168168      0.946285      0.946285      1.892569
     -3.158158      1.164482      1.164482      2.328963
     -3.148148      1.975505      1.975505      3.951010
     -3.138138      3.533589      3.533589      7.067178
     -3.128128      6.060365      6.060365     12.120731
     -3.118118      9.760618      9.760618     19.521237
     -3.108108     14.713714     14.713714     29.427428
     -3.098098     20.767040     20.767040     41.534081
     -3.088088     27.473639     27.473639     54.947279
     -3.078078     34.116551     34.116551     68.233102
     -3.068068     39.837976     39.837976     79.675952
     -3.058058     43.847060     43.847060     87.694121
     -3.048048     45.636738     45.636738     91.273476
     -3.038038     45.124623     45.124623     90.249245
     -3.028028     42.660460     42.660460     85.320920
     -3.018018     38.901855     38.901855     77.803709
     -3.008008     34.617460     34.617460     69.234920
     -2.997998     30.499519     30.499519     60.999038
     -2.987988     27.047529     27.047529     54.095058
     -2.977978     24.541948     24.541948     49.083896
     -2.967968     23.089284     23.089284     46.178569
     -2.957958     22.700880     22.700880     45.401759
     -2.947948     23.363417     23.363417     46.726835
     -2.937938     25.064538     25.064538     50.129075
     -2.927928     27.755496     27.755496     55.510991
     -2.917918     31.267615     31.267615     62.535231
     -2.907908     35.236830     35.236830     70.473660
     -2.897898     39.102929     39.102929     78.205858
     -2.887888     42.218278     42.218278     84.436555
     -2.877878     44.036868     44.036868     88.073736
     -2.867868     44.298462     44.298462     88.596925
     -2.857858     43.113254     43.113254     86.226509
     -2.847848     40.899151     40.899151     81.798302
     -2.837838     38.199508     38.199508     76.399016
     -2.827828     35.469922     35.469922     70.939844
     -2.817818     32.935122     32.935122     65.870244
     -2.807808     30.576464     30.576464     61.152927
     -2.797798     28.240780     28.240780     56.481560
     -2.787788     25.800143     25.800143     51.600285
     -2.777778     23.271050     23.271050     46.542099
     -2.767768     20.830520     20.830520     41.661039
     -2.757758     18.728716     18.728716     37.457432
     -2.747748     17.158124     17.158124     34.316249
     -2.737738     16.163202     16.163202     32.326405
     -2.727728     15.647135     15.647135     31.294271
     -2.717718     15.469315     15.469315     30.938630
     -2.707708     15.566976     15.566976     31.133953
     -2.697698     16.016084     16.016084     32.032169
     -2.687688     16.984131     16.984131     33.968262
     -2.677678     18.598927     18.598927     37.197853
     -2.667668     20.816894     20.816894     41.633787
     -2.657658     23.381086     23.381086     46.762173
     -2.647648     25.905526     25.905526     51.811052
     -2.637638     28.041259     28.041259     56.082519
     -2.627628     29.624940     29.624940     59.249881
     -2.617618     30.721430     30.721430     61.442860
     -2.607608     31.541977     31.541977     63.083953
     -2.597598     32.299162     32.299162     64.598323
     -2.587588     33.091504     33.091504     66.183008
     -2.577578     33.874445     33.874445     67.748890
     -2.567568     34.504873     34.504873     69.009747
     -2.557558     34.802561     34.802561     69.605122
     -2.547548     34.585883     34.585883     69.171767
     -2.537538     33.688654     33.688654     67.377309
     -2.527528     31.996488     31.996488     63.992976
     -2.517518     29.521992     29.521992     59.043983
     -2.507508     26.486487     26.486487     52.972975
     -2.497497     23.342136     23.342136     46.684272
     -2.487487     20.687327     20.687327     41.374655
     -2.477477     19.089726     19.089726     38.179451
     -2.467467     18.891584     18.891584     37.783167
     -2.457457     20.090440     20.090440     40.180880
     -2.447447     22.355038     22.355038     44.710076
     -2.437437     25.171709     25.171709     50.343419
     -2.427427     28.054214     28.054214     56.108429
     -2.417417     30.719358     30.719358     61.438717
     -2.407407     33.145878     33.145878     66.291756
     -2.397397     35.489250     35.489250     70.978501
     -2.387387     37.895569     37.895569     75.791139
     -2.377377     40.309880     40.309880     80.619760
     -2.367367     42.382028     42.382028     84.764056
     -2.357357     43.530388     43.530388     87.060777
     -2.347347     43.149001     43.149001     86.298001
     -2.337337     40.871579     40.871579     81.743158
     -2.327327     36.773054     36.773054     73.546107
     -2.317317     31.415032     31.415032     62.830065
     -2.307307     25.714072     25.714072     51.428143
     -2.297297     20.691483     20.691483     41.382967
     -2.287287     17.207329     17.207329     34.414658
     -2.277277     15.770994     15.770994     31.541989
     -2.267267     16.472803     16.472803     32.945605
     -2.257257     19.029282     19.029282     38.058565
     -2.247247     22.903104     22.903104     45.806208
     -2.237237     27.449776     27.449776     54.899552
     -2.227227     32.047552     32.047552     64.095104
     -2.217217     36.178841     36.178841     72.357681
     -2.207207     39.452019     39.452019     78.904038
     -2.197197     41.580536     41.580536     83.161071
     -2.187187     42.358831     42.358831     84.717661
     -2.177177     41.673590     41.673590     83.347180
     -2.167167     39.557426     39.557426     79.114853
     -2.157157     36.247647     36.247647     72.495294
     -2.147147     32.189294     32.189294     64.378588
     -2.137137     27.943769     27.943769     55.887537
     -2.127127     24.023700     24.023700     48.047400
     -2.117117     20.730771     20.730771     41.461542
     -2.107107     18.082963     18.082963     36.165927
     -2.097097     15.870022     15.870022     31.740044
     -2.087087     13.802319     13.802319     27.604639
     -2.077077     11.668694     11.668694     23.337389
     -2.067067      9.423973      9.423973     18.847947
     -2.057057      7.177395      7.177395     14.354790
     -2.047047      5.110851      5.110851     10.221702
     -2.037037      3.384636      3.384636      6.769271
     -2.027027      2.078348      2.078348      4.156696
     -2.017017      1.182395      1.182395      2.364790
     -2.007007      0.626428      0.626428      1.252856
     -1.996997      0.319937      0.319937      0.639874
     -1.986987      0.186019      0.186019      0.372037
     -1.976977      0.181651      0.181651      0.363303
     -1.966967      0.306754      0.306754      0.613508
     -1.956957      0.606151      0.606151      1.212301
     -1.946947      1.165010      1.165010      2.330019
     -1.936937      2.093982      2.093982      4.187963
     -1.926927      3.499763      3.499763      6.999525
     -1.916917      5.442451      5.442451     10.884901
     -1.906907      7.890972      7.890972     15.781944
     -1.896897     10.695648     10.695648     21.391297
     -1.886887     13.595524     13.595524     27.191048
     -1.876877     16.265471     16.265471     32.530941
     -1.866867     18.390776     18.390776     36.781552
     -1.856857     19.745280     19.745280     39.490560
     -1.846847     20.248678     20.248678     40.497357
     -1.836837     19.986033     19.986033     39.972066
     -1.826827     19.181440     19.181440     38.362879
     -1.816817     18.127392     18.127392     36.254784
     -1.806807     17.085778     17.085778     34.171556
     -1.796797     16.194597     16.194597     32.389194
     -1.786787     15.423800     15.423800     30.847599
     -1.776777     14.609098     14.609098     29.218197
     -1.766767     13.554601     13.554601     27.109202
     -1.756757     12.155600     12.155600     24.311201
     -1.746747     10.479790     10.479790     20.959579
     -1.736737      8.768614      8.768614     17.537227
     -1.726727      7.363465      7.363465     14.726931
     -1.716717      6.595155      6.595155     13.190310
     -1.706707      6.682331      6.682331     13.364663
     -1.696697      7.670039      7.670039     15.340077
     -1.686687      9.419361      9.419361     18.838722
     -1.676677     11.643969     11.643969     23.287937
     -1.666667     13.979173     13.979173     27.958345
     -1.656657     16.061185     16.061185     32.122371
     -1.646647     17.591930     17.591930     35.183859
     -1.636637     18.373914     18.373914     36.747829
     -1.626627     18.318302     18.318302     36.636604
