# EIG2DOS: Utility for SIESTA to obtain the electronic density of states
#  E. Artacho, Apr 1999, A. Garcia, Apr 2012
#  Nick R. Papior, Feb 2017
# ------------------------------------------
# Eigenvalues calculated from a non-polarized calculation
# Eigenvalues read from siesta.EIG
# Kpoint weights read from siesta.KP
# Using smearing parameter:   0.0500
# Using 1000 points in the energy range
# Selected bands: 1 to: 2981
# Emin, Emax in file for selected band(s):    -27.4117345    218.4029490
# Nbands, Nspin, Nk   =   2981     1     1
# E_F                 =    -4.1961 eV --> (shifted to ZERO)
# Broadening          =     0.0500 eV
#
#        E            N(up)  (=)   N(down)         Ntot
     -5.000000     33.806134     33.806134     67.612268
     -4.989990     38.776736     38.776736     77.553472
     -4.979980     43.113785     43.113785     86.227570
     -4.969970     46.038931     46.038931     92.077861
     -4.959960     47.003449     47.003449     94.006898
     -4.949950     45.873325     45.873325     91.746649
     -4.939940     42.977471     42.977471     85.954942
     -4.929930     39.020515     39.020515     78.041030
     -4.919920     34.918480     34.918480     69.836959
     -4.909910     31.623698     31.623698     63.247395
     -4.899900     29.971073     29.971073     59.942147
     -4.889890     30.540562     30.540562     61.081124
     -4.879880     33.527691     33.527691     67.055381
     -4.869870     38.646698     38.646698     77.293396
     -4.859860     45.123623     45.123623     90.247245
     -4.849850     51.828285     51.828285    103.656569
     -4.839840     57.536377     57.536377    115.072754
     -4.829830     61.240632     61.240632    122.481265
     -4.819820     62.394260     62.394260    124.788520
     -4.809810     60.997396     60.997396    121.994793
     -4.799800     57.511119     57.511119    115.022237
     -4.789790     52.657566     52.657566    105.315131
     -4.779780     47.198400     47.198400     94.396800
     -4.769770     41.768094     41.768094     83.536187
     -4.759760     36.794549     36.794549     73.589098
     -4.749750     32.497590     32.497590     64.995180
     -4.739740     28.933619     28.933619     57.867239
     -4.729730     26.052367     26.052367     52.104734
     -4.719720     23.741556     23.741556     47.483112
     -4.709710     21.851557     21.851557     43.703113
     -4.699700     20.210216     20.210216     40.420432
     -4.689690     18.649558     18.649558     37.299116
     -4.679680     17.060760     17.060760     34.121521
     -4.669670     15.470588     15.470588     30.941176
     -4.659660     14.105283     14.105283     28.210565
     -4.649650     13.396854     13.396854     26.793709
     -4.639640     13.901734     13.901734     27.803468
     -4.629630     16.135938     16.135938     32.271875
     -4.619620     20.368753     20.368753     40.737505
     -4.609610     26.444921     26.444921     52.889843
     -4.599600     33.713485     33.713485     67.426969
     -4.589590     41.120251     41.120251     82.240501
     -4.579580     47.466192     47.466192     94.932384
     -4.569570     51.759939     51.759939    103.519878
     -4.559560     53.534554     53.534554    107.069109
     -4.549550     52.995556     52.995556    105.991113
     -4.539540     50.930474     50.930474    101.860947
     -4.529530     48.411792     48.411792     96.823583
     -4.519520     46.412933     46.412933     92.825867
     -4.509510     45.488327     45.488327     90.976654
     -4.499499     45.633240     45.633240     91.266480
     -4.489489     46.358766     46.358766     92.717532
     -4.479479     46.930324     46.930324     93.860648
     -4.469469     46.660480     46.660480     93.320960
     -4.459459     45.139666     45.139666     90.279331
     -4.449449     42.330153     42.330153     84.660306
     -4.439439     38.517151     38.517151     77.034302
     -4.429429     34.172288     34.172288     68.344575
     -4.419419     29.809595     29.809595     59.619189
     -4.409409     25.892859     25.892859     51.785718
     -4.399399     22.803279     22.803279     45.606558
     -4.389389     20.832933     20.832933     41.665867
     -4.379379     20.162553     20.162553     40.325106
     -4.369369     20.813718     20.813718     41.627436
     -4.359359     22.607731     22.607731     45.215462
     -4.349349     25.179566     25.179566     50.359131
     -4.339339     28.069874     28.069874     56.139749
     -4.329329     30.868639     30.868639     61.737278
     -4.319319     33.346374     33.346374     66.692748
     -4.309309     35.508573     35.508573     71.017146
     -4.299299     37.544612     37.544612     75.089225
     -4.289289     39.690416     39.690416     79.380833
     -4.279279     42.060394     42.060394     84.120787
     -4.269269     44.517472     44.517472     89.034944
     -4.259259     46.641054     46.641054     93.282108
     -4.249249     47.823588     47.823588     95.647175
     -4.239239     47.478997     47.478997     94.957994
     -4.229229     45.291407     45.291407     90.582813
     -4.219219     41.397003     41.397003     82.794007
     -4.209209     36.404716     36.404716     72.809432
     -4.199199     31.228828     31.228828     62.457657
     -4.189189     26.797517     26.797517     53.595033
     -4.179179     23.763652     23.763652     47.527304
     -4.169169     22.341243     22.341243     44.682486
     -4.159159     22.326273     22.326273     44.652546
     -4.149149     23.272907     23.272907     46.545815
     -4.139139     24.729992     24.729992     49.459983
     -4.129129     26.424680     26.424680     52.849360
     -4.119119     28.311236     28.311236     56.622472
     -4.109109     30.468348     30.468348     60.936696
     -4.099099     32.903642     32.903642     65.807284
     -4.089089     35.378646     35.378646     70.757292
     -4.079079     37.369575     37.369575     74.739149
     -4.069069     38.215245     38.215245     76.430491
     -4.059059     37.397934     37.397934     74.795869
     -4.049049     34.816612     34.816612     69.633225
     -4.039039     30.904007     30.904007     61.808014
     -4.029029     26.520531     26.520531     53.041062
     -4.019019     22.678659     22.678659     45.357318
     -4.009009     20.234104     20.234104     40.468209
     -3.998999     19.678509     19.678509     39.357019
     -3.988989     21.095156     21.095156     42.190313
     -3.978979     24.249708     24.249708     48.499416
     -3.968969     28.736356     28.736356     57.472711
     -3.958959     34.105470     34.105470     68.210940
     -3.948949     39.941614     39.941614     79.883229
     -3.938939     45.901576     45.901576     91.803151
     -3.928929     51.732757     51.732757    103.465515
     -3.918919     57.274768     57.274768    114.549536
     -3.908909     62.428223     62.428223    124.856445
     -3.898899     67.081049     67.081049    134.162097
     -3.888889     71.014629     71.014629    142.029258
     -3.878879     73.843498     73.843498    147.686996
     -3.868869     75.042748     75.042748    150.085496
     -3.858859     74.079274     74.079274    148.158548
     -3.848849     70.607748     70.607748    141.215495
     -3.838839     64.652835     64.652835    129.305670
     -3.828829     56.697537     56.697537    113.395074
     -3.818819     47.632884     47.632884     95.265769
     -3.808809     38.577750     38.577750     77.155500
     -3.798799     30.624892     30.624892     61.249783
     -3.788789     24.592488     24.592488     49.184976
     -3.778779     20.853968     20.853968     41.707935
     -3.768769     19.289680     19.289680     38.579360
     -3.758759     19.365592     19.365592     38.731184
     -3.748749     20.310223     20.310223     40.620447
     -3.738739     21.339491     21.339491     42.678982
     -3.728729     21.871998     21.871998     43.743996
     -3.718719     21.682363     21.682363     43.364725
     -3.708709     20.954282     20.954282     41.908564
     -3.698699     20.215992     20.215992     40.431985
     -3.688689     20.167704     20.167704     40.335408
     -3.678679     21.441454     21.441454     42.882908
     -3.668669     24.361976     24.361976     48.723953
     -3.658659     28.790038     28.790038     57.580076
     -3.648649     34.113346     34.113346     68.226693
     -3.638639     39.400740     39.400740     78.801481
     -3.628629     43.668865     43.668865     87.337731
     -3.618619     46.160288     46.160288     92.320576
     -3.608609     46.529168     46.529168     93.058336
     -3.598599     44.879364     44.879364     89.758729
     -3.588589     41.670135     41.670135     83.340270
     -3.578579     37.553013     37.553013     75.106026
     -3.568569     33.206945     33.206945     66.413890
     -3.558559     29.209991     29.209991     58.419981
     -3.548549     25.956422     25.956422     51.912844
     -3.538539     23.617541     23.617541     47.235082
     -3.528529     22.146983     22.146983     44.293965
     -3.518519     21.329572     21.329572     42.659143
     -3.508509     20.861350     20.861350     41.722701
     -3.498498     20.437819     20.437819     40.875637
     -3.488488     19.828686     19.828686     39.657371
     -3.478478     18.927366     18.927366     37.854733
     -3.468468     17.769710     17.769710     35.539420
     -3.458458     16.515012     16.515012     33.030023
     -3.448448     15.384037     15.384037     30.768074
     -3.438438     14.565389     14.565389     29.130778
     -3.428428     14.127540     14.127540     28.255081
     -3.418418     13.986414     13.986414     27.972829
     -3.408408     13.958303     13.958303     27.916605
     -3.398398     13.880826     13.880826     27.761652
     -3.388388     13.740814     13.740814     27.481628
     -3.378378     13.739072     13.739072     27.478143
     -3.368368     14.255286     14.255286     28.510571
     -3.358358     15.728643     15.728643     31.457286
     -3.348348     18.506070     18.506070     37.012140
     -3.338338     22.711105     22.711105     45.422209
     -3.328328     28.162331     28.162331     56.324662
     -3.318318     34.348436     34.348436     68.696872
     -3.308308     40.465190     40.465190     80.930380
     -3.298298     45.528572     45.528572     91.057144
     -3.288288     48.570841     48.570841     97.141682
     -3.278278     48.888119     48.888119     97.776238
     -3.268268     46.259063     46.259063     92.518126
     -3.258258     41.037146     41.037146     82.074293
     -3.248248     34.061004     34.061004     68.122007
     -3.238238     26.410746     26.410746     52.821492
     -3.228228     19.111095     19.111095     38.222190
     -3.218218     12.898916     12.898916     25.797832
     -3.208208      8.128233      8.128233     16.256466
     -3.198198      4.814531      4.814531      9.629062
     -3.188188      2.765733      2.765733      5.531465
     -3.178178      1.731971      1.731971      3.463941
     -3.168168      1.523300      1.523300      3.046600
     -3.158158      2.071764      2.071764      4.143528
     -3.148148      3.433997      3.433997      6.867995
     -3.138138      5.739448      5.739448     11.478897
     -3.128128      9.095346      9.095346     18.190692
     -3.118118     13.471434     13.471434     26.942868
     -3.108108     18.604374     18.604374     37.208748
     -3.098098     23.970960     23.970960     47.941921
     -3.088088     28.864996     28.864996     57.729992
     -3.078078     32.570404     32.570404     65.140808
     -3.068068     34.570034     34.570034     69.140068
     -3.058058     34.698566     34.698566     69.397131
     -3.048048     33.165835     33.165835     66.331670
     -3.038038     30.441159     30.441159     60.882317
     -3.028028     27.063378     27.063378     54.126755
     -3.018018     23.477634     23.477634     46.955269
     -3.008008     19.974528     19.974528     39.949056
     -2.997998     16.739176     16.739176     33.478353
     -2.987988     13.953857     13.953857     27.907715
     -2.977978     11.877295     11.877295     23.754590
     -2.967968     10.850180     10.850180     21.700359
     -2.957958     11.223209     11.223209     22.446418
     -2.947948     13.239769     13.239769     26.479539
     -2.937938     16.918193     16.918193     33.836385
     -2.927928     21.975204     21.975204     43.950409
     -2.917918     27.822589     27.822589     55.645178
     -2.907908     33.654252     33.654252     67.308505
     -2.897898     38.615870     38.615870     77.231739
     -2.887888     42.015633     42.015633     84.031266
     -2.877878     43.506172     43.506172     87.012344
     -2.867868     43.164390     43.164390     86.328780
     -2.857858     41.428745     41.428745     82.857490
     -2.847848     38.913325     38.913325     77.826650
     -2.837838     36.176596     36.176596     72.353192
     -2.827828     33.546889     33.546889     67.093779
     -2.817818     31.079170     31.079170     62.158341
     -2.807808     28.649974     28.649974     57.299947
     -2.797798     26.126119     26.126119     52.252239
     -2.787788     23.508300     23.508300     47.016599
     -2.777778     20.972377     20.972377     41.944755
     -2.767768     18.795579     18.795579     37.591159
     -2.757758     17.222984     17.222984     34.445968
     -2.747748     16.361163     16.361163     32.722327
     -2.737738     16.162184     16.162184     32.324368
     -2.727728     16.497931     16.497931     32.995863
     -2.717718     17.263070     17.263070     34.526139
     -2.707708     18.426832     18.426832     36.853664
     -2.697698     19.993651     19.993651     39.987302
     -2.687688     21.904403     21.904403     43.808805
     -2.677678     23.961930     23.961930     47.923861
     -2.667668     25.855193     25.855193     51.710386
     -2.657658     27.287591     27.287591     54.575183
     -2.647648     28.134848     28.134848     56.269696
     -2.637638     28.526652     28.526652     57.053303
     -2.627628     28.790553     28.790553     57.581107
     -2.617618     29.285943     29.285943     58.571887
     -2.607608     30.225281     30.225281     60.450562
     -2.597598     31.580095     31.580095     63.160189
     -2.587588     33.105673     33.105673     66.211345
     -2.577578     34.443660     34.443660     68.887321
     -2.567568     35.231398     35.231398     70.462795
     -2.557558     35.174187     35.174187     70.348374
     -2.547548     34.086637     34.086637     68.173273
     -2.537538     31.933348     31.933348     63.866696
     -2.527528     28.879337     28.879337     57.758674
     -2.517518     25.321425     25.321425     50.642851
     -2.507508     21.854528     21.854528     43.709057
     -2.497497     19.150826     19.150826     38.301653
     -2.487487     17.779005     17.779005     35.558011
     -2.477477     18.030646     18.030646     36.061291
     -2.467467     19.826821     19.826821     39.653641
     -2.457457     22.748444     22.748444     45.496888
     -2.447447     26.184335     26.184335     52.368670
     -2.437437     29.542204     29.542204     59.084408
     -2.427427     32.438731     32.438731     64.877461
     -2.417417     34.788713     34.788713     69.577425
     -2.407407     36.752318     36.752318     73.504636
     -2.397397     38.561339     38.561339     77.122678
     -2.387387     40.304842     40.304842     80.609683
     -2.377377     41.782967     41.782967     83.565933
     -2.367367     42.515154     42.515154     85.030309
     -2.357357     41.918102     41.918102     83.836204
     -2.347347     39.579735     39.579735     79.159469
     -2.337337     35.497612     35.497612     70.995223
     -2.327327     30.162249     30.162249     60.324498
     -2.317317     24.445221     24.445221     48.890442
     -2.307307     19.350405     19.350405     38.700809
     -2.297297     15.743811     15.743811     31.487622
     -2.287287     14.165044     14.165044     28.330089
     -2.277277     14.762868     14.762868     29.525737
     -2.267267     17.335549     17.335549     34.671099
     -2.257257     21.427327     21.427327     42.854654
     -2.247247     26.437306     26.437306     52.874613
     -2.237237     31.716975     31.716975     63.433950
     -2.227227     36.649173     36.649173     73.298346
     -2.217217     40.709367     40.709367     81.418734
     -2.207207     43.513001     43.513001     87.026003
     -2.197197     44.853243     44.853243     89.706486
     -2.187187     44.729302     44.729302     89.458605
     -2.177177     43.354640     43.354640     86.709280
     -2.167167     41.123126     41.123126     82.246252
     -2.157157     38.514548     38.514548     77.029097
     -2.147147     35.948950     35.948950     71.897899
     -2.137137     33.641051     33.641051     67.282102
     -2.127127     31.529305     31.529305     63.058610
     -2.117117     29.330216     29.330216     58.660432
     -2.107107     26.702346     26.702346     53.404693
     -2.097097     23.438064     23.438064     46.876129
     -2.087087     19.582820     19.582820     39.165640
     -2.077077     15.425796     15.425796     30.851593
     -2.067067     11.380624     11.380624     22.761249
     -2.057057      7.829617      7.829617     15.659234
     -2.047047      5.009109      5.009109     10.018217
     -2.037037      2.974972      2.974972      5.949944
     -2.027027      1.639168      1.639168      3.278337
     -2.017017      0.839872      0.839872      1.679745
     -2.007007      0.407728      0.407728      0.815455
     -1.996997      0.208366      0.208366      0.416732
     -1.986987      0.160280      0.160280      0.320561
     -1.976977      0.237298      0.237298      0.474596
     -1.966967      0.464949      0.464949      0.929898
     -1.956957      0.914090      0.914090      1.828180
     -1.946947      1.688557      1.688557      3.377113
     -1.936937      2.900919      2.900919      5.801839
     -1.926927      4.634083      4.634083      9.268166
     -1.916917      6.895740      6.895740     13.791479
     -1.906907      9.582434      9.582434     19.164868
     -1.896897     12.472670     12.472670     24.945340
     -1.886887     15.259694     15.259694     30.519387
     -1.876877     17.617812     17.617812     35.235624
     -1.866867     19.281403     19.281403     38.562806
     -1.856857     20.111422     20.111422     40.222843
     -1.846847     20.129817     20.129817     40.259633
     -1.836837     19.511148     19.511148     39.022296
     -1.826827     18.529072     18.529072     37.058144
     -1.816817     17.466711     17.466711     34.933422
     -1.806807     16.516994     16.516994     33.033987
     -1.796797     15.713952     15.713952     31.427904
     -1.786787     14.932344     14.932344     29.864688
     -1.776777     13.963078     13.963078     27.926157
     -1.766767     12.629782     12.629782     25.259565
     -1.756757     10.886515     10.886515     21.773030
     -1.746747      8.848051      8.848051     17.696101
     -1.736737      6.745261      6.745261     13.490522
     -1.726727      4.839945      4.839945      9.679890
     -1.716717      3.348690      3.348690      6.697379
     -1.706707      2.408372      2.408372      4.816745
     -1.696697      2.083210      2.083210      4.166421
     -1.686687      2.387983      2.387983      4.775966
     -1.676677      3.298072      3.298072      6.596144
     -1.666667      4.733315      4.733315      9.466630
     -1.656657      6.527667      6.527667     13.055334
     -1.646647      8.414853      8.414853     16.829706
     -1.636637     10.059537     10.059537     20.119074
     -1.626627     11.141581     11.141581     22.283161
