# EIG2DOS: Utility for SIESTA to obtain the electronic density of states
#  E. Artacho, Apr 1999, A. Garcia, Apr 2012
#  Nick R. Papior, Feb 2017
# ------------------------------------------
# Eigenvalues calculated from a non-polarized calculation
# Eigenvalues read from siesta.EIG
# Kpoint weights read from siesta.KP
# Using smearing parameter:   0.0500
# Using 1000 points in the energy range
# Selected bands: 1 to: 2981
# Emin, Emax in file for selected band(s):    -27.2615125    218.3694990
# Nbands, Nspin, Nk   =   2981     1     1
# E_F                 =    -4.2314 eV --> (shifted to ZERO)
# Broadening          =     0.0500 eV
#
#        E            N(up)  (=)   N(down)         Ntot
     -5.000000     35.935757     35.935757     71.871514
     -4.989990     39.954988     39.954988     79.909976
     -4.979980     43.054648     43.054648     86.109297
     -4.969970     44.733091     44.733091     89.466183
     -4.959960     44.725114     44.725114     89.450228
     -4.949950     43.088107     43.088107     86.176214
     -4.939940     40.194562     40.194562     80.389124
     -4.929930     36.653869     36.653869     73.307738
     -4.919920     33.207900     33.207900     66.415800
     -4.909910     30.629928     30.629928     61.259856
     -4.899900     29.622326     29.622326     59.244653
     -4.889890     30.688982     30.688982     61.377964
     -4.879880     33.978066     33.978066     67.956131
     -4.869870     39.141925     39.141925     78.283850
     -4.859860     45.302528     45.302528     90.605056
     -4.849850     51.197777     51.197777    102.395554
     -4.839840     55.505592     55.505592    111.011183
     -4.829830     57.239729     57.239729    114.479458
     -4.819820     56.052083     56.052083    112.104166
     -4.809810     52.306990     52.306990    104.613980
     -4.799800     46.901454     46.901454     93.802908
     -4.789790     40.926391     40.926391     81.852781
     -4.779780     35.326092     35.326092     70.652185
     -4.769770     30.687018     30.687018     61.374036
     -4.759760     27.201710     27.201710     54.403420
     -4.749750     24.768188     24.768188     49.536377
     -4.739740     23.143666     23.143666     46.287332
     -4.729730     22.079088     22.079088     44.158176
     -4.719720     21.394912     21.394912     42.789824
     -4.709710     20.994069     20.994069     41.988138
     -4.699700     20.833107     20.833107     41.666215
     -4.689690     20.884176     20.884176     41.768352
     -4.679680     21.117449     21.117449     42.234898
     -4.669670     21.517497     21.517497     43.034993
     -4.659660     22.125559     22.125559     44.251118
     -4.649650     23.082673     23.082673     46.165345
     -4.639640     24.641243     24.641243     49.282486
     -4.629630     27.115933     27.115933     54.231866
     -4.619620     30.762165     30.762165     61.524330
     -4.609610     35.606661     35.606661     71.213323
     -4.599600     41.300616     41.300616     82.601232
     -4.589590     47.091374     47.091374     94.182749
     -4.579580     51.978094     51.978094    103.956187
     -4.569570     55.027904     55.027904    110.055809
     -4.559560     55.728583     55.728583    111.457167
     -4.549550     54.210545     54.210545    108.421090
     -4.539540     51.222066     51.222066    102.444133
     -4.529530     47.860348     47.860348     95.720697
     -4.519520     45.176575     45.176575     90.353149
     -4.509510     43.822490     43.822490     87.644980
     -4.499499     43.872271     43.872271     87.744542
     -4.489489     44.866065     44.866065     89.732131
     -4.479479     46.029030     46.029030     92.058060
     -4.469469     46.561307     46.561307     93.122613
     -4.459459     45.886772     45.886772     91.773544
     -4.449449     43.785322     43.785322     87.570644
     -4.439439     40.392882     40.392882     80.785765
     -4.429429     36.107099     36.107099     72.214197
     -4.419419     31.461573     31.461573     62.923146
     -4.409409     27.019793     27.019793     54.039586
     -4.399399     23.304271     23.304271     46.608542
     -4.389389     20.743882     20.743882     41.487765
     -4.379379     19.616609     19.616609     39.233218
     -4.369369     19.988144     19.988144     39.976288
     -4.359359     21.676946     21.676946     43.353891
     -4.349349     24.284250     24.284250     48.568499
     -4.339339     27.301383     27.301383     54.602766
     -4.329329     30.262451     30.262451     60.524903
     -4.319319     32.879557     32.879557     65.759114
     -4.309309     35.102043     35.102043     70.204086
     -4.299299     37.077101     37.077101     74.154201
     -4.289289     39.032226     39.032226     78.064451
     -4.279279     41.127290     41.127290     82.254580
     -4.269269     43.329512     43.329512     86.659024
     -4.259259     45.357057     45.357057     90.714115
     -4.249249     46.722694     46.722694     93.445388
     -4.239239     46.882735     46.882735     93.765470
     -4.229229     45.453288     45.453288     90.906575
     -4.219219     42.409459     42.409459     84.818918
     -4.209209     38.167164     38.167164     76.334327
     -4.199199     33.487801     33.487801     66.975602
     -4.189189     29.232101     29.232101     58.464202
     -4.179179     26.071546     26.071546     52.143091
     -4.169169     24.291006     24.291006     48.582012
     -4.159159     23.768124     23.768124     47.536249
     -4.149149     24.123859     24.123859     48.247717
     -4.139139     24.956659     24.956659     49.913319
     -4.129129     26.039254     26.039254     52.078508
     -4.119119     27.381588     27.381588     54.763175
     -4.109109     29.131245     29.131245     58.262491
     -4.099099     31.365627     31.365627     62.731254
     -4.089089     33.893522     33.893522     67.787044
     -4.079079     36.192694     36.192694     72.385387
     -4.069069     37.547799     37.547799     75.095598
     -4.059059     37.342015     37.342015     74.684031
     -4.049049     35.358322     35.358322     70.716644
     -4.039039     31.928201     31.928201     63.856402
     -4.029029     27.845403     27.845403     55.690806
     -4.019019     24.091930     24.091930     48.183861
     -4.009009     21.519278     21.519278     43.038555
     -3.998999     20.633053     20.633053     41.266105
     -3.988989     21.550614     21.550614     43.101229
     -3.978979     24.099336     24.099336     48.198671
     -3.968969     27.962951     27.962951     55.925903
     -3.958959     32.792546     32.792546     65.585091
     -3.948949     38.254502     38.254502     76.509003
     -3.938939     44.040785     44.040785     88.081571
     -3.928929     49.879277     49.879277     99.758555
     -3.918919     55.553614     55.553614    111.107228
     -3.908909     60.907113     60.907113    121.814226
     -3.898899     65.800680     65.800680    131.601360
     -3.888889     70.027986     70.027986    140.055971
     -3.878879     73.235828     73.235828    146.471656
     -3.868869     74.915524     74.915524    149.831048
     -3.858859     74.504055     74.504055    149.008110
     -3.848849     71.575528     71.575528    143.151056
     -3.838839     66.048794     66.048794    132.097587
     -3.828829     58.317428     58.317428    116.634856
     -3.818819     49.234757     49.234757     98.469513
     -3.808809     39.945459     39.945459     79.890919
     -3.798799     31.617373     31.617373     63.234747
     -3.788789     25.163858     25.163858     50.327715
     -3.778779     21.044956     21.044956     42.089912
     -3.768769     19.201165     19.201165     38.402330
     -3.758759     19.126562     19.126562     38.253125
     -3.748749     20.048283     20.048283     40.096567
     -3.738739     21.157179     21.157179     42.314358
     -3.728729     21.829883     21.829883     43.659766
     -3.718719     21.789921     21.789921     43.579842
     -3.708709     21.170080     21.170080     42.340159
     -3.698699     20.458231     20.458231     40.916463
     -3.688689     20.334461     20.334461     40.668922
     -3.678679     21.437506     21.437506     42.875011
     -3.668669     24.126657     24.126657     48.253315
     -3.658659     28.318800     28.318800     56.637599
     -3.648649     33.465639     33.465639     66.931277
     -3.638639     38.689614     38.689614     77.379229
     -3.628629     43.033415     43.033415     86.066830
     -3.618619     45.728700     45.728700     91.457400
     -3.608609     46.384133     46.384133     92.768266
     -3.598599     45.036167     45.036167     90.072334
     -3.588589     42.071247     42.071247     84.142493
     -3.578579     38.075012     38.075012     76.150023
     -3.568569     33.670456     33.670456     67.340913
     -3.558559     29.384026     29.384026     58.768053
     -3.548549     25.555277     25.555277     51.110554
     -3.538539     22.298921     22.298921     44.597842
     -3.528529     19.529103     19.529103     39.058206
     -3.518519     17.045366     17.045366     34.090732
     -3.508509     14.654105     14.654105     29.308210
     -3.498498     12.276582     12.276582     24.553164
     -3.488488      9.996823      9.996823     19.993645
     -3.478478      8.032335      8.032335     16.064671
     -3.468468      6.647418      6.647418     13.294837
     -3.458458      6.049348      6.049348     12.098695
     -3.448448      6.305068      6.305068     12.610135
     -3.438438      7.301576      7.301576     14.603151
     -3.428428      8.760564      8.760564     17.521128
     -3.418418     10.308949     10.308949     20.617897
     -3.408408     11.593949     11.593949     23.187899
     -3.398398     12.411475     12.411475     24.822951
     -3.388388     12.800317     12.800317     25.600634
     -3.378378     13.058559     13.058559     26.117117
     -3.368368     13.667931     13.667931     27.335863
     -3.358358     15.151504     15.151504     30.303007
     -3.348348     17.915174     17.915174     35.830348
     -3.338338     22.119514     22.119514     44.239028
     -3.328328     27.604686     27.604686     55.209372
     -3.318318     33.871331     33.871331     67.742662
     -3.308308     40.120193     40.120193     80.240386
     -3.298298     45.363941     45.363941     90.727881
     -3.288288     48.619979     48.619979     97.239959
     -3.278278     49.157520     49.157520     98.315041
     -3.268268     46.723036     46.723036     93.446072
     -3.258258     41.647118     41.647118     83.294235
     -3.248248     34.772244     34.772244     69.544487
     -3.238238     27.221757     27.221757     54.443514
     -3.228228     20.104859     20.104859     40.209719
     -3.218218     14.272543     14.272543     28.545085
     -3.208208     10.196942     10.196942     20.393884
     -3.198198      7.976661      7.976661     15.953322
     -3.188188      7.420663      7.420663     14.841325
     -3.178178      8.157409      8.157409     16.314818
     -3.168168      9.741861      9.741861     19.483722
     -3.158158     11.758223     11.758223     23.516446
     -3.148148     13.916680     13.916680     27.833361
     -3.138138     16.120941     16.120941     32.241881
     -3.128128     18.466815     18.466815     36.933631
     -3.118118     21.147179     21.147179     42.294359
     -3.108108     24.287126     24.287126     48.574251
     -3.098098     27.785664     27.785664     55.571329
     -3.088088     31.255825     31.255825     62.511649
     -3.078078     34.112808     34.112808     68.225616
     -3.068068     35.778831     35.778831     71.557661
     -3.058058     35.903103     35.903103     71.806205
     -3.048048     34.483326     34.483326     68.966652
     -3.038038     31.832040     31.832040     63.664081
     -3.028028     28.421490     28.421490     56.842981
     -3.018018     24.705584     24.705584     49.411168
     -3.008008     21.016502     21.016502     42.033004
     -2.997998     17.573175     17.573175     35.146351
     -2.987988     14.565266     14.565266     29.130531
     -2.977978     12.238152     12.238152     24.476303
     -2.967968     10.917671     10.917671     21.835342
     -2.957958     10.956954     10.956954     21.913908
     -2.947948     12.628193     12.628193     25.256386
     -2.937938     16.001469     16.001469     32.002938
     -2.927928     20.853994     20.853994     41.707987
     -2.917918     26.646336     26.646336     53.292671
     -2.907908     32.589591     32.589591     65.179182
     -2.897898     37.803746     37.803746     75.607492
     -2.887888     41.532147     41.532147     83.064294
     -2.877878     43.343171     43.343171     86.686341
     -2.867868     43.239560     43.239560     86.479119
     -2.857858     41.623169     41.623169     83.246339
     -2.847848     39.122151     39.122151     78.244301
     -2.837838     36.351492     36.351492     72.702984
     -2.827828     33.711446     33.711446     67.422892
     -2.817818     31.310147     31.310147     62.620294
     -2.807808     29.033375     29.033375     58.066750
     -2.797798     26.709385     26.709385     53.418770
     -2.787788     24.271453     24.271453     48.542905
     -2.777778     21.830460     21.830460     43.660920
     -2.767768     19.627818     19.627818     39.255636
     -2.757758     17.910701     17.910701     35.821401
     -2.747748     16.814391     16.814391     33.628781
     -2.737738     16.325205     16.325205     32.650410
     -2.727728     16.339711     16.339711     32.679421
     -2.717718     16.769110     16.769110     33.538220
     -2.707708     17.606707     17.606707     35.213414
     -2.697698     18.904011     18.904011     37.808023
     -2.687688     20.670293     20.670293     41.340586
     -2.677678     22.772857     22.772857     45.545715
     -2.667668     24.923769     24.923769     49.847537
     -2.657658     26.782419     26.782419     53.564839
     -2.647648     28.119498     28.119498     56.238996
     -2.637638     28.937489     28.937489     57.874978
     -2.627628     29.465403     29.465403     58.930806
     -2.617618     30.027095     30.027095     60.054190
     -2.607608     30.864164     30.864164     61.728328
     -2.597598     32.016923     32.016923     64.033847
     -2.587588     33.317768     33.317768     66.635536
     -2.577578     34.473450     34.473450     68.946900
     -2.567568     35.167727     35.167727     70.335454
     -2.557558     35.131679     35.131679     70.263357
     -2.547548     34.179972     34.179972     68.359945
     -2.537538     32.245405     32.245405     64.490810
     -2.527528     29.431238     29.431238     58.862477
     -2.517518     26.058426     26.058426     52.116852
     -2.507508     22.657092     22.657092     45.314184
     -2.497497     19.867910     19.867910     39.735820
     -2.487487     18.269665     18.269665     36.539330
     -2.477477     18.197813     18.197813     36.395625
     -2.467467     19.633342     19.633342     39.266684
     -2.457457     22.214468     22.214468     44.428935
     -2.447447     25.371509     25.371509     50.743018
     -2.437437     28.532444     28.532444     57.064888
     -2.427427     31.315124     31.315124     62.630248
     -2.417417     33.625003     33.625003     67.250007
     -2.407407     35.614832     35.614832     71.229664
     -2.397397     37.521910     37.521910     75.043820
     -2.387387     39.455971     39.455971     78.911942
     -2.377377     41.241295     41.241295     82.482591
     -2.367367     42.402035     42.402035     84.804070
     -2.357357     42.318336     42.318336     84.636672
     -2.347347     40.495446     40.495446     80.990892
     -2.337337     36.822343     36.822343     73.644685
     -2.327327     31.692954     31.692954     63.385908
     -2.317317     25.930272     25.930272     51.860545
     -2.307307     20.553037     20.553037     41.106075
     -2.297297     16.494808     16.494808     32.989617
     -2.287287     14.387780     14.387780     28.775560
     -2.277277     14.469557     14.469557     28.939114
     -2.267267     16.605142     16.605142     33.210284
     -2.257257     20.378119     20.378119     40.756238
     -2.247247     25.203017     25.203017     50.406033
     -2.237237     30.428337     30.428337     60.856674
     -2.227227     35.417324     35.417324     70.834649
     -2.217217     39.604353     39.604353     79.208706
     -2.207207     42.532158     42.532158     85.064315
     -2.197197     43.881399     43.881399     87.762799
     -2.187187     43.504664     43.504664     87.009328
     -2.177177     41.465461     41.465461     82.930922
     -2.167167     38.061728     38.061728     76.123455
     -2.157157     33.798745     33.798745     67.597491
     -2.147147     29.287575     29.287575     58.575150
     -2.137137     25.084986     25.084986     50.169972
     -2.127127     21.536159     21.536159     43.072318
     -2.117117     18.696307     18.696307     37.392613
     -2.107107     16.373273     16.373273     32.746547
     -2.097097     14.268066     14.268066     28.536133
     -2.087087     12.137478     12.137478     24.274955
     -2.077077      9.897646      9.897646     19.795293
     -2.067067      7.629872      7.629872     15.259743
     -2.057057      5.507900      5.507900     11.015800
     -2.047047      3.701435      3.701435      7.402870
     -2.037037      2.307623      2.307623      4.615246
     -2.027027      1.332728      1.332728      2.665456
     -2.017017      0.714947      0.714947      1.429895
     -2.007007      0.364305      0.364305      0.728610
     -1.996997      0.198698      0.198698      0.397397
     -1.986987      0.167247      0.167247      0.334495
     -1.976977      0.262509      0.262509      0.525018
     -1.966967      0.526685      0.526685      1.053370
     -1.956957      1.054088      1.054088      2.108177
     -1.946947      1.986533      1.986533      3.973067
     -1.936937      3.494400      3.494400      6.988799
     -1.926927      5.737335      5.737335     11.474670
     -1.916917      8.806156      8.806156     17.612311
     -1.906907     12.658957     12.658957     25.317913
     -1.896897     17.074175     17.074175     34.148351
     -1.886887     21.645397     21.645397     43.290795
     -1.876877     25.834121     25.834121     51.668243
     -1.866867     29.078936     29.078936     58.157873
     -1.856857     30.937158     30.937158     61.874316
     -1.846847     31.214816     31.214816     62.429632
     -1.836837     30.032722     30.032722     60.065444
     -1.826827     27.790454     27.790454     55.580908
     -1.816817     25.029131     25.029131     50.058261
     -1.806807     22.243722     22.243722     44.487445
     -1.796797     19.727435     19.727435     39.454870
     -1.786787     17.519312     17.519312     35.038624
     -1.776777     15.472380     15.472380     30.944760
     -1.766767     13.394937     13.394937     26.789874
     -1.756757     11.183353     11.183353     22.366705
     -1.746747      8.881239      8.881239     17.762478
     -1.736737      6.651660      6.651660     13.303319
     -1.726727      4.698917      4.698917      9.397833
     -1.716717      3.194181      3.194181      6.388362
     -1.706707      2.241117      2.241117      4.482235
     -1.696697      1.883185      1.883185      3.766370
     -1.686687      2.127820      2.127820      4.255640
     -1.676677      2.957654      2.957654      5.915307
     -1.666667      4.313942      4.313942      8.627884
     -1.656657      6.061539      6.061539     12.123079
     -1.646647      7.964176      7.964176     15.928352
     -1.636637      9.701627      9.701627     19.403255
     -1.626627     10.942268     10.942268     21.884537
