# EIG2DOS: Utility for SIESTA to obtain the electronic density of states
#  E. Artacho, Apr 1999, A. Garcia, Apr 2012
#  Nick R. Papior, Feb 2017
# ------------------------------------------
# Eigenvalues calculated from a non-polarized calculation
# Eigenvalues read from siesta.EIG
# Kpoint weights read from siesta.KP
# Using smearing parameter:   0.0500
# Using 1000 points in the energy range
# Selected bands: 1 to: 2981
# Emin, Emax in file for selected band(s):    -27.3318898    218.4076500
# Nbands, Nspin, Nk   =   2981     1     1
# E_F                 =    -4.1843 eV --> (shifted to ZERO)
# Broadening          =     0.0500 eV
#
#        E            N(up)  (=)   N(down)         Ntot
     -5.000000     31.493783     31.493783     62.987566
     -4.989990     36.872059     36.872059     73.744117
     -4.979980     41.986883     41.986883     83.973765
     -4.969970     45.924605     45.924605     91.849210
     -4.959960     47.918784     47.918784     95.837568
     -4.949950     47.608365     47.608365     95.216729
     -4.939940     45.162831     45.162831     90.325662
     -4.929930     41.238895     41.238895     82.477791
     -4.919920     36.810142     36.810142     73.620285
     -4.909910     32.946922     32.946922     65.893845
     -4.899900     30.606560     30.606560     61.213121
     -4.889890     30.454388     30.454388     60.908777
     -4.879880     32.717857     32.717857     65.435714
     -4.869870     37.094433     37.094433     74.188866
     -4.859860     42.762396     42.762396     85.524792
     -4.849850     48.539507     48.539507     97.079014
     -4.839840     53.180865     53.180865    106.361731
     -4.829830     55.731441     55.731441    111.462881
     -4.819820     55.802073     55.802073    111.604145
     -4.809810     53.656192     53.656192    107.312384
     -4.799800     50.072410     50.072410    100.144820
     -4.789790     46.043521     46.043521     92.087043
     -4.779780     42.436107     42.436107     84.872214
     -4.769770     39.739458     39.739458     79.478917
     -4.759760     37.983435     37.983435     75.966870
     -4.749750     36.830439     36.830439     73.660878
     -4.739740     35.779816     35.779816     71.559632
     -4.729730     34.387854     34.387854     68.775709
     -4.719720     32.413927     32.413927     64.827855
     -4.709710     29.849206     29.849206     59.698412
     -4.699700     26.847577     26.847577     53.695153
     -4.689690     23.625782     23.625782     47.251564
     -4.679680     20.403755     20.403755     40.807510
     -4.669670     17.415634     17.415634     34.831268
     -4.659660     14.965830     14.965830     29.931660
     -4.649650     13.470077     13.470077     26.940154
     -4.639640     13.426649     13.426649     26.853298
     -4.629630     15.298852     15.298852     30.597705
     -4.619620     19.334924     19.334924     38.669848
     -4.609610     25.388835     25.388835     50.777669
     -4.599600     32.824668     32.824668     65.649337
     -4.589590     40.576816     40.576816     81.153632
     -4.579580     47.388485     47.388485     94.776970
     -4.569570     52.170837     52.170837    104.341674
     -4.559560     54.351366     54.351366    108.702732
     -4.549550     54.060971     54.060971    108.121942
     -4.539540     52.067590     52.067590    104.135180
     -4.529530     49.475607     49.475607     98.951214
     -4.519520     47.315376     47.315376     94.630753
     -4.509510     46.191398     46.191398     92.382795
     -4.499499     46.122900     46.122900     92.245800
     -4.489489     46.620238     46.620238     93.240475
     -4.479479     46.940641     46.940641     93.881283
     -4.469469     46.401475     46.401475     92.802949
     -4.459459     44.622095     44.622095     89.244190
     -4.449449     41.613608     41.613608     83.227216
     -4.439439     37.712595     37.712595     75.425190
     -4.429429     33.422566     33.422566     66.845133
     -4.419419     29.253751     29.253751     58.507503
     -4.409409     25.627899     25.627899     51.255798
     -4.399399     22.858566     22.858566     45.717132
     -4.389389     21.166748     21.166748     42.333497
     -4.379379     20.680169     20.680169     41.360338
     -4.369369     21.397101     21.397101     42.794203
     -4.359359     23.143778     23.143778     46.287556
     -4.349349     25.577935     25.577935     51.155870
     -4.339339     28.269648     28.269648     56.539296
     -4.329329     30.839608     30.839608     61.679217
     -4.319319     33.091735     33.091735     66.183471
     -4.309309     35.070990     35.070990     70.141980
     -4.299299     37.010479     37.010479     74.020957
     -4.289289     39.182821     39.182821     78.365641
     -4.279279     41.713921     41.713921     83.427841
     -4.269269     44.437699     44.437699     88.875397
     -4.259259     46.863350     46.863350     93.726701
     -4.249249     48.291293     48.291293     96.582586
     -4.239239     48.054625     48.054625     96.109251
     -4.229229     45.798619     45.798619     91.597239
     -4.219219     41.675501     41.675501     83.351001
     -4.209209     36.355160     36.355160     72.710320
     -4.199199     30.832865     30.832865     61.665730
     -4.189189     26.112084     26.112084     52.224167
     -4.179179     22.899070     22.899070     45.798140
     -4.169169     21.434113     21.434113     42.868226
     -4.159159     21.513533     21.513533     43.027066
     -4.149149     22.668720     22.668720     45.337440
     -4.139139     24.406353     24.406353     48.812706
     -4.129129     26.398886     26.398886     52.797772
     -4.119119     28.544947     28.544947     57.089895
     -4.109109     30.881031     30.881031     61.762061
     -4.099099     33.397603     33.397603     66.795206
     -4.089089     35.866693     35.866693     71.733386
     -4.079079     37.793770     37.793770     75.587540
     -4.069069     38.548947     38.548947     77.097894
     -4.059059     37.632217     37.632217     75.264433
     -4.049049     34.941217     34.941217     69.882435
     -4.039039     30.896378     30.896378     61.792755
     -4.029029     26.351650     26.351650     52.703299
     -4.019019     22.333871     22.333871     44.667743
     -4.009009     19.737008     19.737008     39.474015
     -3.998999     19.102364     19.102364     38.204728
     -3.988989     20.551699     20.551699     41.103398
     -3.978979     23.857099     23.857099     47.714198
     -3.968969     28.579816     28.579816     57.159632
     -3.958959     34.208878     34.208878     68.417756
     -3.948949     40.263066     40.263066     80.526133
     -3.938939     46.353892     46.353892     92.707783
     -3.928929     52.218457     52.218457    104.436914
     -3.918919     57.720118     57.720118    115.440236
     -3.908909     62.803578     62.803578    125.607157
     -3.898899     67.401679     67.401679    134.803357
     -3.888889     71.323788     71.323788    142.647576
     -3.878879     74.185620     74.185620    148.371240
     -3.868869     75.438164     75.438164    150.876327
     -3.858859     74.511398     74.511398    149.022795
     -3.848849     71.028226     71.028226    142.056451
     -3.838839     65.001387     65.001387    130.002774
     -3.828829     56.925878     56.925878    113.851756
     -3.818819     47.720920     47.720920     95.441840
     -3.808809     38.535882     38.535882     77.071764
     -3.798799     30.484645     30.484645     60.969290
     -3.788789     24.393062     24.393062     48.786124
     -3.778779     20.631969     20.631969     41.263937
     -3.768769     19.074811     19.074811     38.149622
     -3.758759     19.180516     19.180516     38.361032
     -3.748749     20.171081     20.171081     40.342161
     -3.738739     21.254899     21.254899     42.509797
     -3.728729     21.840937     21.840937     43.681875
     -3.718719     21.693151     21.693151     43.386301
     -3.708709     20.986816     20.986816     41.973632
     -3.698699     20.247831     20.247831     40.495662
     -3.688689     20.182178     20.182178     40.364355
     -3.678679     21.434140     21.434140     42.868280
     -3.668669     24.341757     24.341757     48.683514
     -3.658659     28.773243     28.773243     57.546486
     -3.648649     34.113411     34.113411     68.226822
     -3.638639     39.419056     39.419056     78.838112
     -3.628629     43.692474     43.692474     87.384949
     -3.618619     46.168043     46.168043     92.336087
     -3.608609     46.502153     46.502153     93.004305
     -3.598599     44.807632     44.807632     89.615265
     -3.588589     41.548768     41.548768     83.097536
     -3.578579     37.365271     37.365271     74.730542
     -3.568569     32.897764     32.897764     65.795527
     -3.558559     28.656724     28.656724     57.313449
     -3.548549     24.945810     24.945810     49.891619
     -3.538539     21.840326     21.840326     43.680651
     -3.528529     19.224251     19.224251     38.448501
     -3.518519     16.883224     16.883224     33.766449
     -3.508509     14.629160     14.629160     29.258319
     -3.498498     12.410695     12.410695     24.821390
     -3.488488     10.364157     10.364157     20.728313
     -3.478478      8.785455      8.785455     17.570910
     -3.468468      8.036426      8.036426     16.072853
     -3.458458      8.418843      8.418843     16.837686
     -3.448448     10.051670     10.051670     20.103340
     -3.438438     12.783856     12.783856     25.567712
     -3.428428     16.174959     16.174959     32.349918
     -3.418418     19.571430     19.571430     39.142860
     -3.408408     22.281240     22.281240     44.562480
     -3.398398     23.802227     23.802227     47.604454
     -3.388388     24.015713     24.015713     48.031425
     -3.378378     23.253373     23.253373     46.506745
     -3.368368     22.196430     22.196430     44.392860
     -3.358358     21.645421     21.645421     43.290843
     -3.348348     22.255715     22.255715     44.511429
     -3.338338     24.335044     24.335044     48.670087
     -3.328328     27.754315     27.754315     55.508629
     -3.318318     31.972754     31.972754     63.945508
     -3.308308     36.156061     36.156061     72.312122
     -3.298298     39.367960     39.367960     78.735921
     -3.288288     40.811246     40.811246     81.622492
     -3.278278     40.065669     40.065669     80.131337
     -3.268268     37.236637     37.236637     74.473273
     -3.258258     32.933593     32.933593     65.867185
     -3.248248     28.061249     28.061249     56.122498
     -3.238238     23.501244     23.501244     47.002488
     -3.228228     19.824295     19.824295     39.648589
     -3.218218     17.158684     17.158684     34.317369
     -3.208208     15.257790     15.257790     30.515579
     -3.198198     13.710012     13.710012     27.420023
     -3.188188     12.176747     12.176747     24.353493
     -3.178178     10.552923     10.552923     21.105846
     -3.168168      9.002527      9.002527     18.005054
     -3.158158      7.886306      7.886306     15.772612
     -3.148148      7.634226      7.634226     15.268452
     -3.138138      8.612175      8.612175     17.224349
     -3.128128     11.009323     11.009323     22.018646
     -3.118118     14.756299     14.756299     29.512597
     -3.108108     19.487150     19.487150     38.974301
     -3.098098     24.568640     24.568640     49.137280
     -3.088088     29.215637     29.215637     58.431275
     -3.078078     32.679457     32.679457     65.358914
     -3.068068     34.450762     34.450762     68.901523
     -3.058058     34.393074     34.393074     68.786148
     -3.048048     32.743711     32.743711     65.487422
     -3.038038     29.982434     29.982434     59.964867
     -3.028028     26.637581     26.637581     53.275161
     -3.018018     23.129397     23.129397     46.258795
     -3.008008     19.720371     19.720371     39.440741
     -2.997998     16.573697     16.573697     33.147394
     -2.987988     13.859990     13.859990     27.719980
     -2.977978     11.835401     11.835401     23.670803
     -2.967968     10.843220     10.843220     21.686439
     -2.957958     11.237983     11.237983     22.475966
     -2.947948     13.265996     13.265996     26.531992
     -2.937938     16.947616     16.947616     33.895232
     -2.927928     22.002255     22.002255     44.004511
     -2.917918     27.846818     27.846818     55.693635
     -2.907908     33.683273     33.683273     67.366545
     -2.897898     38.666609     38.666609     77.333217
     -2.887888     42.111807     42.111807     84.223614
     -2.877878     43.671292     43.671292     87.342584
     -2.867868     43.411740     43.411740     86.823480
     -2.857858     41.751741     41.751741     83.503483
     -2.847848     39.280481     39.280481     78.560963
     -2.837838     36.534340     36.534340     73.068680
     -2.827828     33.830790     33.830790     67.661579
     -2.817818     31.230605     31.230605     62.461209
     -2.807808     28.632544     28.632544     57.265087
     -2.797798     25.935748     25.935748     51.871496
     -2.787788     23.173415     23.173415     46.346831
     -2.777778     20.544711     20.544711     41.089422
     -2.767768     18.335671     18.335671     36.671342
     -2.757758     16.785703     16.785703     33.571405
     -2.747748     15.985271     15.985271     31.970541
     -2.737738     15.865616     15.865616     31.731233
     -2.727728     16.278637     16.278637     32.557274
     -2.717718     17.104442     17.104442     34.208883
     -2.707708     18.306325     18.306325     36.612650
     -2.697698     19.892300     19.892300     39.784601
     -2.687688     21.813946     21.813946     43.627893
     -2.677678     23.886320     23.886320     47.772639
     -2.667668     25.805385     25.805385     51.610769
     -2.657658     27.272056     27.272056     54.544112
     -2.647648     28.151013     28.151013     56.302027
     -2.637638     28.558475     28.558475     57.116949
     -2.627628     28.814154     28.814154     57.628308
     -2.617618     29.280564     29.280564     58.561128
     -2.607608     30.183652     30.183652     60.367304
     -2.597598     31.512581     31.512581     63.025161
     -2.587588     33.036111     33.036111     66.072223
     -2.577578     34.399327     34.399327     68.798653
     -2.567568     35.232200     35.232200     70.464399
     -2.557558     35.225665     35.225665     70.451330
     -2.547548     34.178370     34.178370     68.356741
     -2.537538     32.041414     32.041414     64.082828
     -2.527528     28.970485     28.970485     57.940970
     -2.517518     25.357926     25.357926     50.715852
     -2.507508     21.800564     21.800564     43.601128
     -2.497497     18.981831     18.981831     37.963662
     -2.487487     17.493545     17.493545     34.987090
     -2.477477     17.661148     17.661148     35.322295
     -2.467467     19.443054     19.443054     38.886107
     -2.457457     22.448468     22.448468     44.896935
     -2.447447     26.072400     26.072400     52.144801
     -2.437437     29.699714     29.699714     59.399428
     -2.427427     32.898813     32.898813     65.797626
     -2.417417     35.524017     35.524017     71.048034
     -2.407407     37.679678     37.679678     75.359355
     -2.397397     39.559929     39.559929     79.119858
     -2.387387     41.240856     41.240856     82.481713
     -2.377377     42.534679     42.534679     85.069357
     -2.367367     42.994799     42.994799     85.989598
     -2.357357     42.087975     42.087975     84.175949
     -2.347347     39.458979     39.458979     78.917958
     -2.337337     35.156181     35.156181     70.312362
     -2.327327     29.701775     29.701775     59.403549
     -2.317317     23.971949     23.971949     47.943898
     -2.307307     18.949178     18.949178     37.898356
     -2.297297     15.461515     15.461515     30.923030
     -2.287287     14.007583     14.007583     28.015166
     -2.277277     14.704539     14.704539     29.409078
     -2.267267     17.335978     17.335978     34.671956
     -2.257257     21.449267     21.449267     42.898533
     -2.247247     26.458051     26.458051     52.916103
     -2.237237     31.726998     31.726998     63.453997
     -2.227227     36.634725     36.634725     73.269450
     -2.217217     40.621196     40.621196     81.242392
     -2.207207     43.229509     43.229509     86.459017
     -2.197197     44.151065     44.151065     88.302130
     -2.187187     43.276220     43.276220     86.552439
     -2.177177     40.738453     40.738453     81.476906
     -2.167167     36.924498     36.924498     73.848996
     -2.157157     32.419684     32.419684     64.839368
     -2.147147     27.879505     27.879505     55.759009
     -2.137137     23.860632     23.860632     47.721264
     -2.127127     20.680835     20.680835     41.361671
     -2.117117     18.375988     18.375988     36.751977
     -2.107107     16.774619     16.774619     33.549237
     -2.097097     15.643252     15.643252     31.286505
     -2.087087     14.815209     14.815209     29.630417
     -2.077077     14.231430     14.231430     28.462860
     -2.067067     13.884238     13.884238     27.768475
     -2.057057     13.719960     13.719960     27.439920
     -2.047047     13.579678     13.579678     27.159356
     -2.037037     13.225295     13.225295     26.450590
     -2.027027     12.436444     12.436444     24.872889
     -2.017017     11.116563     11.116563     22.233126
     -2.007007      9.344083      9.344083     18.688166
     -1.996997      7.343650      7.343650     14.687299
     -1.986987      5.401768      5.401768     10.803536
     -1.976977      3.778005      3.778005      7.556010
     -1.966967      2.654335      2.654335      5.308670
     -1.956957      2.133761      2.133761      4.267522
     -1.946947      2.268633      2.268633      4.537267
     -1.936937      3.086679      3.086679      6.173358
     -1.926927      4.591537      4.591537      9.183075
     -1.916917      6.735860      6.735860     13.471721
     -1.906907      9.385418      9.385418     18.770836
     -1.896897     12.301249     12.301249     24.602498
     -1.886887     15.159465     15.159465     30.318931
     -1.876877     17.609797     17.609797     35.219593
     -1.866867     19.355372     19.355372     38.710745
     -1.856857     20.227247     20.227247     40.454494
     -1.846847     20.229320     20.229320     40.458640
     -1.836837     19.537455     19.537455     39.074910
     -1.826827     18.446934     18.446934     36.893868
     -1.816817     17.276683     17.276683     34.553366
     -1.806807     16.258253     16.258253     32.516506
     -1.796797     15.453985     15.453985     30.907969
     -1.786787     14.746127     14.746127     29.492254
     -1.776777     13.908733     13.908733     27.817466
     -1.766767     12.729986     12.729986     25.459972
     -1.756757     11.123182     11.123182     22.246364
     -1.746747      9.171982      9.171982     18.343964
     -1.736737      7.095560      7.095560     14.191119
     -1.726727      5.164087      5.164087     10.328173
     -1.716717      3.615330      3.615330      7.230660
     -1.706707      2.609852      2.609852      5.219704
     -1.696697      2.229801      2.229801      4.459603
     -1.686687      2.498452      2.498452      4.996904
     -1.676677      3.390734      3.390734      6.781468
     -1.666667      4.819937      4.819937      9.639875
     -1.656657      6.610957      6.610957     13.221914
     -1.646647      8.489427      8.489427     16.978855
     -1.636637     10.115807     10.115807     20.231614
     -1.626627     11.171404     11.171404     22.342808
