# EIG2DOS: Utility for SIESTA to obtain the electronic density of states
#  E. Artacho, Apr 1999, A. Garcia, Apr 2012
#  Nick R. Papior, Feb 2017
# ------------------------------------------
# Eigenvalues calculated from a non-polarized calculation
# Eigenvalues read from siesta.EIG
# Kpoint weights read from siesta.KP
# Using smearing parameter:   0.0500
# Using 1000 points in the energy range
# Selected bands: 1 to: 2981
# Emin, Emax in file for selected band(s):    -27.0981128    218.3354700
# Nbands, Nspin, Nk   =   2981     1     1
# E_F                 =    -4.2708 eV --> (shifted to ZERO)
# Broadening          =     0.0500 eV
#
#        E            N(up)  (=)   N(down)         Ntot
     -5.000000     40.539318     40.539318     81.078637
     -4.989990     42.151699     42.151699     84.303398
     -4.979980     43.405008     43.405008     86.810017
     -4.969970     44.029798     44.029798     88.059595
     -4.959960     43.764883     43.764883     87.529765
     -4.949950     42.476154     42.476154     84.952308
     -4.939940     40.233673     40.233673     80.467346
     -4.929930     37.330946     37.330946     74.661892
     -4.919920     34.258140     34.258140     68.516279
     -4.909910     31.646891     31.646891     63.293781
     -4.899900     30.188749     30.188749     60.377498
     -4.889890     30.511215     30.511215     61.022430
     -4.879880     33.001281     33.001281     66.002561
     -4.869870     37.607649     37.607649     75.215298
     -4.859860     43.707434     43.707434     87.414867
     -4.849850     50.143017     50.143017    100.286035
     -4.839840     55.482091     55.482091    110.964182
     -4.829830     58.440587     58.440587    116.881175
     -4.819820     58.300853     58.300853    116.601706
     -4.809810     55.134207     55.134207    110.268414
     -4.799800     49.726147     49.726147     99.452293
     -4.789790     43.253238     43.253238     86.506476
     -4.779780     36.877394     36.877394     73.754787
     -4.769770     31.436255     31.436255     62.872510
     -4.759760     27.324289     27.324289     54.648578
     -4.749750     24.547101     24.547101     49.094201
     -4.739740     22.863207     22.863207     45.726415
     -4.729730     21.926752     21.926752     43.853504
     -4.719720     21.385092     21.385092     42.770184
     -4.709710     20.927502     20.927502     41.855005
     -4.699700     20.304496     20.304496     40.608991
     -4.689690     19.342152     19.342152     38.684305
     -4.679680     17.968628     17.968628     35.937257
     -4.669670     16.254523     16.254523     32.509047
     -4.659660     14.450315     14.450315     28.900630
     -4.649650     12.992492     12.992492     25.984984
     -4.639640     12.453402     12.453402     24.906804
     -4.629630     13.426919     13.426919     26.853838
     -4.619620     16.364624     16.364624     32.729249
     -4.609610     21.399088     21.399088     42.798175
     -4.599600     28.209258     28.209258     56.418516
     -4.589590     35.991603     35.991603     71.983206
     -4.579580     43.585597     43.585597     87.171194
     -4.569570     49.753306     49.753306     99.506613
     -4.559560     53.541442     53.541442    107.082885
     -4.549550     54.596530     54.596530    109.193060
     -4.539540     53.299960     53.299960    106.599919
     -4.529530     50.653054     50.653054    101.306108
     -4.519520     47.945584     47.945584     95.891169
     -4.509510     46.331667     46.331667     92.663335
     -4.499499     46.469752     46.469752     92.939504
     -4.489489     48.347227     48.347227     96.694454
     -4.479479     51.329917     51.329917    102.659833
     -4.469469     54.394166     54.394166    108.788333
     -4.459459     56.447604     56.447604    112.895208
     -4.449449     56.634758     56.634758    113.269516
     -4.439439     54.546739     54.546739    109.093478
     -4.429429     50.294364     50.294364    100.588729
     -4.419419     44.447188     44.447188     88.894375
     -4.409409     37.875229     37.875229     75.750458
     -4.399399     31.546471     31.546471     63.092941
     -4.389389     26.329284     26.329284     52.658567
     -4.379379     22.833624     22.833624     45.667248
     -4.369369     21.311707     21.311707     42.623414
     -4.359359     21.633665     21.633665     43.267330
     -4.349349     23.348756     23.348756     46.697512
     -4.339339     25.826255     25.826255     51.652511
     -4.329329     28.442061     28.442061     56.884122
     -4.319319     30.752801     30.752801     61.505603
     -4.309309     32.598072     32.598072     65.196144
     -4.299299     34.098064     34.098064     68.196127
     -4.289289     35.553679     35.553679     71.107358
     -4.279279     37.287665     37.287665     74.575329
     -4.269269     39.478007     39.478007     78.956014
     -4.259259     42.034303     42.034303     84.068605
     -4.249249     44.562158     44.562158     89.124315
     -4.239239     46.446195     46.446195     92.892391
     -4.229229     47.046864     47.046864     94.093727
     -4.219219     45.950791     45.950791     91.901582
     -4.209209     43.167620     43.167620     86.335241
     -4.199199     39.169277     39.169277     78.338554
     -4.189189     34.736597     34.736597     69.473195
     -4.179179     30.679596     30.679596     61.359191
     -4.169169     27.566757     27.566757     55.133514
     -4.159159     25.589471     25.589471     51.178943
     -4.149149     24.608424     24.608424     49.216849
     -4.139139     24.332726     24.332726     48.665452
     -4.129129     24.524745     24.524745     49.049490
     -4.119119     25.125336     25.125336     50.250671
     -4.109109     26.242092     26.242092     52.484185
     -4.099099     28.010856     28.010856     56.021713
     -4.089089     30.403696     30.403696     60.807392
     -4.079079     33.092111     33.092111     66.184222
     -4.069069     35.460322     35.460322     70.920643
     -4.059059     36.793413     36.793413     73.586826
     -4.049049     36.566519     36.566519     73.133038
     -4.039039     34.691875     34.691875     69.383750
     -4.029029     31.591481     31.591481     63.182961
     -4.019019     28.055566     28.055566     56.111132
     -4.009009     24.964406     24.964406     49.928812
     -3.998999     23.017227     23.017227     46.034455
     -3.988989     22.587737     22.587737     45.175474
     -3.978979     23.735602     23.735602     47.471205
     -3.968969     26.313635     26.313635     52.627270
     -3.958959     30.079016     30.079016     60.158032
     -3.948949     34.752468     34.752468     69.504936
     -3.938939     40.031827     40.031827     80.063654
     -3.928929     45.602909     45.602909     91.205818
     -3.918919     51.176631     51.176631    102.353263
     -3.908909     56.537069     56.537069    113.074137
     -3.898899     61.553993     61.553993    123.107985
     -3.888889     66.125530     66.125530    132.251060
     -3.878879     70.065844     70.065844    140.131687
     -3.868869     73.004020     73.004020    146.008039
     -3.858859     74.375471     74.375471    148.750942
     -3.848849     73.550323     73.550323    147.100645
     -3.838839     70.070278     70.070278    140.140557
     -3.828829     63.896297     63.896297    127.792593
     -3.818819     55.546000     55.546000    111.092000
     -3.808809     46.040739     46.040739     92.081477
     -3.798799     36.668075     36.668075     73.336150
     -3.788789     28.648591     28.648591     57.297183
     -3.778779     22.831607     22.831607     45.663213
     -3.768769     19.519806     19.519806     39.039613
     -3.758759     18.461344     18.461344     36.922688
     -3.748749     18.987178     18.987178     37.974356
     -3.738739     20.236175     20.236175     40.472350
     -3.728729     21.402706     21.402706     42.805412
     -3.718719     21.949173     21.949173     43.898347
     -3.708709     21.738231     21.738231     43.476462
     -3.698699     21.053866     21.053866     42.107733
     -3.688689     20.500458     20.500458     41.000916
     -3.678679     20.797371     20.797371     41.594742
     -3.668669     22.520701     22.520701     45.041402
     -3.658659     25.872262     25.872262     51.744523
     -3.648649     30.561681     30.561681     61.123361
     -3.638639     35.856666     35.856666     71.713331
     -3.628629     40.792252     40.792252     81.584504
     -3.618619     44.459369     44.459369     88.918739
     -3.608609     46.256778     46.256778     92.513557
     -3.598599     46.013634     46.013634     92.027267
     -3.588589     43.959433     43.959433     87.918866
     -3.578579     40.588248     40.588248     81.176496
     -3.568569     36.492320     36.492320     72.984640
     -3.558559     32.220673     32.220673     64.441345
     -3.548549     28.182179     28.182179     56.364359
     -3.538539     24.593311     24.593311     49.186622
     -3.528529     21.473814     21.473814     42.947629
     -3.518519     18.697215     18.697215     37.394431
     -3.508509     16.088272     16.088272     32.176544
     -3.498498     13.532929     13.532929     27.065859
     -3.488488     11.052794     11.052794     22.105587
     -3.478478      8.811585      8.811585     17.623170
     -3.468468      7.055833      7.055833     14.111666
     -3.458458      6.021201      6.021201     12.042403
     -3.448448      5.842804      5.842804     11.685609
     -3.438438      6.496946      6.496946     12.993893
     -3.428428      7.788157      7.788157     15.576314
     -3.418418      9.387484      9.387484     18.774969
     -3.408408     10.920285     10.920285     21.840570
     -3.398398     12.085796     12.085796     24.171591
     -3.388388     12.769812     12.769812     25.539624
     -3.378378     13.102201     13.102201     26.204402
     -3.368368     13.427358     13.427358     26.854716
     -3.358358     14.194181     14.194181     28.388363
     -3.348348     15.809128     15.809128     31.618257
     -3.338338     18.506406     18.506406     37.012812
     -3.328328     22.268889     22.268889     44.537778
     -3.318318     26.802828     26.802828     53.605656
     -3.308308     31.556464     31.556464     63.112929
     -3.298298     35.784412     35.784412     71.568823
     -3.288288     38.673789     38.673789     77.347579
     -3.278278     39.534123     39.534123     79.068245
     -3.268268     38.007124     38.007124     76.014247
     -3.258258     34.209505     34.209505     68.419011
     -3.248248     28.727505     28.727505     57.455010
     -3.238238     22.447135     22.447135     44.894270
     -3.228228     16.289875     16.289875     32.579750
     -3.218218     10.970231     10.970231     21.940461
     -3.208208      6.869782      6.869782     13.739565
     -3.198198      4.053317      4.053317      8.106634
     -3.188188      2.385666      2.385666      4.771331
     -3.178178      1.678942      1.678942      3.357883
     -3.168168      1.810822      1.810822      3.621644
     -3.158158      2.783045      2.783045      5.566090
     -3.148148      4.713661      4.713661      9.427321
     -3.138138      7.770515      7.770515     15.541030
     -3.128128     12.063741     12.063741     24.127481
     -3.118118     17.528391     17.528391     35.056782
     -3.108108     23.841588     23.841588     47.683176
     -3.098098     30.419387     30.419387     60.838774
     -3.088088     36.516337     36.516337     73.032673
     -3.078078     41.407709     41.407709     82.815417
     -3.068068     44.589308     44.589308     89.178617
     -3.058058     45.908856     45.908856     91.817711
     -3.048048     45.564782     45.564782     91.129565
     -3.038038     43.969490     43.969490     87.938980
     -3.028028     41.545790     41.545790     83.091579
     -3.018018     38.565003     38.565003     77.130006
     -3.008008     35.113328     35.113328     70.226656
     -2.997998     31.197169     31.197169     62.394338
     -2.987988     26.914675     26.914675     53.829349
     -2.977978     22.584282     22.584282     45.168564
     -2.967968     18.752911     18.752911     37.505821
     -2.957958     16.078922     16.078922     32.157843
     -2.947948     15.146609     15.146609     30.293217
     -2.937938     16.287113     16.287113     32.574227
     -2.927928     19.461307     19.461307     38.922613
     -2.917918     24.231289     24.231289     48.462578
     -2.907908     29.827481     29.827481     59.654962
     -2.897898     35.304257     35.304257     70.608513
     -2.887888     39.756170     39.756170     79.512339
     -2.877878     42.538795     42.538795     85.077590
     -2.867868     43.420368     43.420368     86.840736
     -2.857858     42.603311     42.603311     85.206622
     -2.847848     40.602182     40.602182     81.204364
     -2.837838     38.026569     38.026569     76.053139
     -2.827828     35.361273     35.361273     70.722547
     -2.817818     32.836434     32.836434     65.672869
     -2.807808     30.434929     30.434929     60.869859
     -2.797798     28.016038     28.016038     56.032077
     -2.787788     25.478518     25.478518     50.957036
     -2.777778     22.872043     22.872043     45.744086
     -2.767768     20.400585     20.400585     40.801170
     -2.757758     18.325494     18.325494     36.650987
     -2.747748     16.833879     16.833879     33.667759
     -2.737738     15.956089     15.956089     31.912178
     -2.727728     15.583215     15.583215     31.166431
     -2.717718     15.570563     15.570563     31.141127
     -2.707708     15.855763     15.855763     31.711527
     -2.697698     16.508331     16.508331     33.016663
     -2.687688     17.671208     17.671208     35.342417
     -2.677678     19.428049     19.428049     38.856098
     -2.667668     21.684755     21.684755     43.369509
     -2.657658     24.151128     24.151128     48.302257
     -2.647648     26.446500     26.446500     52.893000
     -2.637638     28.270950     28.270950     56.541900
     -2.627628     29.537674     29.537674     59.075347
     -2.617618     30.385867     30.385867     60.771734
     -2.607608     31.071952     31.071952     62.143904
     -2.597598     31.813800     31.813800     63.627600
     -2.587588     32.682718     32.682718     65.365436
     -2.577578     33.590896     33.590896     67.181793
     -2.567568     34.350410     34.350410     68.700819
     -2.557558     34.742654     34.742654     69.485309
     -2.547548     34.558615     34.558615     69.117229
     -2.537538     33.621086     33.621086     67.242173
     -2.527528     31.826637     31.826637     63.653274
     -2.517518     29.221232     29.221232     58.442465
     -2.507508     26.072926     26.072926     52.145853
     -2.497497     22.877533     22.877533     45.755066
     -2.487487     20.258009     20.258009     40.516018
     -2.477477     18.780042     18.780042     37.560085
     -2.467467     18.761325     18.761325     37.522650
     -2.457457     20.164153     20.164153     40.328306
     -2.447447     22.624481     22.624481     45.248963
     -2.437437     25.606878     25.606878     51.213756
     -2.427427     28.615800     28.615800     57.231599
     -2.417417     31.366424     31.366424     62.732847
     -2.407407     33.835942     33.835942     67.671884
     -2.397397     36.172479     36.172479     72.344958
     -2.387387     38.508581     38.508581     77.017162
     -2.377377     40.775890     40.775890     81.551779
     -2.367367     42.621633     42.621633     85.243267
     -2.357357     43.481887     43.481887     86.963773
     -2.347347     42.791172     42.791172     85.582345
     -2.337337     40.238709     40.238709     80.477418
     -2.327327     35.953892     35.953892     71.907784
     -2.317317     30.534092     30.534092     61.068184
     -2.307307     24.901692     24.901692     49.803385
     -2.297297     20.053978     20.053978     40.107957
     -2.287287     16.807648     16.807648     33.615296
     -2.277277     15.624753     15.624753     31.249505
     -2.267267     16.557722     16.557722     33.115443
     -2.257257     19.301426     19.301426     38.602852
     -2.247247     23.312061     23.312061     46.624122
     -2.237237     27.946895     27.946895     55.893790
     -2.227227     32.585502     32.585502     65.171004
     -2.217217     36.705758     36.705758     73.411517
     -2.207207     39.907096     39.907096     79.814192
     -2.197197     41.897711     41.897711     83.795423
     -2.187187     42.480625     42.480625     84.961249
     -2.177177     41.570228     41.570228     83.140456
     -2.167167     39.241551     39.241551     78.483103
     -2.157157     35.775449     35.775449     71.550898
     -2.147147     31.645044     31.645044     63.290088
     -2.137137     27.413226     27.413226     54.826453
     -2.127127     23.567839     23.567839     47.135678
     -2.117117     20.371284     20.371284     40.742568
     -2.107107     17.804937     17.804937     35.609873
     -2.097097     15.638518     15.638518     31.277035
     -2.087087     13.583285     13.583285     27.166569
     -2.077077     11.443980     11.443980     22.887961
     -2.067067      9.195048      9.195048     18.390095
     -2.057057      6.959042      6.959042     13.918084
     -2.047047      4.920674      4.920674      9.841347
     -2.037037      3.234492      3.234492      6.468985
     -2.027027      1.970940      1.970940      3.941879
     -2.017017      1.112644      1.112644      2.225288
     -2.007007      0.585229      0.585229      1.170458
     -1.996997      0.297800      0.297800      0.595601
     -1.986987      0.175303      0.175303      0.350606
     -1.976977      0.177284      0.177284      0.354569
     -1.966967      0.306028      0.306028      0.612057
     -1.956957      0.608236      0.608236      1.216472
     -1.946947      1.170597      1.170597      2.341193
     -1.936937      2.105171      2.105171      4.210342
     -1.926927      3.520079      3.520079      7.040159
     -1.916917      5.476666      5.476666     10.953331
     -1.906907      7.944319      7.944319     15.888638
     -1.896897     10.772099     10.772099     21.544197
     -1.886887     13.695179     13.695179     27.390358
     -1.876877     16.381851     16.381851     32.763701
     -1.866867     18.509461     18.509461     37.018922
     -1.856857     19.845483     19.845483     39.690966
     -1.846847     20.308477     20.308477     40.616953
     -1.836837     19.990483     19.990483     39.980966
     -1.826827     19.131706     19.131706     38.263413
     -1.816817     18.049373     18.049373     36.098746
     -1.806807     17.038528     17.038528     34.077055
     -1.796797     16.280562     16.280562     32.561124
     -1.786787     15.801910     15.801910     31.603821
     -1.776777     15.506487     15.506487     31.012974
     -1.766767     15.264270     15.264270     30.528539
     -1.756757     15.000967     15.000967     30.001934
     -1.746747     14.730584     14.730584     29.461168
     -1.736737     14.511893     14.511893     29.023785
     -1.726727     14.365522     14.365522     28.731045
     -1.716717     14.219006     14.219006     28.438012
     -1.706707     13.928301     13.928301     27.856601
     -1.696697     13.368818     13.368818     26.737635
     -1.686687     12.537021     12.537021     25.074043
     -1.676677     11.591921     11.591921     23.183843
     -1.666667     10.801307     10.801307     21.602614
     -1.656657     10.415441     10.415441     20.830882
     -1.646647     10.534519     10.534519     21.069037
     -1.636637     11.041366     11.041366     22.082731
     -1.626627     11.637699     11.637699     23.275398
