# EIG2DOS: Utility for SIESTA to obtain the electronic density of states
#  E. Artacho, Apr 1999, A. Garcia, Apr 2012
#  Nick R. Papior, Feb 2017
# ------------------------------------------
# Eigenvalues calculated from a non-polarized calculation
# Eigenvalues read from siesta.EIG
# Kpoint weights read from siesta.KP
# Using smearing parameter:   0.0500
# Using 1000 points in the energy range
# Selected bands: 1 to: 2981
# Emin, Emax in file for selected band(s):    -27.3197277    218.4110790
# Nbands, Nspin, Nk   =   2981     1     1
# E_F                 =    -4.1849 eV --> (shifted to ZERO)
# Broadening          =     0.0500 eV
#
#        E            N(up)  (=)   N(down)         Ntot
     -5.000000     32.250198     32.250198     64.500395
     -4.989990     37.624960     37.624960     75.249921
     -4.979980     42.602730     42.602730     85.205461
     -4.969970     46.278985     46.278985     92.557970
     -4.959960     47.939171     47.939171     95.878341
     -4.949950     47.300511     47.300511     94.601022
     -4.939940     44.608761     44.608761     89.217521
     -4.929930     40.569059     40.569059     81.138117
     -4.919920     36.164222     36.164222     72.328445
     -4.909910     32.439791     32.439791     64.879583
     -4.899900     30.308560     30.308560     60.617120
     -4.889890     30.385464     30.385464     60.770928
     -4.879880     32.850086     32.850086     65.700171
     -4.869870     37.358644     37.358644     74.717287
     -4.859860     43.057965     43.057965     86.115929
     -4.849850     48.747263     48.747263     97.494526
     -4.839840     53.176403     53.176403    106.352806
     -4.829830     55.393327     55.393327    110.786653
     -4.819820     55.011134     55.011134    110.022268
     -4.809810     52.289736     52.289736    104.579472
     -4.799800     48.007019     48.007019     96.014038
     -4.789790     43.183928     43.183928     86.367857
     -4.779780     38.778042     38.778042     77.556084
     -4.769770     35.450746     35.450746     70.901491
     -4.759760     33.461174     33.461174     66.922347
     -4.749750     32.682772     32.682772     65.365545
     -4.739740     32.704655     32.704655     65.409310
     -4.729730     32.973792     32.973792     65.947584
     -4.719720     32.941439     32.941439     65.882878
     -4.709710     32.185434     32.185434     64.370869
     -4.699700     30.488698     30.488698     60.977396
     -4.689690     27.867857     27.867857     55.735714
     -4.679680     24.561777     24.561777     49.123554
     -4.669670     20.997717     20.997717     41.995435
     -4.659660     17.746658     17.746658     35.493317
     -4.649650     15.464267     15.464267     30.928535
     -4.639640     14.802793     14.802793     29.605587
     -4.629630     16.282419     16.282419     32.564838
     -4.619620     20.131452     20.131452     40.262905
     -4.609610     26.137394     26.137394     52.274788
     -4.599600     33.579313     33.579313     67.158625
     -4.589590     41.311811     41.311811     82.623622
     -4.579580     48.024100     48.024100     96.048199
     -4.569570     52.613780     52.613780    105.227560
     -4.559560     54.537655     54.537655    109.075310
     -4.549550     53.985147     53.985147    107.970294
     -4.539540     51.786354     51.786354    103.572708
     -4.529530     49.085659     49.085659     98.171318
     -4.519520     46.917662     46.917662     93.835323
     -4.509510     45.859279     45.859279     91.718558
     -4.499499     45.887226     45.887226     91.774451
     -4.489489     46.473742     46.473742     92.947484
     -4.479479     46.854557     46.854557     93.709114
     -4.469469     46.343584     46.343584     92.687168
     -4.459459     44.568091     44.568091     89.136181
     -4.449449     41.549452     41.549452     83.098904
     -4.439439     37.630782     37.630782     75.261564
     -4.429429     33.317437     33.317437     66.634874
     -4.419419     29.119873     29.119873     58.239746
     -4.409409     25.462356     25.462356     50.924711
     -4.399399     22.664845     22.664845     45.329690
     -4.389389     20.956826     20.956826     41.913653
     -4.379379     20.472954     20.472954     40.945908
     -4.369369     21.214251     21.214251     42.428502
     -4.359359     23.005726     23.005726     46.011451
     -4.349349     25.502282     25.502282     51.004564
     -4.339339     28.271529     28.271529     56.543058
     -4.329329     30.931493     30.931493     61.862986
     -4.319319     33.280189     33.280189     66.560378
     -4.309309     35.350277     35.350277     70.700554
     -4.299299     37.355922     37.355922     74.711844
     -4.289289     39.548489     39.548489     79.096978
     -4.279279     42.038245     42.038245     84.076490
     -4.269269     44.657263     44.657263     89.314527
     -4.259259     46.930848     46.930848     93.861697
     -4.249249     48.190810     48.190810     96.381619
     -4.239239     47.807770     47.807770     95.615540
     -4.229229     45.458778     45.458778     90.917557
     -4.219219     41.312691     41.312691     82.625383
     -4.209209     36.037714     36.037714     72.075427
     -4.199199     30.612470     30.612470     61.224940
     -4.189189     26.015894     26.015894     52.031787
     -4.179179     22.928875     22.928875     45.857749
     -4.169169     21.570310     21.570310     43.140620
     -4.159159     21.721699     21.721699     43.443398
     -4.149149     22.907810     22.907810     45.815620
     -4.139139     24.638088     24.638088     49.276177
     -4.129129     26.596751     26.596751     53.193502
     -4.119119     28.699439     28.699439     57.398877
     -4.109109     30.997692     30.997692     61.995384
     -4.099099     33.487447     33.487447     66.974895
     -4.089089     35.933655     35.933655     71.867311
     -4.079079     37.827081     37.827081     75.654162
     -4.069069     38.526455     38.526455     77.052909
     -4.059059     37.533943     37.533943     75.067885
     -4.049049     34.765282     34.765282     69.530564
     -4.039039     30.667190     30.667190     61.334380
     -4.029029     26.114765     26.114765     52.229530
     -4.019019     22.140027     22.140027     44.280055
     -4.009009     19.623983     19.623983     39.247966
     -3.998999     19.083772     19.083772     38.167543
     -3.988989     20.617134     20.617134     41.234268
     -3.978979     23.981762     23.981762     47.963524
     -3.968969     28.737602     28.737602     57.475204
     -3.958959     34.382686     34.382686     68.765372
     -3.948949     40.448885     40.448885     80.897770
     -3.938939     46.558726     46.558726     93.117452
     -3.928929     52.454263     52.454263    104.908526
     -3.918919     57.996051     57.996051    115.992101
     -3.908909     63.118140     63.118140    126.236279
     -3.898899     67.736267     67.736267    135.472534
     -3.888889     71.639994     71.639994    143.279988
     -3.878879     74.429122     74.429122    148.858243
     -3.868869     75.550591     75.550591    151.101182
     -3.858859     74.447881     74.447881    148.895762
     -3.848849     70.774403     70.774403    141.548806
     -3.838839     64.582350     64.582350    129.164700
     -3.828829     56.402338     56.402338    112.804675
     -3.818819     47.173545     47.173545     94.347090
     -3.808809     38.043962     38.043962     76.087924
     -3.798799     30.107003     30.107003     60.214006
     -3.788789     24.157034     24.157034     48.314067
     -3.778779     20.532184     20.532184     41.064367
     -3.768769     19.080023     19.080023     38.160047
     -3.758759     19.245170     19.245170     38.490339
     -3.748749     20.248313     20.248313     40.496625
     -3.738739     21.308282     21.308282     42.616564
     -3.728729     21.852779     21.852779     43.705558
     -3.718719     21.667634     21.667634     43.335268
     -3.708709     20.947063     20.947063     41.894126
     -3.698699     20.227271     20.227271     40.454542
     -3.688689     20.212351     20.212351     40.424703
     -3.678679     21.532692     21.532692     43.065384
     -3.668669     24.505002     24.505002     49.010004
     -3.658659     28.976492     28.976492     57.952984
     -3.648649     34.319166     34.319166     68.638332
     -3.638639     39.589506     39.589506     79.179012
     -3.628629     43.800641     43.800641     87.601282
     -3.618619     46.202947     46.202947     92.405893
     -3.608609     46.467044     46.467044     92.934089
     -3.598599     44.714180     44.714180     89.428360
     -3.588589     41.411451     41.411451     82.822901
     -3.578579     37.198559     37.198559     74.397118
     -3.568569     32.715638     32.715638     65.431277
     -3.558559     28.472329     28.472329     56.944658
     -3.548549     24.769697     24.769697     49.539395
     -3.538539     21.677728     21.677728     43.355456
     -3.528529     19.072955     19.072955     38.145911
     -3.518519     16.732840     16.732840     33.465680
     -3.508509     14.460575     14.460575     28.921149
     -3.498498     12.193561     12.193561     24.387121
     -3.488488     10.051796     10.051796     20.103592
     -3.478478      8.310578      8.310578     16.621156
     -3.468468      7.315038      7.315038     14.630076
     -3.458458      7.370261      7.370261     14.740523
     -3.448448      8.636679      8.636679     17.273357
     -3.438438     11.051011     11.051011     22.102022
     -3.428428     14.292535     14.292535     28.585070
     -3.418418     17.819136     17.819136     35.638272
     -3.408408     20.989169     20.989169     41.978339
     -3.398398     23.251795     23.251795     46.503591
     -3.388388     24.343235     24.343235     48.686470
     -3.378378     24.402485     24.402485     48.804971
     -3.368368     23.943256     23.943256     47.886511
     -3.358358     23.682472     23.682472     47.364944
     -3.348348     24.291291     24.291291     48.582582
     -3.338338     26.162355     26.162355     52.324709
     -3.328328     29.267587     29.267587     58.535173
     -3.318318     33.138636     33.138636     66.277272
     -3.308308     36.968161     36.968161     73.936321
     -3.298298     39.812066     39.812066     79.624132
     -3.288288     40.854428     40.854428     81.708855
     -3.278278     39.666614     39.666614     79.333227
     -3.268268     36.367130     36.367130     72.734259
     -3.258258     31.602895     31.602895     63.205790
     -3.248248     26.339524     26.339524     52.679048
     -3.238238     21.537640     21.537640     43.075281
     -3.228228     17.849417     17.849417     35.698834
     -3.218218     15.458033     15.458033     30.916067
     -3.208208     14.111343     14.111343     28.222686
     -3.198198     13.312959     13.312959     26.625919
     -3.188188     12.574456     12.574456     25.148911
     -3.178178     11.623597     11.623597     23.247195
     -3.168168     10.499441     10.499441     20.998882
     -3.158158      9.520757      9.520757     19.041514
     -3.148148      9.160869      9.160869     18.321738
     -3.138138      9.881940      9.881940     19.763880
     -3.128128     11.976576     11.976576     23.953153
     -3.118118     15.450496     15.450496     30.900992
     -3.108108     19.971419     19.971419     39.942839
     -3.098098     24.905506     24.905506     49.811011
     -3.088088     29.449592     29.449592     58.899185
     -3.078078     32.835379     32.835379     65.670757
     -3.068068     34.541185     34.541185     69.082369
     -3.058058     34.426664     34.426664     68.853328
     -3.048048     32.730110     32.730110     65.460221
     -3.038038     29.932605     29.932605     59.865211
     -3.028028     26.561777     26.561777     53.123554
     -3.018018     23.035744     23.035744     46.071487
     -3.008008     19.615734     19.615734     39.231468
     -2.997998     16.466281     16.466281     32.932561
     -2.987988     13.761600     13.761600     27.523200
     -2.977978     11.761519     11.761519     23.523037
     -2.967968     10.810416     10.810416     21.620832
     -2.957958     11.259712     11.259712     22.519424
     -2.947948     13.348419     13.348419     26.696838
     -2.937938     17.086846     17.086846     34.173692
     -2.927928     22.183726     22.183726     44.367451
     -2.917918     28.046875     28.046875     56.093749
     -2.907908     33.872707     33.872707     67.745414
     -2.897898     38.815598     38.815598     77.631196
     -2.887888     42.195501     42.195501     84.391002
     -2.877878     43.674990     43.674990     87.349979
     -2.867868     43.334344     43.334344     86.668689
     -2.857858     41.606243     41.606243     83.212485
     -2.847848     39.090893     39.090893     78.181785
     -2.837838     36.329805     36.329805     72.659611
     -2.827828     33.638871     33.638871     67.277742
     -2.817818     31.072174     31.072174     62.144348
     -2.807808     28.519803     28.519803     57.039606
     -2.797798     25.873158     25.873158     51.746317
     -2.787788     23.159873     23.159873     46.319747
     -2.777778     20.575170     20.575170     41.150340
     -2.767768     18.401578     18.401578     36.803156
     -2.757758     16.875185     16.875185     33.750370
     -2.747748     16.084642     16.084642     32.169284
     -2.737738     15.962837     15.962837     31.925674
     -2.727728     16.367410     16.367410     32.734820
     -2.717718     17.186245     17.186245     34.372491
     -2.707708     18.388281     18.388281     36.776562
     -2.697698     19.981382     19.981382     39.962763
     -2.687688     21.910950     21.910950     43.821900
     -2.677678     23.983907     23.983907     47.967814
     -2.667668     25.892182     25.892182     51.784365
     -2.657658     27.340634     27.340634     54.681268
     -2.647648     28.204487     28.204487     56.408974
     -2.637638     28.610947     28.610947     57.221894
     -2.627628     28.884119     28.884119     57.768238
     -2.617618     29.380979     29.380979     58.761958
     -2.607608     30.314370     30.314370     60.628739
     -2.597598     31.658954     31.658954     63.317907
     -2.587588     33.173545     33.173545     66.347089
     -2.577578     34.500483     34.500483     69.000966
     -2.567568     35.273480     35.273480     70.546960
     -2.557558     35.191716     35.191716     70.383431
     -2.547548     34.065381     34.065381     68.130762
     -2.537538     31.859960     31.859960     63.719920
     -2.527528     28.747056     28.747056     57.494111
     -2.517518     25.132957     25.132957     50.265913
     -2.507508     21.621391     21.621391     43.242782
     -2.497497     18.891314     18.891314     37.782629
     -2.487487     17.517646     17.517646     35.035292
     -2.477477     17.799961     17.799961     35.599923
     -2.467467     19.669062     19.669062     39.338124
     -2.457457     22.713438     22.713438     45.426877
     -2.447447     26.321198     26.321198     52.642395
     -2.437437     29.886463     29.886463     59.772926
     -2.427427     32.999577     32.999577     65.999153
     -2.417417     35.541210     35.541210     71.082419
     -2.407407     37.636601     37.636601     75.273201
     -2.397397     39.487801     39.487801     78.975602
     -2.387387     41.163835     41.163835     82.327670
     -2.377377     42.459339     42.459339     84.918678
     -2.367367     42.908738     42.908738     85.817476
     -2.357357     41.968108     41.968108     83.936215
     -2.347347     39.285335     39.285335     78.570669
     -2.337337     34.924119     34.924119     69.848238
     -2.327327     29.426547     29.426547     58.853094
     -2.317317     23.683970     23.683970     47.367939
     -2.307307     18.683509     18.683509     37.367018
     -2.297297     15.247560     15.247560     30.495120
     -2.287287     13.863594     13.863594     27.727187
     -2.277277     14.637783     14.637783     29.275566
     -2.267267     17.346118     17.346118     34.692236
     -2.257257     21.531553     21.531553     43.063106
     -2.247247     26.604234     26.604234     53.208467
     -2.237237     31.924042     31.924042     63.848084
     -2.227227     36.863005     36.863005     73.726010
     -2.217217     40.854212     40.854212     81.708424
     -2.207207     43.436509     43.436509     86.873018
     -2.197197     44.302702     44.302702     88.605404
     -2.187187     43.351883     43.351883     86.703766
     -2.177177     40.732568     40.732568     81.465137
     -2.167167     36.848559     36.848559     73.697117
     -2.157157     32.297817     32.297817     64.595634
     -2.147147     27.738090     27.738090     55.476181
     -2.137137     23.715715     23.715715     47.431429
     -2.127127     20.528847     20.528847     41.057694
     -2.117117     18.192376     18.192376     36.384753
     -2.107107     16.521755     16.521755     33.043509
     -2.097097     15.285380     15.285380     30.570760
     -2.087087     14.335737     14.335737     28.671473
     -2.077077     13.647006     13.647006     27.294011
     -2.067067     13.250220     13.250220     26.500440
     -2.057057     13.123307     13.123307     26.246615
     -2.047047     13.118684     13.118684     26.237368
     -2.037037     12.981177     12.981177     25.962353
     -2.027027     12.447116     12.447116     24.894233
     -2.017017     11.364072     11.364072     22.728144
     -2.007007      9.761863      9.761863     19.523726
     -1.996997      7.840366      7.840366     15.680733
     -1.986987      5.890730      5.890730     11.781459
     -1.976977      4.199780      4.199780      8.399561
     -1.966967      2.985415      2.985415      5.970830
     -1.956957      2.381679      2.381679      4.763358
     -1.946947      2.459158      2.459158      4.918316
     -1.936937      3.249550      3.249550      6.499101
     -1.926927      4.749195      4.749195      9.498391
     -1.916917      6.897102      6.897102     13.794205
     -1.906907      9.544437      9.544437     19.088873
     -1.896897     12.441676     12.441676     24.883352
     -1.886887     15.262115     15.262115     30.524229
     -1.876877     17.661573     17.661573     35.323147
     -1.866867     19.356072     19.356072     38.712145
     -1.856857     20.191533     20.191533     40.383067
     -1.846847     20.182974     20.182974     40.365948
     -1.836837     19.509145     19.509145     39.018290
     -1.826827     18.458278     18.458278     36.916557
     -1.816817     17.333950     17.333950     34.667899
     -1.806807     16.348742     16.348742     32.697484
     -1.796797     15.548980     15.548980     31.097959
     -1.786787     14.810136     14.810136     29.620271
     -1.776777     13.911965     13.911965     27.823930
     -1.766767     12.659061     12.659061     25.318122
     -1.756757     10.985436     10.985436     21.970871
     -1.746747      8.991732      8.991732     17.983464
     -1.736737      6.904679      6.904679     13.809358
     -1.726727      4.991712      4.991712      9.983424
     -1.716717      3.481111      3.481111      6.962223
     -1.706707      2.522451      2.522451      5.044902
     -1.696697      2.189344      2.189344      4.378689
     -1.686687      2.500125      2.500125      5.000251
     -1.676677      3.427144      3.427144      6.854288
     -1.666667      4.881522      4.881522      9.763045
     -1.656657      6.685419      6.685419     13.370838
     -1.646647      8.561903      8.561903     17.123806
     -1.636637     10.170989     10.170989     20.341978
     -1.626627     11.197432     11.197432     22.394864
