# EIG2DOS: Utility for SIESTA to obtain the electronic density of states
#  E. Artacho, Apr 1999, A. Garcia, Apr 2012
#  Nick R. Papior, Feb 2017
# ------------------------------------------
# Eigenvalues calculated from a non-polarized calculation
# Eigenvalues read from siesta.EIG
# Kpoint weights read from siesta.KP
# Using smearing parameter:   0.0500
# Using 1000 points in the energy range
# Selected bands: 1 to: 2981
# Emin, Emax in file for selected band(s):    -27.1602971    218.3532160
# Nbands, Nspin, Nk   =   2981     1     1
# E_F                 =    -4.2554 eV --> (shifted to ZERO)
# Broadening          =     0.0500 eV
#
#        E            N(up)  (=)   N(down)         Ntot
     -5.000000     32.279392     32.279392     64.558783
     -4.989990     36.209753     36.209753     72.419506
     -4.979980     39.823896     39.823896     79.647792
     -4.969970     42.590699     42.590699     85.181398
     -4.959960     44.045038     44.045038     88.090077
     -4.949950     43.928226     43.928226     87.856451
     -4.939940     42.280639     42.280639     84.561278
     -4.929930     39.456560     39.456560     78.913119
     -4.919920     36.068522     36.068522     72.137045
     -4.909910     32.890085     32.890085     65.780170
     -4.899900     30.739070     30.739070     61.478141
     -4.889890     30.340456     30.340456     60.680912
     -4.879880     32.159424     32.159424     64.318847
     -4.869870     36.221799     36.221799     72.443597
     -4.859860     41.988302     41.988302     83.976605
     -4.849850     48.376337     48.376337     96.752673
     -4.839840     53.986924     53.986924    107.973847
     -4.829830     57.496855     57.496855    114.993711
     -4.819820     58.072198     58.072198    116.144395
     -4.809810     55.622637     55.622637    111.245274
     -4.799800     50.782480     50.782480    101.564960
     -4.789790     44.638837     44.638837     89.277674
     -4.779780     38.346932     38.346932     76.693863
     -4.769770     32.804811     32.804811     65.609623
     -4.759760     28.496515     28.496515     56.993030
     -4.749750     25.508774     25.508774     51.017548
     -4.739740     23.650938     23.650938     47.301876
     -4.729730     22.593851     22.593851     45.187702
     -4.719720     21.975282     21.975282     43.950564
     -4.709710     21.460868     21.460868     42.921736
     -4.699700     20.775647     20.775647     41.551294
     -4.689690     19.728036     19.728036     39.456073
     -4.679680     18.241174     18.241174     36.482349
     -4.669670     16.391894     16.391894     32.783788
     -4.659660     14.441768     14.441768     28.883535
     -4.649650     12.836263     12.836263     25.672525
     -4.639640     12.152600     12.152600     24.305200
     -4.629630     12.991847     12.991847     25.983694
     -4.619620     15.828911     15.828911     31.657823
     -4.609610     20.851178     20.851178     41.702356
     -4.599600     27.831900     27.831900     55.663801
     -4.589590     36.092972     36.092972     72.185944
     -4.579580     44.600286     44.600286     89.200571
     -4.569570     52.193509     52.193509    104.387017
     -4.559560     57.890891     57.890891    115.781782
     -4.549550     61.161298     61.161298    122.322595
     -4.539540     62.054357     62.054357    124.108713
     -4.529530     61.133916     61.133916    122.267833
     -4.519520     59.243218     59.243218    118.486436
     -4.509510     57.198549     57.198549    114.397099
     -4.499499     55.529600     55.529600    111.059201
     -4.489489     54.355087     54.355087    108.710173
     -4.479479     53.421041     53.421041    106.842082
     -4.469469     52.265100     52.265100    104.530200
     -4.459459     50.428204     50.428204    100.856407
     -4.449449     47.629348     47.629348     95.258696
     -4.439439     43.848601     43.848601     87.697201
     -4.429429     39.312107     39.312107     78.624213
     -4.419419     34.414725     34.414725     68.829450
     -4.409409     29.629503     29.629503     59.259005
     -4.399399     25.434889     25.434889     50.869778
     -4.389389     22.258667     22.258667     44.517334
     -4.379379     20.419514     20.419514     40.839029
     -4.369369     20.058100     20.058100     40.116199
     -4.359359     21.079061     21.079061     42.158123
     -4.349349     23.145046     23.145046     46.290092
     -4.339339     25.752184     25.752184     51.504368
     -4.329329     28.376291     28.376291     56.752581
     -4.319319     30.637140     30.637140     61.274281
     -4.309309     32.412684     32.412684     64.825369
     -4.299299     33.854957     33.854957     67.709913
     -4.289289     35.300051     35.300051     70.600101
     -4.279279     37.103250     37.103250     74.206499
     -4.269269     39.454170     39.454170     78.908340
     -4.259259     42.235891     42.235891     84.471783
     -4.249249     44.988269     44.988269     89.976539
     -4.239239     47.012358     47.012358     94.024717
     -4.229229     47.602672     47.602672     95.205345
     -4.219219     46.328098     46.328098     92.656197
     -4.209209     43.237448     43.237448     86.474897
     -4.199199     38.881943     38.881943     77.763885
     -4.189189     34.130588     34.130588     68.261177
     -4.179179     29.861737     29.861737     59.723474
     -4.169169     26.677924     26.677924     53.355848
     -4.159159     24.771070     24.771070     49.542140
     -4.149149     23.977839     23.977839     47.955678
     -4.139139     23.967927     23.967927     47.935855
     -4.129129     24.454818     24.454818     48.909636
     -4.119119     25.325838     25.325838     50.651676
     -4.109109     26.638377     26.638377     53.276754
     -4.099099     28.493744     28.493744     56.987489
     -4.089089     30.857277     30.857277     61.714553
     -4.079079     33.425267     33.425267     66.850534
     -4.069069     35.628158     35.628158     71.256315
     -4.059059     36.797923     36.797923     73.595845
     -4.049049     36.437353     36.437353     72.874707
     -4.039039     34.460654     34.460654     68.921308
     -4.029029     31.277208     31.277208     62.554417
     -4.019019     27.670380     27.670380     55.340760
     -4.009009     24.533427     24.533427     49.066854
     -3.998999     22.595036     22.595036     45.190071
     -3.988989     22.255544     22.255544     44.511089
     -3.978979     23.576678     23.576678     47.153356
     -3.968969     26.380026     26.380026     52.760052
     -3.958959     30.368862     30.368862     60.737725
     -3.948949     35.210343     35.210343     70.420686
     -3.938939     40.570365     40.570365     81.140729
     -3.928929     46.132754     46.132754     92.265507
     -3.918919     51.629984     51.629984    103.259968
     -3.908909     56.876701     56.876701    113.753401
     -3.898899     61.768708     61.768708    123.537415
     -3.888889     66.219282     66.219282    132.438564
     -3.878879     70.049031     70.049031    140.098062
     -3.868869     72.892268     72.892268    145.784536
     -3.858859     74.195223     74.195223    148.390445
     -3.848849     73.344690     73.344690    146.689379
     -3.838839     69.896785     69.896785    139.793570
     -3.828829     63.812657     63.812657    127.625314
     -3.818819     55.588800     55.588800    111.177601
     -3.808809     46.208555     46.208555     92.417110
     -3.798799     36.919666     36.919666     73.839333
     -3.788789     28.918501     28.918501     57.837003
     -3.778779     23.055619     23.055619     46.111239
     -3.768769     19.657904     19.657904     39.315808
     -3.758759     18.508384     18.508384     37.016768
     -3.748749     18.968606     18.968606     37.937212
     -3.738739     20.192843     20.192843     40.385687
     -3.728729     21.372175     21.372175     42.744351
     -3.718719     21.950521     21.950521     43.901042
     -3.708709     21.764986     21.764986     43.529972
     -3.698699     21.076801     21.076801     42.153602
     -3.688689     20.479220     20.479220     40.958441
     -3.678679     20.697397     20.697397     41.394794
     -3.668669     22.329636     22.329636     44.659271
     -3.658659     25.609199     25.609199     51.218397
     -3.648649     30.274210     30.274210     60.548419
     -3.638639     35.605517     35.605517     71.211034
     -3.628629     40.629529     40.629529     81.259059
     -3.618619     44.410364     44.410364     88.820729
     -3.608609     46.314004     46.314004     92.628007
     -3.598599     46.145065     46.145065     92.290129
     -3.588589     44.125158     44.125158     88.250315
     -3.578579     40.756028     40.756028     81.512056
     -3.568569     36.645181     36.645181     73.290363
     -3.558559     32.355905     32.355905     64.711810
     -3.548549     28.305954     28.305954     56.611908
     -3.538539     24.715476     24.715476     49.430952
     -3.528529     21.604422     21.604422     43.208843
     -3.518519     18.843623     18.843623     37.687247
     -3.508509     16.251628     16.251628     32.503255
     -3.498498     13.704723     13.704723     27.409445
     -3.488488     11.213597     11.213597     22.427195
     -3.478478      8.933616      8.933616     17.867231
     -3.468468      7.109252      7.109252     14.218503
     -3.458458      5.982665      5.982665     11.965330
     -3.448448      5.704239      5.704239     11.408478
     -3.438438      6.272256      6.272256     12.544511
     -3.428428      7.515146      7.515146     15.030292
     -3.418418      9.122357      9.122357     18.244714
     -3.408408     10.723990     10.723990     21.447980
     -3.398398     12.005275     12.005275     24.010550
     -3.388388     12.820778     12.820778     25.641555
     -3.378378     13.260598     13.260598     26.521195
     -3.368368     13.633232     13.633232     27.266464
     -3.358358     14.366409     14.366409     28.732818
     -3.348348     15.865899     15.865899     31.731797
     -3.338338     18.386221     18.386221     36.772443
     -3.328328     21.948561     21.948561     43.897123
     -3.318318     26.309610     26.309610     52.619219
     -3.308308     30.970245     30.970245     61.940490
     -3.298298     35.225524     35.225524     70.451047
     -3.288288     38.275930     38.275930     76.551860
     -3.278278     39.410408     39.410408     78.820817
     -3.268268     38.225319     38.225319     76.450639
     -3.258258     34.793116     34.793116     69.586232
     -3.248248     29.689526     29.689526     59.379052
     -3.238238     23.846551     23.846551     47.693103
     -3.228228     18.285603     18.285603     36.571206
     -3.218218     13.840786     13.840786     27.681572
     -3.208208     10.973238     10.973238     21.946476
     -3.198198      9.720959      9.720959     19.441919
     -3.188188      9.770214      9.770214     19.540427
     -3.178178     10.605612     10.605612     21.211224
     -3.168168     11.693734     11.693734     23.387468
     -3.158158     12.658776     12.658776     25.317552
     -3.148148     13.407016     13.407016     26.814033
     -3.138138     14.158525     14.158525     28.317050
     -3.128128     15.364070     15.364070     30.728140
     -3.118118     17.523970     17.523970     35.047940
     -3.108108     20.967201     20.967201     41.934402
     -3.098098     25.671321     25.671321     51.342641
     -3.088088     31.194310     31.194310     62.388620
     -3.078078     36.751142     36.751142     73.502284
     -3.068068     41.414807     41.414807     82.829615
     -3.058058     44.372911     44.372911     88.745822
     -3.048048     45.146540     45.146540     90.293081
     -3.038038     43.692047     43.692047     87.384094
     -3.028028     40.357375     40.357375     80.714750
     -3.018018     35.730041     35.730041     71.460081
     -3.008008     30.458336     30.458336     60.916672
     -2.997998     25.125168     25.125168     50.250336
     -2.987988     20.209151     20.209151     40.418302
     -2.977978     16.111835     16.111835     32.223670
     -2.967968     13.198265     13.198265     26.396531
     -2.957958     11.803476     11.803476     23.606953
     -2.947948     12.187077     12.187077     24.374153
     -2.937938     14.449728     14.449728     28.899457
     -2.927928     18.445823     18.445823     36.891647
     -2.917918     23.734195     23.734195     47.468390
     -2.907908     29.603716     29.603716     59.207432
     -2.897898     35.190525     35.190525     70.381050
     -2.887888     39.668520     39.668520     79.337041
     -2.877878     42.456064     42.456064     84.912127
     -2.867868     43.360882     43.360882     86.721763
     -2.857858     42.599722     42.599722     85.199444
     -2.847848     40.678895     40.678895     81.357791
     -2.837838     38.184174     38.184174     76.368348
     -2.827828     35.571177     35.571177     71.142354
     -2.817818     33.046373     33.046373     66.092746
     -2.807808     30.582990     30.582990     61.165979
     -2.797798     28.048353     28.048353     56.096705
     -2.787788     25.364784     25.364784     50.729567
     -2.777778     22.614002     22.614002     45.228003
     -2.767768     20.031327     20.031327     40.062654
     -2.757758     17.900754     17.900754     35.801508
     -2.747748     16.418835     16.418835     32.837671
     -2.737738     15.611704     15.611704     31.223407
     -2.727728     15.355207     15.355207     30.710414
     -2.717718     15.482661     15.482661     30.965321
     -2.707708     15.907722     15.907722     31.815443
     -2.697698     16.678254     16.678254     33.356508
     -2.687688     17.920945     17.920945     35.841890
     -2.677678     19.710035     19.710035     39.420069
     -2.667668     21.948927     21.948927     43.897853
     -2.657658     24.351319     24.351319     48.702638
     -2.647648     26.546245     26.546245     53.092491
     -2.637638     28.248574     28.248574     56.497148
     -2.627628     29.389979     29.389979     58.779958
     -2.617618     30.129484     30.129484     60.258969
     -2.607608     30.741554     30.741554     61.483107
     -2.597598     31.456848     31.456848     62.913697
     -2.587588     32.351038     32.351038     64.702076
     -2.577578     33.330308     33.330308     66.660616
     -2.567568     34.190864     34.190864     68.381727
     -2.557558     34.691936     34.691936     69.383873
     -2.547548     34.601792     34.601792     69.203583
     -2.537538     33.725466     33.725466     67.450932
     -2.527528     31.949663     31.949663     63.899326
     -2.517518     29.318230     29.318230     58.636460
     -2.507508     26.103333     26.103333     52.206666
     -2.497497     22.810617     22.810617     45.621234
     -2.487487     20.079872     20.079872     40.159743
     -2.477477     18.501875     18.501875     37.003750
     -2.467467     18.425683     18.425683     36.851366
     -2.457457     19.843976     19.843976     39.687952
     -2.447447     22.411005     22.411005     44.822009
     -2.437437     25.587363     25.587363     51.174725
     -2.427427     28.847645     28.847645     57.695290
     -2.417417     31.857097     31.857097     63.714193
     -2.407407     34.536371     34.536371     69.072742
     -2.397397     36.986258     36.986258     73.972517
     -2.387387     39.313740     39.313740     78.627481
     -2.377377     41.452709     41.452709     82.905418
     -2.367367     43.079354     43.079354     86.158707
     -2.357357     43.677999     43.677999     87.355998
     -2.347347     42.738541     42.738541     85.477083
     -2.337337     39.998494     39.998494     79.996988
     -2.327327     35.616387     35.616387     71.232774
     -2.317317     30.193811     30.193811     60.387622
     -2.307307     24.634847     24.634847     49.269694
     -2.297297     19.904646     19.904646     39.809293
     -2.287287     16.784686     16.784686     33.569372
     -2.277277     15.707649     15.707649     31.415299
     -2.267267     16.707832     16.707832     33.415664
     -2.257257     19.474932     19.474932     38.949863
     -2.247247     23.471290     23.471290     46.942579
     -2.237237     28.066969     28.066969     56.133938
     -2.227227     32.654695     32.654695     65.309391
     -2.217217     36.720771     36.720771     73.441542
     -2.207207     39.867241     39.867241     79.734481
     -2.197197     41.802295     41.802295     83.604590
     -2.187187     42.330916     42.330916     84.661833
     -2.177177     41.373523     41.373523     82.747047
     -2.167167     39.013218     39.013218     78.026437
     -2.157157     35.536711     35.536711     71.073421
     -2.147147     31.417705     31.417705     62.835411
     -2.137137     27.214602     27.214602     54.429204
     -2.127127     23.408397     23.408397     46.816795
     -2.117117     20.255163     20.255163     40.510325
     -2.107107     17.731709     17.731709     35.463418
     -2.097097     15.604564     15.604564     31.209129
     -2.087087     13.582321     13.582321     27.164643
     -2.077077     11.467410     11.467410     22.934820
     -2.067067      9.232910      9.232910     18.465821
     -2.057057      7.001667      7.001667     14.003333
     -2.047047      4.960413      4.960413      9.920827
     -2.037037      3.266768      3.266768      6.533536
     -2.027027      1.994216      1.994216      3.988432
     -2.017017      1.127529      1.127529      2.255057
     -2.007007      0.593166      0.593166      1.186333
     -1.996997      0.299764      0.299764      0.599528
     -1.986987      0.170605      0.170605      0.341211
     -1.976977      0.162456      0.162456      0.324911
     -1.966967      0.273800      0.273800      0.547601
     -1.956957      0.547101      0.547101      1.094203
     -1.946947      1.065924      1.065924      2.131847
     -1.936937      1.943108      1.943108      3.886216
     -1.926927      3.294966      3.294966      6.589932
     -1.916917      5.201398      5.201398     10.402796
     -1.906907      7.661723      7.661723     15.323447
     -1.896897     10.565084     10.565084     21.130167
     -1.886887     13.694760     13.694760     27.389521
     -1.876877     16.773748     16.773748     33.547495
     -1.866867     19.538964     19.538964     39.077927
     -1.856857     21.814908     21.814908     43.629815
     -1.846847     23.554548     23.554548     47.109096
     -1.836837     24.827824     24.827824     49.655648
     -1.826827     25.760127     25.760127     51.520255
     -1.816817     26.445240     26.445240     52.890480
     -1.806807     26.871165     26.871165     53.742330
     -1.796797     26.896508     26.896508     53.793016
     -1.786787     26.296071     26.296071     52.592142
     -1.776777     24.861777     24.861777     49.723554
     -1.766767     22.514334     22.514334     45.028668
     -1.756757     19.371273     19.371273     38.742546
     -1.746747     15.737125     15.737125     31.474249
     -1.736737     12.021190     12.021190     24.042380
     -1.726727      8.624047      8.624047     17.248094
     -1.716717      5.844822      5.844822     11.689644
     -1.706707      3.843552      3.843552      7.687104
     -1.696697      2.660105      2.660105      5.320210
     -1.686687      2.263030      2.263030      4.526059
     -1.676677      2.592000      2.592000      5.184001
     -1.666667      3.568184      3.568184      7.136368
     -1.656657      5.070371      5.070371     10.140742
     -1.646647      6.899123      6.899123     13.798247
     -1.636637      8.764036      8.764036     17.528072
     -1.626627     10.321973     10.321973     20.643946
