# EIG2DOS: Utility for SIESTA to obtain the electronic density of states
#  E. Artacho, Apr 1999, A. Garcia, Apr 2012
#  Nick R. Papior, Feb 2017
# ------------------------------------------
# Eigenvalues calculated from a non-polarized calculation
# Eigenvalues read from siesta.EIG
# Kpoint weights read from siesta.KP
# Using smearing parameter:   0.0500
# Using 1000 points in the energy range
# Selected bands: 1 to: 2981
# Emin, Emax in file for selected band(s):    -27.1106913    218.3404960
# Nbands, Nspin, Nk   =   2981     1     1
# E_F                 =    -4.2634 eV --> (shifted to ZERO)
# Broadening          =     0.0500 eV
#
#        E            N(up)  (=)   N(down)         Ntot
     -5.000000     36.328343     36.328343     72.656685
     -4.989990     39.457027     39.457027     78.914054
     -4.979980     41.770606     41.770606     83.541213
     -4.969970     42.928551     42.928551     85.857102
     -4.959960     42.767798     42.767798     85.535597
     -4.949950     41.340978     41.340978     82.681956
     -4.939940     38.912796     38.912796     77.825591
     -4.929930     35.927277     35.927277     71.854553
     -4.919920     32.963466     32.963466     65.926932
     -4.909910     30.684279     30.684279     61.368558
     -4.899900     29.761810     29.761810     59.523620
     -4.889890     30.752852     30.752852     61.505705
     -4.879880     33.920356     33.920356     67.840713
     -4.869870     39.049044     39.049044     78.098088
     -4.859860     45.353730     45.353730     90.707461
     -4.849850     51.578739     51.578739    103.157477
     -4.839840     56.311972     56.311972    112.623943
     -4.829830     58.418499     58.418499    116.836998
     -4.819820     57.411102     57.411102    114.822204
     -4.809810     53.586177     53.586177    107.172353
     -4.799800     47.866645     47.866645     95.733289
     -4.789790     41.440725     41.440725     82.881450
     -4.779780     35.374058     35.374058     70.748116
     -4.769770     30.354698     30.354698     60.709396
     -4.759760     26.633218     26.633218     53.266436
     -4.749750     24.116818     24.116818     48.233636
     -4.739740     22.525945     22.525945     45.051890
     -4.729730     21.532975     21.532975     43.065950
     -4.719720     20.844310     20.844310     41.688621
     -4.709710     20.226639     20.226639     40.453278
     -4.699700     19.501476     19.501476     39.002951
     -4.689690     18.539941     18.539941     37.079882
     -4.679680     17.282932     17.282932     34.565865
     -4.669670     15.790797     15.790797     31.581594
     -4.659660     14.299295     14.299295     28.598589
     -4.649650     13.241049     13.241049     26.482098
     -4.639640     13.196008     13.196008     26.392016
     -4.629630     14.759207     14.759207     29.518414
     -4.619620     18.347993     18.347993     36.695985
     -4.609610     24.002837     24.002837     48.005675
     -4.599600     31.257563     31.257563     62.515125
     -4.589590     39.154757     39.154757     78.309513
     -4.579580     46.446352     46.446352     92.892705
     -4.569570     51.946526     51.946526    103.893051
     -4.559560     54.921377     54.921377    109.842755
     -4.549550     55.355495     55.355495    110.710991
     -4.539540     53.966849     53.966849    107.933699
     -4.529530     51.943644     51.943644    103.887288
     -4.519520     50.500541     50.500541    101.001083
     -4.509510     50.433366     50.433366    100.866731
     -4.499499     51.850551     51.850551    103.701102
     -4.489489     54.178720     54.178720    108.357439
     -4.479479     56.419719     56.419719    112.839439
     -4.469469     57.534471     57.534471    115.068941
     -4.459459     56.791218     56.791218    113.582436
     -4.449449     53.954797     53.954797    107.909595
     -4.439439     49.282087     49.282087     98.564174
     -4.429429     43.376299     43.376299     86.752597
     -4.419419     36.995059     36.995059     73.990118
     -4.409409     30.891664     30.891664     61.783327
     -4.399399     25.717777     25.717777     51.435553
     -4.389389     21.968679     21.968679     43.937359
     -4.379379     19.938667     19.938667     39.877333
     -4.369369     19.676209     19.676209     39.352417
     -4.359359     20.961679     20.961679     41.923358
     -4.349349     23.343788     23.343788     46.687577
     -4.339339     26.250094     26.250094     52.500188
     -4.329329     29.145082     29.145082     58.290165
     -4.319319     31.676283     31.676283     63.352566
     -4.309309     33.748706     33.748706     67.497411
     -4.299299     35.500502     35.500502     71.001005
     -4.289289     37.195660     37.195660     74.391321
     -4.279279     39.077361     39.077361     78.154722
     -4.269269     41.230523     41.230523     82.461046
     -4.259259     43.494753     43.494753     86.989505
     -4.249249     45.460953     45.460953     90.921905
     -4.239239     46.571821     46.571821     93.143643
     -4.229229     46.314272     46.314272     92.628545
     -4.219219     44.441303     44.441303     88.882605
     -4.209209     41.121968     41.121968     82.243937
     -4.199199     36.930688     36.930688     73.861377
     -4.189189     32.661047     32.661047     65.322094
     -4.179179     29.045340     29.045340     58.090681
     -4.169169     26.515883     26.515883     53.031766
     -4.159159     25.119975     25.119975     50.239951
     -4.149149     24.614429     24.614429     49.228858
     -4.139139     24.672655     24.672655     49.345310
     -4.129129     25.088074     25.088074     50.176149
     -4.119119     25.869145     25.869145     51.738290
     -4.109109     27.179680     27.179680     54.359360
     -4.099099     29.155881     29.155881     58.311763
     -4.089089     31.698667     31.698667     63.397333
     -4.079079     34.365640     34.365640     68.731280
     -4.069069     36.448939     36.448939     72.897878
     -4.059059     37.229403     37.229403     74.458806
     -4.049049     36.291581     36.291581     72.583163
     -4.039039     33.735657     33.735657     67.471313
     -4.029029     30.170970     30.170970     60.341940
     -4.019019     26.496407     26.496407     52.992814
     -4.009009     23.588116     23.588116     47.176232
     -3.998999     22.051221     22.051221     44.102441
     -3.988989     22.132838     22.132838     44.265676
     -3.978979     23.787877     23.787877     47.575753
     -3.968969     26.810763     26.810763     53.621525
     -3.958959     30.940261     30.940261     61.880521
     -3.948949     35.899295     35.899295     71.798590
     -3.938939     41.395030     41.395030     82.790059
     -3.928929     47.127143     47.127143     94.254287
     -3.918919     52.824234     52.824234    105.648469
     -3.908909     58.281972     58.281972    116.563944
     -3.898899     63.356578     63.356578    126.713157
     -3.888889     67.893191     67.893191    135.786382
     -3.878879     71.621754     71.621754    143.243507
     -3.868869     74.092746     74.092746    148.185492
     -3.858859     74.720028     74.720028    149.440056
     -3.848849     72.946676     72.946676    145.893353
     -3.838839     68.479600     68.479600    136.959199
     -3.828829     61.489889     61.489889    122.979778
     -3.818819     52.677850     52.677850    105.355700
     -3.808809     43.156502     43.156502     86.313003
     -3.798799     34.187006     34.187006     68.374013
     -3.788789     26.862026     26.862026     53.724052
     -3.778779     21.848161     21.848161     43.696322
     -3.768769     19.265312     19.265312     38.530625
     -3.758759     18.723523     18.723523     37.447046
     -3.748749     19.486786     19.486786     38.973572
     -3.738739     20.705569     20.705569     41.411137
     -3.728729     21.654823     21.654823     43.309645
     -3.718719     21.922498     21.922498     43.844997
     -3.708709     21.507132     21.507132     43.014264
     -3.698699     20.800165     20.800165     41.600331
     -3.688689     20.451518     20.451518     40.903037
     -3.678679     21.146687     21.146687     42.293373
     -3.668669     23.355478     23.355478     46.710956
     -3.658659     27.133954     27.133954     54.267909
     -3.648649     32.056120     32.056120     64.112240
     -3.638639     37.311414     37.311414     74.622828
     -3.628629     41.938220     41.938220     83.876440
     -3.618619     45.103367     45.103367     90.206734
     -3.608609     46.318739     46.318739     92.637479
     -3.598599     45.522555     45.522555     91.045109
     -3.588589     43.021888     43.021888     86.043775
     -3.578579     39.350208     39.350208     78.700415
     -3.568569     35.107611     35.107611     70.215223
     -3.558559     30.827679     30.827679     61.655357
     -3.548549     26.885410     26.885410     53.770819
     -3.538539     23.450321     23.450321     46.900641
     -3.528529     20.493313     20.493313     40.986626
     -3.518519     17.853006     17.853006     35.706012
     -3.508509     15.345447     15.345447     30.690894
     -3.498498     12.874590     12.874590     25.749181
     -3.488488     10.494619     10.494619     20.989238
     -3.478478      8.398402      8.398402     16.796804
     -3.468468      6.843280      6.843280     13.686559
     -3.458458      6.050753      6.050753     12.101505
     -3.448448      6.118765      6.118765     12.237531
     -3.438438      6.972389      6.972389     13.944779
     -3.428428      8.365548      8.365548     16.731097
     -3.418418      9.937773      9.937773     19.875545
     -3.408408     11.318952     11.318952     22.637904
     -3.398398     12.256193     12.256193     24.512386
     -3.388388     12.717901     12.717901     25.435802
     -3.378378     12.928022     12.928022     25.856045
     -3.368368     13.307647     13.307647     26.615294
     -3.358358     14.341540     14.341540     28.683080
     -3.348348     16.418818     16.418818     32.837636
     -3.338338     19.700667     19.700667     39.401335
     -3.328328     24.046445     24.046445     48.092890
     -3.318318     29.004333     29.004333     58.008666
     -3.308308     33.863680     33.863680     67.727360
     -3.298298     37.771236     37.771236     75.542473
     -3.288288     39.910828     39.910828     79.821655
     -3.278278     39.718607     39.718607     79.437214
     -3.268268     37.065864     37.065864     74.131728
     -3.258258     32.325591     32.325591     64.651182
     -3.248248     26.275912     26.275912     52.551824
     -3.238238     19.870401     19.870401     39.740802
     -3.228228     13.973058     13.973058     27.946116
     -3.218218      9.168005      9.168005     18.336010
     -3.208208      5.705452      5.705452     11.410905
     -3.198198      3.572441      3.572441      7.144882
     -3.188188      2.625108      2.625108      5.250215
     -3.178178      2.710794      2.710794      5.421588
     -3.168168      3.734541      3.734541      7.469083
     -3.158158      5.661842      5.661842     11.323684
     -3.148148      8.478227      8.478227     16.956455
     -3.138138     12.137652     12.137652     24.275303
     -3.128128     16.525987     16.525987     33.051973
     -3.118118     21.449648     21.449648     42.899295
     -3.108108     26.643286     26.643286     53.286572
     -3.098098     31.785324     31.785324     63.570647
     -3.088088     36.517959     36.517959     73.035918
     -3.078078     40.478635     40.478635     80.957269
     -3.068068     43.348263     43.348263     86.696526
     -3.058058     44.905367     44.905367     89.810733
     -3.048048     45.060307     45.060307     90.120614
     -3.038038     43.849586     43.849586     87.699172
     -3.028028     41.397725     41.397725     82.795450
     -3.018018     37.880525     37.880525     75.761050
     -3.008008     33.522359     33.522359     67.044718
     -2.997998     28.629407     28.629407     57.258815
     -2.987988     23.626147     23.626147     47.252294
     -2.977978     19.053467     19.053467     38.106935
     -2.967968     15.509106     15.509106     31.018212
     -2.957958     13.543778     13.543778     27.087556
     -2.947948     13.544604     13.544604     27.089208
     -2.937938     15.635371     15.635371     31.270741
     -2.927928     19.613826     19.613826     39.227652
     -2.917918     24.943072     24.943072     49.886144
     -2.907908     30.815018     30.815018     61.630037
     -2.897898     36.294647     36.294647     72.589293
     -2.887888     40.525749     40.525749     81.051498
     -2.877878     42.941758     42.941758     85.883516
     -2.867868     43.403909     43.403909     86.807819
     -2.857858     42.204377     42.204377     84.408754
     -2.847848     39.924504     39.924504     79.849008
     -2.837838     37.203731     37.203731     74.407462
     -2.827828     34.518039     34.518039     69.036078
     -2.817818     32.062147     32.062147     64.124294
     -2.807808     29.777367     29.777367     59.554734
     -2.797798     27.493738     27.493738     54.987477
     -2.787788     25.100013     25.100013     50.200026
     -2.777778     22.647900     22.647900     45.295800
     -2.767768     20.340933     20.340933     40.681867
     -2.757758     18.427828     18.427828     36.855657
     -2.747748     17.074990     17.074990     34.149979
     -2.737738     16.300639     16.300639     32.601279
     -2.727728     16.009110     16.009110     32.018219
     -2.717718     16.095448     16.095448     32.190897
     -2.707708     16.541832     16.541832     33.083664
     -2.697698     17.431903     17.431903     34.863805
     -2.687688     18.866396     18.866396     37.732792
     -2.677678     20.836063     20.836063     41.672126
     -2.667668     23.145064     23.145064     46.290127
     -2.657658     25.450529     25.450529     50.901057
     -2.647648     27.406852     27.406852     54.813703
     -2.637638     28.828895     28.828895     57.657789
     -2.627628     29.770511     29.770511     59.541022
     -2.617618     30.468849     30.468849     60.937698
     -2.607608     31.192991     31.192991     62.385982
     -2.597598     32.093522     32.093522     64.187045
     -2.587588     33.136796     33.136796     66.273593
     -2.577578     34.139411     34.139411     68.278822
     -2.567568     34.852604     34.852604     69.705207
     -2.557558     35.033515     35.033515     70.067029
     -2.547548     34.481023     34.481023     68.962047
     -2.537538     33.061959     33.061959     66.123917
     -2.527528     30.761115     30.761115     61.522231
     -2.517518     27.750483     27.750483     55.500967
     -2.507508     24.428611     24.428611     48.857221
     -2.497497     21.375018     21.375018     42.750035
     -2.487487     19.207100     19.207100     38.414199
     -2.477477     18.387652     18.387652     36.775304
     -2.467467     19.067651     19.067651     38.135302
     -2.457457     21.038826     21.038826     42.077652
     -2.447447     23.821649     23.821649     47.643299
     -2.437437     26.853111     26.853111     53.706222
     -2.427427     29.693537     29.693537     59.387075
     -2.417417     32.161970     32.161970     64.323939
     -2.407407     34.339787     34.339787     68.679574
     -2.397397     36.440563     36.440563     72.881126
     -2.387387     38.606295     38.606295     77.212589
     -2.377377     40.728986     40.728986     81.457972
     -2.367367     42.392749     42.392749     84.785499
     -2.357357     42.981937     42.981937     85.963874
     -2.347347     41.922525     41.922525     83.845050
     -2.337337     38.952925     38.952925     77.905851
     -2.327327     34.296925     34.296925     68.593850
     -2.317317     28.654680     28.654680     57.309360
     -2.307307     23.016475     23.016475     46.032950
     -2.297297     18.385979     18.385979     36.771959
     -2.287287     15.527968     15.527968     31.055936
     -2.277277     14.822265     14.822265     29.644531
     -2.267267     16.243250     16.243250     32.486500
     -2.257257     19.434366     19.434366     38.868732
     -2.247247     23.829275     23.829275     47.658551
     -2.237237     28.777896     28.777896     57.555791
     -2.227227     33.649523     33.649523     67.299046
     -2.217217     37.898294     37.898294     75.796589
     -2.207207     41.090442     41.090442     82.180885
     -2.197197     42.909111     42.909111     85.818222
     -2.187187     43.162842     43.162842     86.325683
     -2.177177     41.816103     41.816103     83.632205
     -2.167167     39.032818     39.032818     78.065637
     -2.157157     35.194061     35.194061     70.388122
     -2.147147     30.845949     30.845949     61.691898
     -2.137137     26.567038     26.567038     53.134076
     -2.127127     22.799235     22.799235     45.598470
     -2.117117     19.722729     19.722729     39.445458
     -2.107107     17.241836     17.241836     34.483671
     -2.097097     15.088969     15.088969     30.177938
     -2.087087     12.987741     12.987741     25.975483
     -2.077077     10.788154     10.788154     21.576308
     -2.067067      8.512855      8.512855     17.025711
     -2.057057      6.310908      6.310908     12.621816
     -2.047047      4.364042      4.364042      8.728084
     -2.037037      2.802790      2.802790      5.605579
     -2.027027      1.668115      1.668115      3.336230
     -2.017017      0.920597      0.920597      1.841193
     -2.007007      0.476625      0.476625      0.953251
     -1.996997      0.247710      0.247710      0.495420
     -1.986987      0.168796      0.168796      0.337592
     -1.976977      0.213306      0.213306      0.426612
     -1.966967      0.398773      0.398773      0.797547
     -1.956957      0.786131      0.786131      1.572261
     -1.946947      1.471322      1.471322      2.942644
     -1.936937      2.564732      2.564732      5.129463
     -1.926927      4.156004      4.156004      8.312009
     -1.916917      6.269845      6.269845     12.539690
     -1.906907      8.828185      8.828185     17.656369
     -1.896897     11.638216     11.638216     23.276433
     -1.886887     14.418554     14.418554     28.837107
     -1.876877     16.859368     16.859368     33.718737
     -1.866867     18.696837     18.696837     37.393673
     -1.856857     19.777471     19.777471     39.554942
     -1.846847     20.094761     20.094761     40.189522
     -1.836837     19.790766     19.790766     39.581531
     -1.826827     19.121772     19.121772     38.243544
     -1.816817     18.391919     18.391919     36.783838
     -1.806807     17.868226     17.868226     35.736453
     -1.796797     17.703437     17.703437     35.406874
     -1.786787     17.897148     17.897148     35.794296
     -1.776777     18.310621     18.310621     36.621243
     -1.766767     18.723229     18.723229     37.446457
     -1.756757     18.899768     18.899768     37.799536
     -1.746747     18.642770     18.642770     37.285540
     -1.736737     17.825165     17.825165     35.650330
     -1.726727     16.414056     16.414056     32.828111
     -1.716717     14.491889     14.491889     28.983778
     -1.706707     12.265191     12.265191     24.530383
     -1.696697     10.042991     10.042991     20.085982
     -1.686687      8.177164      8.177164     16.354327
     -1.676677      6.976717      6.976717     13.953434
     -1.666667      6.621847      6.621847     13.243694
     -1.656657      7.104589      7.104589     14.209178
     -1.646647      8.215596      8.215596     16.431192
     -1.636637      9.586898      9.586898     19.173797
     -1.626627     10.788020     10.788020     21.576040
