# EIG2DOS: Utility for SIESTA to obtain the electronic density of states
#  E. Artacho, Apr 1999, A. Garcia, Apr 2012
#  Nick R. Papior, Feb 2017
# ------------------------------------------
# Eigenvalues calculated from a non-polarized calculation
# Eigenvalues read from siesta.EIG
# Kpoint weights read from siesta.KP
# Using smearing parameter:   0.0500
# Using 1000 points in the energy range
# Selected bands: 1 to: 2981
# Emin, Emax in file for selected band(s):    -27.2818351    218.3713630
# Nbands, Nspin, Nk   =   2981     1     1
# E_F                 =    -4.2376 eV --> (shifted to ZERO)
# Broadening          =     0.0500 eV
#
#        E            N(up)  (=)   N(down)         Ntot
     -5.000000     35.203802     35.203802     70.407605
     -4.989990     39.094926     39.094926     78.189851
     -4.979980     42.190482     42.190482     84.380964
     -4.969970     44.015132     44.015132     88.030265
     -4.959960     44.281927     44.281927     88.563853
     -4.949950     42.984508     42.984508     85.969015
     -4.939940     40.411322     40.411322     80.822645
     -4.929930     37.093117     37.093117     74.186234
     -4.919920     33.717888     33.717888     67.435777
     -4.909910     31.039922     31.039922     62.079844
     -4.899900     29.781674     29.781674     59.563348
     -4.889890     30.507189     30.507189     61.014378
     -4.879880     33.459454     33.459454     66.918909
     -4.869870     38.401416     38.401416     76.802831
     -4.859860     44.547218     44.547218     89.094436
     -4.849850     50.669714     50.669714    101.339428
     -4.839840     55.401587     55.401587    110.803174
     -4.829830     57.641004     57.641004    115.282008
     -4.819820     56.896280     56.896280    113.792560
     -4.809810     53.415299     53.415299    106.830598
     -4.799800     48.046383     48.046383     96.092767
     -4.789790     41.908370     41.908370     83.816740
     -4.779780     36.028776     36.028776     72.057552
     -4.769770     31.097151     31.097151     62.194302
     -4.759760     27.397047     27.397047     54.794094
     -4.749750     24.886466     24.886466     49.772933
     -4.739740     23.346001     23.346001     46.692003
     -4.729730     22.516985     22.516985     45.033969
     -4.719720     22.185354     22.185354     44.370708
     -4.709710     22.202644     22.202644     44.405289
     -4.699700     22.461093     22.461093     44.922186
     -4.689690     22.854610     22.854610     45.709221
     -4.679680     23.260623     23.260623     46.521246
     -4.669670     23.566321     23.566321     47.132641
     -4.659660     23.737588     23.737588     47.475175
     -4.649650     23.899234     23.899234     47.798468
     -4.639640     24.375117     24.375117     48.750234
     -4.629630     25.639234     25.639234     51.278469
     -4.619620     28.160331     28.160331     56.320662
     -4.609610     32.177326     32.177326     64.354652
     -4.599600     37.497895     37.497895     74.995790
     -4.589590     43.432606     43.432606     86.865212
     -4.579580     48.935821     48.935821     97.871643
     -4.569570     52.930172     52.930172    105.860344
     -4.559560     54.691162     54.691162    109.382324
     -4.549550     54.122889     54.122889    108.245778
     -4.539540     51.796923     51.796923    103.593846
     -4.529530     48.734069     48.734069     97.468138
     -4.519520     46.024376     46.024376     92.048751
     -4.509510     44.445487     44.445487     88.890974
     -4.499499     44.227276     44.227276     88.454553
     -4.489489     45.036530     45.036530     90.073061
     -4.479479     46.160025     46.160025     92.320051
     -4.469469     46.790885     46.790885     93.581770
     -4.459459     46.299089     46.299089     92.598177
     -4.449449     44.395145     44.395145     88.790291
     -4.439439     41.156323     41.156323     82.312646
     -4.429429     36.945639     36.945639     73.891277
     -4.419419     32.286618     32.286618     64.573236
     -4.409409     27.750268     27.750268     55.500536
     -4.399399     23.876162     23.876162     47.752323
     -4.389389     21.114623     21.114623     42.229246
     -4.379379     19.767271     19.767271     39.534542
     -4.369369     19.923582     19.923582     39.847163
     -4.359359     21.421517     21.421517     42.843035
     -4.349349     23.871256     23.871256     47.742512
     -4.339339     26.758215     26.758215     53.516430
     -4.329329     29.597928     29.597928     59.195856
     -4.319319     32.081349     32.081349     64.162698
     -4.309309     34.148591     34.148591     68.297181
     -4.299299     35.961536     35.961536     71.923073
     -4.289289     37.789290     37.789290     75.578579
     -4.279279     39.851401     39.851401     79.702801
     -4.269269     42.174094     42.174094     84.348189
     -4.259259     44.510805     44.510805     89.021610
     -4.249249     46.366009     46.366009     92.732018
     -4.239239     47.135592     47.135592     94.271184
     -4.229229     46.331797     46.331797     92.663594
     -4.219219     43.808769     43.808769     87.617537
     -4.209209     39.880379     39.880379     79.760758
     -4.199199     35.256278     35.256278     70.512556
     -4.189189     30.809028     30.809028     61.618057
     -4.179179     27.275898     27.275898     54.551796
     -4.169169     25.034952     25.034952     50.069904
     -4.159159     24.053137     24.053137     48.106273
     -4.149149     24.012208     24.012208     48.024416
     -4.139139     24.532019     24.532019     49.064037
     -4.129129     25.372824     25.372824     50.745649
     -4.119119     26.518627     26.518627     53.037254
     -4.109109     28.105279     28.105279     56.210559
     -4.099099     30.233440     30.233440     60.466880
     -4.089089     32.768806     32.768806     65.537613
     -4.079079     35.251000     35.251000     70.502001
     -4.069069     36.988132     36.988132     73.976264
     -4.059059     37.316702     37.316702     74.633404
     -4.049049     35.905871     35.905871     71.811741
     -4.039039     32.946351     32.946351     65.892701
     -4.029029     29.120068     29.120068     58.240136
     -4.019019     25.366527     25.366527     50.733054
     -4.009009     22.569144     22.569144     45.138288
     -3.998999     21.312859     21.312859     42.625718
     -3.988989     21.803244     21.803244     43.606489
     -3.978979     23.936460     23.936460     47.872920
     -3.968969     27.436860     27.436860     54.873720
     -3.958959     31.973695     31.973695     63.947389
     -3.948949     37.217848     37.217848     74.435696
     -3.938939     42.856608     42.856608     85.713215
     -3.928929     48.605398     48.605398     97.210797
     -3.918919     54.232130     54.232130    108.464260
     -3.908909     59.572114     59.572114    119.144227
     -3.898899     64.498871     64.498871    128.997742
     -3.888889     68.843578     68.843578    137.687157
     -3.878879     72.302606     72.302606    144.605211
     -3.868869     74.400666     74.400666    148.801331
     -3.858859     74.561702     74.561702    149.123404
     -3.848849     72.286196     72.286196    144.572392
     -3.838839     67.372175     67.372175    134.744349
     -3.828829     60.082878     60.082878    120.165756
     -3.818819     51.176947     51.176947    102.353893
     -3.808809     41.772095     41.772095     83.544191
     -3.798799     33.083134     33.083134     66.166269
     -3.788789     26.125340     26.125340     52.250679
     -3.778779     21.482408     21.482408     42.964815
     -3.768769     19.206226     19.206226     38.412453
     -3.758759     18.864631     18.864631     37.729263
     -3.748749     19.707928     19.707928     39.415857
     -3.738739     20.899160     20.899160     41.798319
     -3.728729     21.746973     21.746973     43.493945
     -3.718719     21.886458     21.886458     43.772916
     -3.708709     21.366460     21.366460     42.732919
     -3.698699     20.620002     20.620002     41.240005
     -3.688689     20.318905     20.318905     40.637809
     -3.678679     21.144210     21.144210     42.288420
     -3.668669     23.535370     23.535370     47.070740
     -3.658659     27.500529     27.500529     55.001059
     -3.648649     32.562365     32.562365     65.124730
     -3.638639     37.870875     37.870875     75.741750
     -3.628629     42.447821     42.447821     84.895641
     -3.618619     45.469072     45.469072     90.938144
     -3.608609     46.475924     46.475924     92.951847
     -3.598599     45.446333     45.446333     90.892667
     -3.588589     42.727120     42.727120     85.454240
     -3.578579     38.883758     38.883758     77.767515
     -3.568569     34.535929     34.535929     69.071858
     -3.558559     30.222217     30.222217     60.444434
     -3.548549     26.308414     26.308414     52.616828
     -3.538539     22.944170     22.944170     45.888339
     -3.528529     20.076404     20.076404     40.152808
     -3.518519     17.523141     17.523141     35.046281
     -3.508509     15.088530     15.088530     30.177059
     -3.498498     12.674295     12.674295     25.348590
     -3.488488     10.338976     10.338976     20.677952
     -3.478478      8.281610      8.281610     16.563220
     -3.468468      6.763710      6.763710     13.527420
     -3.458458      6.007490      6.007490     12.014980
     -3.448448      6.108835      6.108835     12.217669
     -3.438438      6.989857      6.989857     13.979713
     -3.428428      8.402830      8.402830     16.805660
     -3.418418      9.989065      9.989065     19.978130
     -3.408408     11.385474     11.385474     22.770948
     -3.398398     12.352850     12.352850     24.705700
     -3.388388     12.881245     12.881245     25.762490
     -3.378378     13.226172     13.226172     26.452345
     -3.368368     13.853374     13.853374     27.706748
     -3.358358     15.308223     15.308223     30.616445
     -3.348348     18.053910     18.053910     36.107820
     -3.338338     22.323826     22.323826     44.647653
     -3.328328     28.014989     28.014989     56.029977
     -3.318318     34.634888     34.634888     69.269776
     -3.308308     41.319384     41.319384     82.638768
     -3.298298     46.951569     46.951569     93.903138
     -3.288288     50.398607     50.398607    100.797215
     -3.278278     50.828634     50.828634    101.657267
     -3.268268     48.000076     48.000076     96.000152
     -3.258258     42.389250     42.389250     84.778501
     -3.248248     35.076932     35.076932     70.153864
     -3.238238     27.427588     27.427588     54.855176
     -3.228228     20.693988     20.693988     41.387977
     -3.218218     15.702505     15.702505     31.405011
     -3.208208     12.716730     12.716730     25.433461
     -3.198198     11.488503     11.488503     22.977006
     -3.188188     11.440924     11.440924     22.881847
     -3.178178     11.906996     11.906996     23.813992
     -3.168168     12.354991     12.354991     24.709981
     -3.158158     12.546214     12.546214     25.092428
     -3.148148     12.586864     12.586864     25.173727
     -3.138138     12.859594     12.859594     25.719189
     -3.128128     13.854448     13.854448     27.708896
     -3.118118     15.953228     15.953228     31.906456
     -3.108108     19.241374     19.241374     38.482748
     -3.098098     23.417098     23.417098     46.834197
     -3.088088     27.838066     27.838066     55.676132
     -3.078078     31.697720     31.697720     63.395439
     -3.068068     34.270623     34.270623     68.541246
     -3.058058     35.131190     35.131190     70.262380
     -3.048048     34.255611     34.255611     68.511222
     -3.038038     31.969071     31.969071     63.938142
     -3.028028     28.776734     28.776734     57.553469
     -3.018018     25.173347     25.173347     50.346695
     -3.008008     21.526840     21.526840     43.053680
     -2.997998     18.076533     18.076533     36.153066
     -2.987988     15.014812     15.014812     30.029624
     -2.977978     12.579045     12.579045     25.158090
     -2.967968     11.088316     11.088316     22.176632
     -2.957958     10.900928     10.900928     21.801856
     -2.947948     12.311173     12.311173     24.622345
     -2.937938     15.426600     15.426600     30.853200
     -2.927928     20.070419     20.070419     40.140838
     -2.917918     25.747385     25.747385     51.494769
     -2.907908     31.699198     31.699198     63.398396
     -2.897898     37.052598     37.052598     74.105197
     -2.887888     41.028765     41.028765     82.057531
     -2.877878     43.148241     43.148241     86.296482
     -2.867868     43.352397     43.352397     86.704793
     -2.857858     41.985998     41.985998     83.971996
     -2.847848     39.641458     39.641458     79.282916
     -2.837838     36.928469     36.928469     73.856938
     -2.827828     34.269169     34.269169     68.538338
     -2.817818     31.806577     31.806577     63.613155
     -2.807808     29.456543     29.456543     58.913086
     -2.797798     27.060574     27.060574     54.121148
     -2.787788     24.548257     24.548257     49.096514
     -2.777778     22.020223     22.020223     44.040445
     -2.767768     19.713848     19.713848     39.427696
     -2.757758     17.884055     17.884055     35.768110
     -2.747748     16.679673     16.679673     33.359346
     -2.737738     16.093407     16.093407     32.186815
     -2.727728     16.012107     16.012107     32.024213
     -2.717718     16.325861     16.325861     32.651723
     -2.707708     17.014031     17.014031     34.028062
     -2.697698     18.142133     18.142133     36.284266
     -2.687688     19.767569     19.767569     39.535138
     -2.677678     21.821625     21.821625     43.643250
     -2.667668     24.060079     24.060079     48.120157
     -2.657658     26.133299     26.133299     52.266598
     -2.647648     27.744315     27.744315     55.488631
     -2.637638     28.797597     28.797597     57.595195
     -2.627628     29.441322     29.441322     58.882644
     -2.617618     29.974234     29.974234     59.948468
     -2.607608     30.676128     30.676128     61.352256
     -2.597598     31.664733     31.664733     63.329466
     -2.587588     32.852341     32.852341     65.704682
     -2.577578     34.001198     34.001198     68.002396
     -2.567568     34.818374     34.818374     69.636748
     -2.557558     35.030052     35.030052     70.060103
     -2.547548     34.420953     34.420953     68.841906
     -2.537538     32.867343     32.867343     65.734687
     -2.527528     30.391177     30.391177     60.782354
     -2.517518     27.222708     27.222708     54.445417
     -2.507508     23.821099     23.821099     47.642197
     -2.497497     20.805929     20.805929     41.611857
     -2.487487     18.798888     18.798888     37.597775
     -2.477477     18.231206     18.231206     36.462412
     -2.467467     19.200333     19.200333     38.400665
     -2.457457     21.442780     21.442780     42.885559
     -2.447447     24.439766     24.439766     48.879531
     -2.437437     27.613704     27.613704     55.227409
     -2.427427     30.532630     30.532630     61.065259
     -2.417417     33.033942     33.033942     66.067884
     -2.407407     35.212332     35.212332     70.424663
     -2.397397     37.277104     37.277104     74.554209
     -2.387387     39.346012     39.346012     78.692024
     -2.377377     41.277984     41.277984     82.555968
     -2.367367     42.636803     42.636803     85.273605
     -2.357357     42.821127     42.821127     85.642255
     -2.347347     41.315049     41.315049     82.630098
     -2.337337     37.947036     37.947036     75.894072
     -2.327327     33.033003     33.033003     66.066006
     -2.317317     27.333538     27.333538     54.667076
     -2.307307     21.846950     21.846950     43.693900
     -2.297297     17.533984     17.533984     35.067969
     -2.287287     15.085679     15.085679     30.171359
     -2.277277     14.803894     14.803894     29.607789
     -2.267267     16.601503     16.601503     33.203007
     -2.257257     20.085400     20.085400     40.170799
     -2.247247     24.674612     24.674612     49.349224
     -2.237237     29.716781     29.716781     59.433562
     -2.227227     34.581599     34.581599     69.163197
     -2.217217     38.721984     38.721984     77.443969
     -2.207207     41.705006     41.705006     83.410013
     -2.197197     43.226234     43.226234     86.452468
     -2.187187     43.127205     43.127205     86.254411
     -2.177177     41.426761     41.426761     82.853521
     -2.167167     38.353098     38.353098     76.706195
     -2.157157     34.340560     34.340560     68.681121
     -2.147147     29.956607     29.956607     59.913215
     -2.137137     25.759557     25.759557     51.519113
     -2.127127     22.137655     22.137655     44.275310
     -2.117117     19.207097     19.207097     38.414195
     -2.107107     16.824463     16.824463     33.648926
     -2.097097     14.707314     14.707314     29.414629
     -2.087087     12.596523     12.596523     25.193046
     -2.077077     10.376038     10.376038     20.752076
     -2.067067      8.099382      8.099382     16.198765
     -2.057057      5.930100      5.930100     11.860200
     -2.047047      4.046047      4.046047      8.092093
     -2.037037      2.562594      2.562594      5.125188
     -2.027027      1.504097      1.504097      3.008193
     -2.017017      0.820295      0.820295      1.640590
     -2.007007      0.425347      0.425347      0.850695
     -1.996997      0.237203      0.237203      0.474406
     -1.986987      0.206207      0.206207      0.412415
     -1.976977      0.332909      0.332909      0.665819
     -1.966967      0.679051      0.679051      1.358102
     -1.956957      1.371957      1.371957      2.743915
     -1.946947      2.595065      2.595065      5.190130
     -1.936937      4.552703      4.552703      9.105406
     -1.926927      7.402176      7.402176     14.804352
     -1.916917     11.163198     11.163198     22.326395
     -1.906907     15.637458     15.637458     31.274916
     -1.896897     20.384088     20.384088     40.768176
     -1.886887     24.784675     24.784675     49.569350
     -1.876877     28.193000     28.193000     56.385999
     -1.866867     30.119302     30.119302     60.238603
     -1.856857     30.375702     30.375702     60.751404
     -1.846847     29.124344     29.124344     58.248689
     -1.836837     26.812903     26.812903     53.625806
     -1.826827     24.026667     24.026667     48.053335
     -1.816817     21.311656     21.311656     42.623311
     -1.806807     19.026135     19.026135     38.052269
     -1.796797     17.265672     17.265672     34.531344
     -1.786787     15.883885     15.883885     31.767770
     -1.776777     14.598331     14.598331     29.196661
     -1.766767     13.136479     13.136479     26.272959
     -1.756757     11.358301     11.358301     22.716603
     -1.746747      9.304979      9.304979     18.609959
     -1.736737      7.163436      7.163436     14.326873
     -1.726727      5.179425      5.179425     10.358850
     -1.716717      3.571316      3.571316      7.142633
     -1.706707      2.483606      2.483606      4.967212
     -1.696697      1.986884      1.986884      3.973769
     -1.686687      2.102262      2.102262      4.204524
     -1.676677      2.818857      2.818857      5.637714
     -1.666667      4.084845      4.084845      8.169689
     -1.656657      5.776416      5.776416     11.552832
     -1.646647      7.670713      7.670713     15.341426
     -1.636637      9.455424      9.455424     18.910847
     -1.626627     10.792994     10.792994     21.585988
