# EIG2DOS: Utility for SIESTA to obtain the electronic density of states
#  E. Artacho, Apr 1999, A. Garcia, Apr 2012
#  Nick R. Papior, Feb 2017
# ------------------------------------------
# Eigenvalues calculated from a non-polarized calculation
# Eigenvalues read from siesta.EIG
# Kpoint weights read from siesta.KP
# Using smearing parameter:   0.0500
# Using 1000 points in the energy range
# Selected bands: 1 to: 2981
# Emin, Emax in file for selected band(s):    -27.4927733    218.4201520
# Nbands, Nspin, Nk   =   2981     1     1
# E_F                 =    -4.1812 eV --> (shifted to ZERO)
# Broadening          =     0.0500 eV
#
#        E            N(up)  (=)   N(down)         Ntot
     -5.000000     35.517790     35.517790     71.035580
     -4.989990     40.575239     40.575239     81.150478
     -4.979980     44.735875     44.735875     89.471750
     -4.969970     47.270519     47.270519     94.541038
     -4.959960     47.800682     47.800682     95.601364
     -4.949950     46.444992     46.444992     92.889984
     -4.939940     43.794117     43.794117     87.588234
     -4.929930     40.741262     40.741262     81.482523
     -4.919920     38.248397     38.248397     76.496795
     -4.909910     37.127698     37.127698     74.255396
     -4.899900     37.880542     37.880542     75.761084
     -4.889890     40.601262     40.601262     81.202525
     -4.879880     44.944533     44.944533     89.889066
     -4.869870     50.167235     50.167235    100.334471
     -4.859860     55.260733     55.260733    110.521466
     -4.849850     59.168294     59.168294    118.336588
     -4.839840     61.041643     61.041643    122.083285
     -4.829830     60.457683     60.457683    120.915366
     -4.819820     57.517129     57.517129    115.034259
     -4.809810     52.786561     52.786561    105.573121
     -4.799800     47.106182     47.106182     94.212363
     -4.789790     41.337537     41.337537     82.675074
     -4.779780     36.143836     36.143836     72.287672
     -4.769770     31.873373     31.873373     63.746747
     -4.759760     28.567043     28.567043     57.134087
     -4.749750     26.059396     26.059396     52.118792
     -4.739740     24.112039     24.112039     48.224078
     -4.729730     22.518233     22.518233     45.036467
     -4.719720     21.143674     21.143674     42.287347
     -4.709710     19.906992     19.906992     39.813984
     -4.699700     18.736954     18.736954     37.473909
     -4.689690     17.554914     17.554914     35.109829
     -4.679680     16.312524     16.312524     32.625047
     -4.669670     15.074344     15.074344     30.148687
     -4.659660     14.096507     14.096507     28.193013
     -4.649650     13.840334     13.840334     27.680669
     -4.639640     14.882033     14.882033     29.764065
     -4.629630     17.725071     17.725071     35.450143
     -4.619620     22.570656     22.570656     45.141311
     -4.609610     29.135603     29.135603     58.271207
     -4.599600     36.610849     36.610849     73.221697
     -4.589590     43.816002     43.816002     87.632004
     -4.579580     49.527863     49.527863     99.055725
     -4.569570     52.872216     52.872216    105.744431
     -4.559560     53.618474     53.618474    107.236949
     -4.549550     52.244637     52.244637    104.489274
     -4.539540     49.739506     49.739506     99.479013
     -4.529530     47.227298     47.227298     94.454595
     -4.519520     45.572495     45.572495     91.144989
     -4.509510     45.117555     45.117555     90.235110
     -4.499499     45.636208     45.636208     91.272416
     -4.489489     46.492090     46.492090     92.984180
     -4.479479     46.917631     46.917631     93.835262
     -4.469469     46.296068     46.296068     92.592137
     -4.459459     44.345480     44.345480     88.690960
     -4.449449     41.156594     41.156594     82.313188
     -4.439439     37.102169     37.102169     74.204339
     -4.429429     32.685556     32.685556     65.371112
     -4.419419     28.406625     28.406625     56.813251
     -4.409409     24.691445     24.691445     49.382890
     -4.399399     21.879823     21.879823     43.759645
     -4.389389     20.227803     20.227803     40.455607
     -4.379379     19.885410     19.885410     39.770819
     -4.369369     20.847867     20.847867     41.695734
     -4.359359     22.918687     22.918687     45.837374
     -4.349349     25.731202     25.731202     51.462404
     -4.339339     28.843420     28.843420     57.686839
     -4.329329     31.872814     31.872814     63.745628
     -4.319319     34.607907     34.607907     69.215814
     -4.309309     37.041736     37.041736     74.083472
     -4.299299     39.310594     39.310594     78.621187
     -4.289289     41.565067     41.565067     83.130135
     -4.279279     43.828244     43.828244     87.656487
     -4.269269     45.901496     45.901496     91.802993
     -4.259259     47.364755     47.364755     94.729509
     -4.249249     47.688552     47.688552     95.377104
     -4.239239     46.431845     46.431845     92.863691
     -4.229229     43.453932     43.453932     86.907864
     -4.219219     39.044949     39.044949     78.089899
     -4.209209     33.900733     33.900733     67.801466
     -4.199199     28.933942     28.933942     57.867884
     -4.189189     24.992569     24.992569     49.985138
     -4.179179     22.604334     22.604334     45.208669
     -4.169169     21.853877     21.853877     43.707754
     -4.159159     22.436725     22.436725     44.873449
     -4.149149     23.853625     23.853625     47.707251
     -4.139139     25.648491     25.648491     51.296981
     -4.129129     27.577000     27.577000     55.154001
     -4.119119     29.626692     29.626692     59.253385
     -4.109109     31.882055     31.882055     63.764109
     -4.099099     34.311655     34.311655     68.623311
     -4.089089     36.607346     36.607346     73.214693
     -4.079079     38.190587     38.190587     76.381174
     -4.069069     38.413005     38.413005     76.826011
     -4.059059     36.861428     36.861428     73.722857
     -4.049049     33.605266     33.605266     67.210533
     -4.039039     29.248110     29.248110     58.496220
     -4.029029     24.753375     24.753375     49.506751
     -4.019019     21.135224     21.135224     42.270448
     -4.009009     19.164662     19.164662     38.329324
     -3.998999     19.209450     19.209450     38.418901
     -3.988989     21.238908     21.238908     42.477817
     -3.978979     24.942449     24.942449     49.884898
     -3.968969     29.878189     29.878189     59.756379
     -3.958959     35.589088     35.589088     71.178176
     -3.948949     41.669300     41.669300     83.338599
     -3.938939     47.795564     47.795564     95.591129
     -3.928929     53.739090     53.739090    107.478180
     -3.918919     59.353992     59.353992    118.707983
     -3.908909     64.527754     64.527754    129.055508
     -3.898899     69.096282     69.096282    138.192563
     -3.888889     72.760672     72.760672    145.521343
     -3.878879     75.063424     75.063424    150.126848
     -3.868869     75.464132     75.464132    150.928265
     -3.858859     73.504427     73.504427    147.008853
     -3.848849     69.000443     69.000443    138.000886
     -3.838839     62.180591     62.180591    124.361181
     -3.828829     53.706995     53.706995    107.413991
     -3.818819     44.565971     44.565971     89.131943
     -3.808809     35.860834     35.860834     71.721667
     -3.798799     28.570143     28.570143     57.140286
     -3.788789     23.339949     23.339949     46.679897
     -3.778779     20.363908     20.363908     40.727817
     -3.768769     19.378476     19.378476     38.756952
     -3.758759     19.769727     19.769727     39.539454
     -3.748749     20.761038     20.761038     41.522076
     -3.738739     21.632362     21.632362     43.264723
     -3.728729     21.915621     21.915621     43.831243
     -3.718719     21.517020     21.517020     43.034040
     -3.708709     20.733585     20.733585     41.467170
     -3.698699     20.155369     20.155369     40.310738
     -3.688689     20.473804     20.473804     40.947607
     -3.678679     22.246438     22.246438     44.492876
     -3.668669     25.689993     25.689993     51.379986
     -3.658659     30.574919     30.574919     61.149837
     -3.648649     36.266217     36.266217     72.532434
     -3.638639     41.900908     41.900908     83.801815
     -3.628629     46.633975     46.633975     93.267950
     -3.618619     49.854059     49.854059     99.708117
     -3.608609     51.289109     51.289109    102.578218
     -3.598599     50.982724     50.982724    101.965448
     -3.588589     49.186400     49.186400     98.372801
     -3.578579     46.240393     46.240393     92.480785
     -3.568569     42.493663     42.493663     84.987325
     -3.558559     38.267250     38.267250     76.534500
     -3.548549     33.835851     33.835851     67.671702
     -3.538539     29.408784     29.408784     58.817569
     -3.528529     25.117302     25.117302     50.234604
     -3.518519     21.028181     21.028181     42.056361
     -3.508509     17.188788     17.188788     34.377575
     -3.498498     13.681642     13.681642     27.363283
     -3.488488     10.653939     10.653939     21.307879
     -3.478478      8.301032      8.301032     16.602064
     -3.468468      6.809808      6.809808     13.619615
     -3.458458      6.287749      6.287749     12.575497
     -3.448448      6.707182      6.707182     13.414364
     -3.438438      7.887588      7.887588     15.775177
     -3.428428      9.529487      9.529487     19.058974
     -3.418418     11.300685     11.300685     22.601370
     -3.408408     12.955119     12.955119     25.910238
     -3.398398     14.440540     14.440540     28.881080
     -3.388388     15.940788     15.940788     31.881576
     -3.378378     17.817684     17.817684     35.635368
     -3.368368     20.463958     20.463958     40.927916
     -3.358358     24.125883     24.125883     48.251766
     -3.348348     28.770510     28.770510     57.541020
     -3.338338     34.046282     34.046282     68.092565
     -3.328328     39.337849     39.337849     78.675699
     -3.318318     43.881678     43.881678     87.763356
     -3.308308     46.907572     46.907572     93.815143
     -3.298298     47.788466     47.788466     95.576933
     -3.288288     46.186371     46.186371     92.372742
     -3.278278     42.163865     42.163865     84.327729
     -3.268268     36.210533     36.210533     72.421067
     -3.258258     29.146462     29.146462     58.292925
     -3.248248     21.917555     21.917555     43.835110
     -3.238238     15.356743     15.356743     30.713485
     -3.228228     10.005818     10.005818     20.011636
     -3.218218      6.058558      6.058558     12.117115
     -3.208208      3.422848      3.422848      6.845696
     -3.198198      1.850223      1.850223      3.700446
     -3.188188      1.070326      1.070326      2.140652
     -3.178178      0.888879      0.888879      1.777759
     -3.168168      1.236717      1.236717      2.473434
     -3.158158      2.174550      2.174550      4.349099
     -3.148148      3.859718      3.859718      7.719435
     -3.138138      6.477111      6.477111     12.954222
     -3.128128     10.139531     10.139531     20.279062
     -3.118118     14.778260     14.778260     29.556520
     -3.108108     20.064868     20.064868     40.129735
     -3.098098     25.412725     25.412725     50.825449
     -3.088088     30.085652     30.085652     60.171304
     -3.078078     33.392521     33.392521     66.785043
     -3.068068     34.894368     34.894368     69.788737
     -3.058058     34.530072     34.530072     69.060143
     -3.048048     32.599561     32.599561     65.199123
     -3.038038     29.616773     29.616773     59.233546
     -3.028028     26.114049     26.114049     52.228098
     -3.018018     22.499826     22.499826     44.999652
     -3.008008     19.029710     19.029710     38.059420
     -2.997998     15.877929     15.877929     31.755858
     -2.987988     13.241237     13.241237     26.482474
     -2.977978     11.401469     11.401469     22.802937
     -2.967968     10.709065     10.709065     21.418130
     -2.957958     11.496119     11.496119     22.992238
     -2.947948     13.956505     13.956505     27.913010
     -2.937938     18.036951     18.036951     36.073902
     -2.927928     23.376774     23.376774     46.753548
     -2.917918     29.324215     29.324215     58.648429
     -2.907908     35.042148     35.042148     70.084296
     -2.897898     39.690089     39.690089     79.380177
     -2.887888     42.635735     42.635735     85.271470
     -2.877878     43.623344     43.623344     87.246687
     -2.867868     42.827936     42.827936     85.655873
     -2.857858     40.762968     40.762968     81.525937
     -2.847848     38.072576     38.072576     76.145152
     -2.837838     35.296501     35.296501     70.593001
     -2.827828     32.712312     32.712312     65.424624
     -2.817818     30.321353     30.321353     60.642706
     -2.807808     27.969795     27.969795     55.939591
     -2.797798     25.526324     25.526324     51.052648
     -2.787788     23.013772     23.013772     46.027545
     -2.777778     20.626922     20.626922     41.253844
     -2.767768     18.640301     18.640301     37.280602
     -2.757758     17.274278     17.274278     34.548556
     -2.747748     16.606285     16.606285     33.212569
     -2.737738     16.576631     16.576631     33.153262
     -2.727728     17.070534     17.070534     34.141067
     -2.717718     18.005490     18.005490     36.010981
     -2.707708     19.353146     19.353146     38.706292
     -2.697698     21.078820     21.078820     42.157640
     -2.687688     23.051686     23.051686     46.103373
     -2.677678     25.010717     25.010717     50.021433
     -2.667668     26.637274     26.637274     53.274547
     -2.657658     27.705729     27.705729     55.411459
     -2.647648     28.217340     28.217340     56.434680
     -2.637638     28.422180     28.422180     56.844360
     -2.627628     28.703255     28.703255     57.406510
     -2.617618     29.386349     29.386349     58.772698
     -2.607608     30.583668     30.583668     61.167337
     -2.597598     32.149467     32.149467     64.298934
     -2.587588     33.749459     33.749459     67.498918
     -2.577578     34.982894     34.982894     69.965787
     -2.567568     35.488912     35.488912     70.977823
     -2.557558     35.009925     35.009925     70.019851
     -2.547548     33.429606     33.429606     66.859211
     -2.537538     30.811806     30.811806     61.623611
     -2.527528     27.438120     27.438120     54.876240
     -2.517518     23.809155     23.809155     47.618311
     -2.507508     20.572546     20.572546     41.145092
     -2.497497     18.374906     18.374906     36.749812
     -2.487487     17.680850     17.680850     35.361701
     -2.477477     18.628887     18.628887     37.257774
     -2.467467     20.986098     20.986098     41.972195
     -2.457457     24.226598     24.226598     48.453195
     -2.447447     27.709930     27.709930     55.419860
     -2.437437     30.893890     30.893890     61.787780
     -2.427427     33.497834     33.497834     66.995668
     -2.417417     35.546873     35.546873     71.093745
     -2.407407     37.273341     37.273341     74.546682
     -2.397397     38.914741     38.914741     77.829483
     -2.387387     40.501505     40.501505     81.003009
     -2.377377     41.745092     41.745092     83.490184
     -2.367367     42.099690     42.099690     84.199381
     -2.357357     40.987238     40.987238     81.974475
     -2.347347     38.085616     38.085616     76.171232
     -2.337337     33.537924     33.537924     67.075849
     -2.327327     27.978564     27.978564     55.957128
     -2.317317     22.369266     22.369266     44.738532
     -2.307307     17.732867     17.732867     35.465734
     -2.297297     14.906132     14.906132     29.812264
     -2.287287     14.394159     14.394159     28.788318
     -2.277277     16.336630     16.336630     32.673259
     -2.267267     20.542970     20.542970     41.085941
     -2.257257     26.545933     26.545933     53.091867
     -2.247247     33.651029     33.651029     67.302057
     -2.237237     40.992602     40.992602     81.985204
     -2.227227     47.621028     47.621028     95.242056
     -2.217217     52.632688     52.632688    105.265376
     -2.207207     55.326390     55.326390    110.652780
     -2.197197     55.345926     55.345926    110.691853
     -2.187187     52.762664     52.762664    105.525329
     -2.177177     48.066010     48.066010     96.132019
     -2.167167     42.054647     42.054647     84.109294
     -2.157157     35.649025     35.649025     71.298049
     -2.147147     29.671185     29.671185     59.342370
     -2.137137     24.656489     24.656489     49.312978
     -2.127127     20.761504     20.761504     41.523008
     -2.117117     17.802599     17.802599     35.605198
     -2.107107     15.406129     15.406129     30.812259
     -2.097097     13.200417     13.200417     26.400835
     -2.087087     10.963819     10.963819     21.927639
     -2.077077      8.673413      8.673413     17.346826
     -2.067067      6.455373      6.455373     12.910747
     -2.057057      4.484849      4.484849      8.969697
     -2.047047      2.894841      2.894841      5.789682
     -2.037037      1.731550      1.731550      3.463101
     -2.027027      0.959478      0.959478      1.918955
     -2.017017      0.495870      0.495870      0.991741
     -2.007007      0.249772      0.249772      0.499543
     -1.996997      0.150505      0.150505      0.301009
     -1.986987      0.162732      0.162732      0.325464
     -1.976977      0.292278      0.292278      0.584557
     -1.966967      0.586904      0.586904      1.173807
     -1.956957      1.131825      1.131825      2.263650
     -1.946947      2.035534      2.035534      4.071068
     -1.936937      3.401361      3.401361      6.802723
     -1.926927      5.286341      5.286341     10.572682
     -1.916917      7.658936      7.658936     15.317873
     -1.906907     10.374644     10.374644     20.749289
     -1.896897     13.186090     13.186090     26.372179
     -1.886887     15.790539     15.790539     31.581078
     -1.876877     17.900241     17.900241     35.800482
     -1.866867     19.311152     19.311152     38.622303
     -1.856857     19.948737     19.948737     39.897474
     -1.846847     19.880074     19.880074     39.760148
     -1.836837     19.289972     19.289972     38.579945
     -1.826827     18.423433     18.423433     36.846866
     -1.816817     17.504374     17.504374     35.008748
     -1.806807     16.655129     16.655129     33.310258
     -1.796797     15.853084     15.853084     31.706169
     -1.786787     14.953117     14.953117     29.906233
     -1.776777     13.772611     13.772611     27.545222
     -1.766767     12.197956     12.197956     24.395912
     -1.756757     10.256143     10.256143     20.512285
     -1.746747      8.116050      8.116050     16.232099
     -1.736737      6.026671      6.026671     12.053341
     -1.726727      4.233570      4.233570      8.467139
     -1.716717      2.918637      2.918637      5.837275
     -1.706707      2.184130      2.184130      4.368260
     -1.696697      2.070267      2.070267      4.140534
     -1.686687      2.577322      2.577322      5.154644
     -1.676677      3.666878      3.666878      7.333757
     -1.666667      5.237578      5.237578     10.475156
     -1.656657      7.094853      7.094853     14.189706
     -1.646647      8.947151      8.947151     17.894303
     -1.636637     10.453457     10.453457     20.906914
     -1.626627     11.320068     11.320068     22.640135
