# EIG2DOS: Utility for SIESTA to obtain the electronic density of states
#  E. Artacho, Apr 1999, A. Garcia, Apr 2012
#  Nick R. Papior, Feb 2017
# ------------------------------------------
# Eigenvalues calculated from a non-polarized calculation
# Eigenvalues read from siesta.EIG
# Kpoint weights read from siesta.KP
# Using smearing parameter:   0.0500
# Using 1000 points in the energy range
# Selected bands: 1 to: 2981
# Emin, Emax in file for selected band(s):    -27.2516436    218.4036390
# Nbands, Nspin, Nk   =   2981     1     1
# E_F                 =    -4.1883 eV --> (shifted to ZERO)
# Broadening          =     0.0500 eV
#
#        E            N(up)  (=)   N(down)         Ntot
     -5.000000     31.625797     31.625797     63.251594
     -4.989990     36.936934     36.936934     73.873867
     -4.979980     41.964179     41.964179     83.928358
     -4.969970     45.813354     45.813354     91.626707
     -4.959960     47.738879     47.738879     95.477758
     -4.949950     47.394677     47.394677     94.789355
     -4.939940     44.953925     44.953925     89.907850
     -4.929930     41.064714     41.064714     82.129429
     -4.919920     36.683617     36.683617     73.367235
     -4.909910     32.862833     32.862833     65.725666
     -4.899900     30.547902     30.547902     61.095805
     -4.889890     30.403179     30.403179     60.806358
     -4.879880     32.664931     32.664931     65.329862
     -4.869870     37.042362     37.042362     74.084724
     -4.859860     42.717794     42.717794     85.435587
     -4.849850     48.495047     48.495047     96.990094
     -4.839840     53.091517     53.091517    106.183033
     -4.829830     55.491424     55.491424    110.982848
     -4.819820     55.228412     55.228412    110.456823
     -4.809810     52.483521     52.483521    104.967041
     -4.799800     47.964726     47.964726     95.929452
     -4.789790     42.631578     42.631578     85.263155
     -4.779780     37.388952     37.388952     74.777903
     -4.769770     32.868674     32.868674     65.737347
     -4.759760     29.358490     29.358490     58.716980
     -4.749750     26.863809     26.863809     53.727619
     -4.739740     25.237441     25.237441     50.474882
     -4.729730     24.302682     24.302682     48.605364
     -4.719720     23.918350     23.918350     47.836700
     -4.709710     23.973332     23.973332     47.946665
     -4.699700     24.336514     24.336514     48.673027
     -4.689690     24.812140     24.812140     49.624280
     -4.679680     25.149815     25.149815     50.299630
     -4.669670     25.129021     25.129021     50.258042
     -4.659660     24.691500     24.691500     49.383000
     -4.649650     24.054934     24.054934     48.109868
     -4.639640     23.731909     23.731909     47.463818
     -4.629630     24.408847     24.408847     48.817695
     -4.619620     26.700763     26.700763     53.401525
     -4.609610     30.864671     30.864671     61.729342
     -4.599600     36.595742     36.595742     73.191485
     -4.589590     43.019029     43.019029     86.038057
     -4.579580     48.918012     48.918012     97.836023
     -4.569570     53.133325     53.133325    106.266650
     -4.559560     54.973394     54.973394    109.946788
     -4.549550     54.457813     54.457813    108.915625
     -4.539540     52.283449     52.283449    104.566897
     -4.529530     49.529401     49.529401     99.058801
     -4.519520     47.233232     47.233232     94.466464
     -4.509510     46.019106     46.019106     92.038211
     -4.499499     45.921383     45.921383     91.842765
     -4.489489     46.451818     46.451818     92.903637
     -4.479479     46.854100     46.854100     93.708201
     -4.469469     46.421593     46.421593     92.843186
     -4.459459     44.746419     44.746419     89.492837
     -4.449449     41.816417     41.816417     83.632833
     -4.439439     37.953972     37.953972     75.907944
     -4.429429     33.659336     33.659336     67.318672
     -4.419419     29.449063     29.449063     58.898125
     -4.409409     25.757260     25.757260     51.514520
     -4.399399     22.911702     22.911702     45.823403
     -4.389389     21.146041     21.146041     42.292081
     -4.379379     20.597187     20.597187     41.194374
     -4.369369     21.268610     21.268610     42.537219
     -4.359359     22.987957     22.987957     45.975914
     -4.349349     25.410883     25.410883     50.821765
     -4.339339     28.102062     28.102062     56.204124
     -4.329329     30.674038     30.674038     61.348076
     -4.319319     32.921491     32.921491     65.842982
     -4.309309     34.882155     34.882155     69.764310
     -4.299299     36.787848     36.787848     73.575696
     -4.289289     38.918996     38.918996     77.837993
     -4.279279     41.418657     41.418657     82.837315
     -4.269269     44.143049     44.143049     88.286099
     -4.259259     46.620507     46.620507     93.241014
     -4.249249     48.157989     48.157989     96.315977
     -4.239239     48.076683     48.076683     96.153367
     -4.229229     45.993147     45.993147     91.986294
     -4.219219     42.023480     42.023480     84.046961
     -4.209209     36.806972     36.806972     73.613944
     -4.199199     31.323817     31.323817     62.647634
     -4.189189     26.580370     26.580370     53.160740
     -4.179179     23.298466     23.298466     46.596931
     -4.169169     21.737701     21.737701     43.475401
     -4.159159     21.709849     21.709849     43.419698
     -4.149149     22.754855     22.754855     45.509709
     -4.139139     24.382688     24.382688     48.765377
     -4.129129     26.268195     26.268195     52.536390
     -4.119119     28.315966     28.315966     56.631932
     -4.109109     30.574280     30.574280     61.148561
     -4.099099     33.049680     33.049680     66.099359
     -4.089089     35.529072     35.529072     71.058144
     -4.079079     37.524086     37.524086     75.048172
     -4.069069     38.396463     38.396463     76.792926
     -4.059059     37.622988     37.622988     75.245975
     -4.049049     35.069663     35.069663     70.139326
     -4.039039     31.127312     31.127312     62.254624
     -4.029029     26.631583     26.631583     53.263166
     -4.019019     22.606006     22.606006     45.212012
     -4.009009     19.953589     19.953589     39.907177
     -3.998999     19.230969     19.230969     38.461938
     -3.988989     20.576137     20.576137     41.152274
     -3.978979     23.775853     23.775853     47.551706
     -3.968969     28.404270     28.404270     56.808541
     -3.958959     33.961346     33.961346     67.922692
     -3.948949     39.973158     39.973158     79.946316
     -3.938939     46.052576     46.052576     92.105152
     -3.928929     51.931511     51.931511    103.863023
     -3.918919     57.464371     57.464371    114.928742
     -3.908909     62.588500     62.588500    125.177000
     -3.898899     67.235514     67.235514    134.471029
     -3.888889     71.219868     71.219868    142.439736
     -3.878879     74.163548     74.163548    148.327096
     -3.868869     75.517521     75.517521    151.035042
     -3.858859     74.700634     74.700634    149.401268
     -3.848849     71.315082     71.315082    142.630164
     -3.838839     65.350839     65.350839    130.701677
     -3.828829     57.287405     57.287405    114.574811
     -3.818819     48.041846     48.041846     96.083691
     -3.808809     38.774797     38.774797     77.549594
     -3.798799     30.619897     30.619897     61.239794
     -3.788789     24.424594     24.424594     48.849188
     -3.778779     20.577884     20.577884     41.155768
     -3.768769     18.965255     18.965255     37.930510
     -3.758759     19.050854     19.050854     38.101707
     -3.748749     20.055211     20.055211     40.110423
     -3.738739     21.179022     21.179022     42.358045
     -3.728729     21.818400     21.818400     43.636801
     -3.718719     21.721534     21.721534     43.443068
     -3.708709     21.048503     21.048503     42.097006
     -3.698699     20.314595     20.314595     40.629189
     -3.688689     20.223081     20.223081     40.446163
     -3.678679     21.424750     21.424750     42.849501
     -3.668669     24.271874     24.271874     48.543748
     -3.658659     28.650514     28.650514     57.301028
     -3.648649     33.961440     33.961440     67.922880
     -3.638639     39.270575     39.270575     78.541150
     -3.628629     43.580017     43.580017     87.160035
     -3.618619     46.115386     46.115386     92.230773
     -3.608609     46.519176     46.519176     93.038353
     -3.598599     44.889624     44.889624     89.779248
     -3.588589     41.679502     41.679502     83.359005
     -3.578579     37.522301     37.522301     75.044602
     -3.568569     33.058272     33.058272     66.116544
     -3.558559     28.802558     28.802558     57.605115
     -3.548549     25.066501     25.066501     50.133003
     -3.538539     21.933007     21.933007     43.866015
     -3.528529     19.289611     19.289611     38.579223
     -3.518519     16.917106     16.917106     33.834211
     -3.508509     14.609651     14.609651     29.219302
     -3.498498     12.280669     12.280669     24.561339
     -3.488488     10.009905     10.009905     20.019810
     -3.478478      8.014954      8.014954     16.029908
     -3.468468      6.566506      6.566506     13.133011
     -3.458458      5.886810      5.886810     11.773620
     -3.448448      6.068135      6.068135     12.136271
     -3.438438      7.033412      7.033412     14.066824
     -3.428428      8.549139      8.549139     17.098278
     -3.418418     10.292980     10.292980     20.585960
     -3.408408     11.966250     11.966250     23.932501
     -3.398398     13.419733     13.419733     26.839465
     -3.388388     14.740637     14.740637     29.481275
     -3.378378     16.249475     16.249475     32.498951
     -3.368368     18.389228     18.389228     36.778456
     -3.358358     21.542026     21.542026     43.084053
     -3.348348     25.848449     25.848449     51.696899
     -3.338338     31.104186     31.104186     62.208372
     -3.328328     36.768611     36.768611     73.537223
     -3.318318     42.069055     42.069055     84.138111
     -3.308308     46.156992     46.156992     92.313984
     -3.298298     48.277382     48.277382     96.554764
     -3.288288     47.928686     47.928686     95.857372
     -3.278278     44.992044     44.992044     89.984088
     -3.268268     39.792994     39.792994     79.585989
     -3.258258     33.055507     33.055507     66.111015
     -3.248248     25.740054     25.740054     51.480108
     -3.238238     18.813672     18.813672     37.627344
     -3.228228     13.039100     13.039100     26.078200
     -3.218218      8.858715      8.858715     17.717430
     -3.208208      6.394097      6.394097     12.788195
     -3.198198      5.524079      5.524079     11.048159
     -3.188188      5.981826      5.981826     11.963651
     -3.178178      7.431839      7.431839     14.863679
     -3.168168      9.525480      9.525480     19.050960
     -3.158158     11.954718     11.954718     23.909437
     -3.148148     14.512561     14.512561     29.025123
     -3.138138     17.138006     17.138006     34.276013
     -3.128128     19.904854     19.904854     39.809707
     -3.118118     22.931689     22.931689     45.863377
     -3.108108     26.240342     26.240342     52.480683
     -3.098098     29.637755     29.637755     59.275510
     -3.088088     32.701238     32.701238     65.402476
     -3.078078     34.896132     34.896132     69.792263
     -3.068068     35.775895     35.775895     71.551790
     -3.058058     35.160000     35.160000     70.320001
     -3.048048     33.194058     33.194058     66.388115
     -3.038038     30.265956     30.265956     60.531912
     -3.028028     26.836140     26.836140     53.672279
     -3.018018     23.284061     23.284061     46.568122
     -3.008008     19.850268     19.850268     39.700536
     -2.997998     16.685029     16.685029     33.370059
     -2.987988     13.949189     13.949189     27.898378
     -2.977978     11.891206     11.891206     23.782412
     -2.967968     10.850343     10.850343     21.700687
     -2.957958     11.182537     11.182537     22.365074
     -2.947948     13.141341     13.141341     26.282681
     -2.937938     16.758931     16.758931     33.517861
     -2.927928     21.768323     21.768323     43.536645
     -2.917918     27.597999     27.597999     55.195998
     -2.907908     33.455544     33.455544     66.911087
     -2.897898     38.492887     38.492887     76.985775
     -2.887888     42.013225     42.013225     84.026449
     -2.877878     43.651692     43.651692     87.303384
     -2.867868     43.457871     43.457871     86.915743
     -2.857858     41.839398     41.839398     83.678797
     -2.847848     39.384169     39.384169     78.768338
     -2.837838     36.636303     36.636303     73.272606
     -2.827828     33.925457     33.925457     67.850913
     -2.817818     31.322733     31.322733     62.645466
     -2.807808     28.730523     28.730523     57.461047
     -2.797798     26.043907     26.043907     52.087815
     -2.787788     23.287443     23.287443     46.574886
     -2.777778     20.652296     20.652296     41.304593
     -2.767768     18.421325     18.421325     36.842650
     -2.757758     16.836364     16.836364     33.672727
     -2.747748     15.993164     15.993164     31.986328
     -2.737738     15.827075     15.827075     31.654150
     -2.727728     16.190797     16.190797     32.381594
     -2.717718     16.963680     16.963680     33.927359
     -2.707708     18.111348     18.111348     36.222695
     -2.697698     19.651163     19.651163     39.302327
     -2.687688     21.550298     21.550298     43.100597
     -2.677678     23.638949     23.638949     47.277898
     -2.667668     25.618297     25.618297     51.236595
     -2.657658     27.178342     27.178342     54.356683
     -2.647648     28.158600     28.158600     56.317199
     -2.637638     28.645828     28.645828     57.291657
     -2.627628     28.938637     28.938637     57.877273
     -2.617618     29.395050     29.395050     58.790100
     -2.607608     30.252999     30.252999     60.505998
     -2.597598     31.522974     31.522974     63.045948
     -2.587588     32.995447     32.995447     65.990895
     -2.577578     34.331453     34.331453     68.662906
     -2.567568     35.169088     35.169088     70.338176
     -2.557558     35.199761     35.199761     70.399522
     -2.547548     34.215240     34.215240     68.430480
     -2.537538     32.152640     32.152640     64.305280
     -2.527528     29.148353     29.148353     58.296706
     -2.517518     25.574661     25.574661     51.149323
     -2.507508     22.013956     22.013956     44.027912
     -2.497497     19.146298     19.146298     38.292595
     -2.487487     17.572955     17.572955     35.145911
     -2.477477     17.638805     17.638805     35.277609
     -2.467467     19.325498     19.325498     38.650996
     -2.457457     22.262224     22.262224     44.524447
     -2.447447     25.855245     25.855245     51.710490
     -2.437437     29.489712     29.489712     58.979423
     -2.427427     32.724892     32.724892     65.449785
     -2.417417     35.401149     35.401149     70.802299
     -2.407407     37.609900     37.609900     75.219801
     -2.397397     39.538082     39.538082     79.076164
     -2.387387     41.261866     41.261866     82.523732
     -2.377377     42.598507     42.598507     85.197014
     -2.367367     43.106350     43.106350     86.212700
     -2.357357     42.251969     42.251969     84.503938
     -2.347347     39.672765     39.672765     79.345530
     -2.337337     35.404795     35.404795     70.809591
     -2.327327     29.958399     29.958399     59.916799
     -2.317317     24.203840     24.203840     48.407680
     -2.307307     19.126231     19.126231     38.252461
     -2.297297     15.563637     15.563637     31.127274
     -2.287287     14.028246     14.028246     28.056492
     -2.277277     14.650062     14.650062     29.300123
     -2.267267     17.221855     17.221855     34.443711
     -2.257257     21.295546     21.295546     42.591093
     -2.247247     26.285481     26.285481     52.570962
     -2.237237     31.554913     31.554913     63.109825
     -2.227227     36.480635     36.480635     72.961270
     -2.217217     40.501110     40.501110     81.002219
     -2.207207     43.157570     43.157570     86.315141
     -2.197197     44.137516     44.137516     88.275032
     -2.187187     43.323911     43.323911     86.647823
     -2.177177     40.839425     40.839425     81.678850
     -2.167167     37.058472     37.058472     74.116945
     -2.157157     32.554962     32.554962     65.109925
     -2.147147     27.974048     27.974048     55.948097
     -2.137137     23.858516     23.858516     47.717032
     -2.127127     20.499081     20.499081     40.998162
     -2.117117     17.880822     17.880822     35.761644
     -2.107107     15.754518     15.754518     31.509035
     -2.097097     13.795902     13.795902     27.591804
     -2.087087     11.771002     11.771002     23.542004
     -2.077077      9.630831      9.630831     19.261663
     -2.067067      7.506811      7.506811     15.013621
     -2.057057      5.633835      5.633835     11.267670
     -2.047047      4.255260      4.255260      8.510519
     -2.037037      3.552908      3.552908      7.105816
     -2.027027      3.613051      3.613051      7.226102
     -2.017017      4.414136      4.414136      8.828271
     -2.007007      5.820407      5.820407     11.640815
     -1.996997      7.582968      7.582968     15.165937
     -1.986987      9.366702      9.366702     18.733405
     -1.976977     10.819470     10.819470     21.638940
     -1.966967     11.676021     11.676021     23.352042
     -1.956957     11.858810     11.858810     23.717620
     -1.946947     11.524840     11.524840     23.049680
     -1.936937     11.025232     11.025232     22.050463
     -1.926927     10.784759     10.784759     21.569518
     -1.916917     11.148406     11.148406     22.296811
     -1.906907     12.257825     12.257825     24.515649
     -1.896897     14.005076     14.005076     28.010153
     -1.886887     16.075127     16.075127     32.150254
     -1.876877     18.052684     18.052684     36.105368
     -1.866867     19.549790     19.549790     39.099580
     -1.856857     20.312534     20.312534     40.625067
     -1.846847     20.280161     20.280161     40.560322
     -1.836837     19.585882     19.585882     39.171765
     -1.826827     18.500489     18.500489     37.000978
     -1.816817     17.331793     17.331793     34.663586
     -1.806807     16.309337     16.309337     32.618674
     -1.796797     15.498601     15.498601     30.997202
     -1.786787     14.786297     14.786297     29.572594
     -1.776777     13.949171     13.949171     27.898343
     -1.766767     12.774910     12.774910     25.549820
     -1.756757     11.173704     11.173704     22.347407
     -1.746747      9.225388      9.225388     18.450777
     -1.736737      7.146471      7.146471     14.292941
     -1.726727      5.206421      5.206421     10.412841
     -1.716717      3.643844      3.643844      7.287689
     -1.706707      2.620680      2.620680      5.241360
     -1.696697      2.220298      2.220298      4.440596
     -1.686687      2.467166      2.467166      4.934332
     -1.676677      3.338145      3.338145      6.676290
     -1.666667      4.749870      4.749870      9.499739
     -1.656657      6.531749      6.531749     13.063498
     -1.646647      8.413590      8.413590     16.827180
     -1.636637     10.057385     10.057385     20.114769
     -1.626627     11.141454     11.141454     22.282909
