# EIG2DOS: Utility for SIESTA to obtain the electronic density of states
#  E. Artacho, Apr 1999, A. Garcia, Apr 2012
#  Nick R. Papior, Feb 2017
# ------------------------------------------
# Eigenvalues calculated from a non-polarized calculation
# Eigenvalues read from siesta.EIG
# Kpoint weights read from siesta.KP
# Using smearing parameter:   0.0500
# Using 1000 points in the energy range
# Selected bands: 1 to: 2981
# Emin, Emax in file for selected band(s):    -27.3712966    218.3958970
# Nbands, Nspin, Nk   =   2981     1     1
# E_F                 =    -4.2121 eV --> (shifted to ZERO)
# Broadening          =     0.0500 eV
#
#        E            N(up)  (=)   N(down)         Ntot
     -5.000000     32.259515     32.259515     64.519030
     -4.989990     37.131558     37.131558     74.263116
     -4.979980     41.631568     41.631568     83.263136
     -4.969970     44.992936     44.992936     89.985871
     -4.959960     46.589274     46.589274     93.178548
     -4.949950     46.142806     46.142806     92.285612
     -4.939940     43.821935     43.821935     87.643871
     -4.929930     40.203714     40.203714     80.407427
     -4.919920     36.138323     36.138323     72.276646
     -4.909910     32.577240     32.577240     65.154480
     -4.899900     30.406744     30.406744     60.813488
     -4.889890     30.292605     30.292605     60.585211
     -4.879880     32.530057     32.530057     65.060114
     -4.869870     36.920143     36.920143     73.840287
     -4.859860     42.732946     42.732946     85.465891
     -4.849850     48.823897     48.823897     97.647794
     -4.839840     53.916457     53.916457    107.832914
     -4.829830     56.974870     56.974870    113.949740
     -4.819820     57.521780     57.521780    115.043560
     -4.809810     55.758959     55.758959    111.517919
     -4.799800     52.433379     52.433379    104.866758
     -4.789790     48.511483     48.511483     97.022966
     -4.779780     44.813387     44.813387     89.626775
     -4.769770     41.766583     41.766583     83.533166
     -4.759760     39.365485     39.365485     78.730970
     -4.749750     37.315274     37.315274     74.630548
     -4.739740     35.256742     35.256742     70.513485
     -4.729730     32.951578     32.951578     65.903156
     -4.719720     30.352664     30.352664     60.705328
     -4.709710     27.558043     27.558043     55.116087
     -4.699700     24.708201     24.708201     49.416403
     -4.689690     21.905524     21.905524     43.811048
     -4.679680     19.207940     19.207940     38.415881
     -4.669670     16.695768     16.695768     33.391536
     -4.659660     14.563618     14.563618     29.127236
     -4.649650     13.173017     13.173017     26.346034
     -4.639640     13.020027     13.020027     26.040054
     -4.629630     14.610342     14.610342     29.220685
     -4.619620     18.272861     18.272861     36.545722
     -4.609610     23.971388     23.971388     47.942776
     -4.599600     31.189235     31.189235     62.378470
     -4.589590     38.955619     38.955619     77.911238
     -4.579580     46.044826     46.044826     92.089651
     -4.569570     51.309950     51.309950    102.619899
     -4.559560     54.039619     54.039619    108.079238
     -4.549550     54.192409     54.192409    108.384819
     -4.539540     52.399936     52.399936    104.799871
     -4.529530     49.725638     49.725638     99.451276
     -4.519520     47.274000     47.274000     94.548000
     -4.509510     45.808670     45.808670     91.617339
     -4.499499     45.527723     45.527723     91.055445
     -4.489489     46.069519     46.069519     92.139037
     -4.479479     46.722311     46.722311     93.444623
     -4.469469     46.731617     46.731617     93.463235
     -4.459459     45.573911     45.573911     91.147822
     -4.449449     43.099149     43.099149     86.198298
     -4.439439     39.516206     39.516206     79.032412
     -4.429429     35.267051     35.267051     70.534102
     -4.419419     30.872520     30.872520     61.745039
     -4.409409     26.820165     26.820165     53.640331
     -4.399399     23.516422     23.516422     47.032844
     -4.389389     21.275935     21.275935     42.551871
     -4.379379     20.304149     20.304149     40.608298
     -4.369369     20.653996     20.653996     41.307991
     -4.359359     22.180679     22.180679     44.361357
     -4.349349     24.542568     24.542568     49.085137
     -4.339339     27.279539     27.279539     54.559078
     -4.329329     29.953454     29.953454     59.906908
     -4.319319     32.292584     32.292584     64.585169
     -4.309309     34.271793     34.271793     68.543586
     -4.299299     36.087740     36.087740     72.175480
     -4.289289     38.034382     38.034382     76.068764
     -4.279279     40.324872     40.324872     80.649744
     -4.269269     42.928409     42.928409     85.856817
     -4.259259     45.492065     45.492065     90.984130
     -4.249249     47.396691     47.396691     94.793382
     -4.239239     47.950240     47.950240     95.900480
     -4.229229     46.658974     46.658974     93.317948
     -4.219219     43.464687     43.464687     86.929373
     -4.209209     38.831387     38.831387     77.662775
     -4.199199     33.625083     33.625083     67.250165
     -4.189189     28.830084     28.830084     57.660167
     -4.179179     25.227850     25.227850     50.455700
     -4.169169     23.180071     23.180071     46.360142
     -4.159159     22.599525     22.599525     45.199050
     -4.149149     23.097866     23.097866     46.195731
     -4.139139     24.221272     24.221272     48.442545
     -4.129129     25.656846     25.656846     51.313692
     -4.119119     27.317761     27.317761     54.635522
     -4.109109     29.276131     29.276131     58.552262
     -4.099099     31.585092     31.585092     63.170183
     -4.089089     34.089796     34.089796     68.179592
     -4.079079     36.343339     36.343339     72.686678
     -4.069069     37.699640     37.699640     75.399280
     -4.059059     37.561868     37.561868     75.123737
     -4.049049     35.670042     35.670042     71.340083
     -4.039039     32.276272     32.276272     64.552543
     -4.029029     28.110071     28.110071     56.220142
     -4.019019     24.148825     24.148825     48.297649
     -4.009009     21.308646     21.308646     42.617292
     -3.998999     20.197964     20.197964     40.395928
     -3.988989     21.022563     21.022563     42.045126
     -3.978979     23.640479     23.640479     47.280959
     -3.968969     27.697294     27.697294     55.394588
     -3.958959     32.760685     32.760685     65.521370
     -3.948949     38.409305     38.409305     76.818609
     -3.938939     44.277807     44.277807     88.555615
     -3.928929     50.081082     50.081082    100.162163
     -3.918919     55.627736     55.627736    111.255473
     -3.908909     60.808042     60.808042    121.616085
     -3.898899     65.536620     65.536620    131.073239
     -3.888889     69.657033     69.657033    139.314066
     -3.878879     72.854575     72.854575    145.709149
     -3.868869     74.640732     74.640732    149.281464
     -3.858859     74.448237     74.448237    148.896475
     -3.848849     71.819740     71.819740    143.639480
     -3.838839     66.618699     66.618699    133.237398
     -3.828829     59.169975     59.169975    118.339951
     -3.818819     50.261603     50.261603    100.523205
     -3.808809     40.995212     40.995212     81.990423
     -3.798799     32.532514     32.532514     65.065029
     -3.788789     25.822027     25.822027     51.644054
     -3.778779     21.391209     21.391209     42.782417
     -3.768769     19.259942     19.259942     38.519883
     -3.758759     18.988912     18.988912     37.977823
     -3.748749     19.838495     19.838495     39.676991
     -3.738739     20.989908     20.989908     41.979816
     -3.728729     21.771677     21.771677     43.543354
     -3.718719     21.837479     21.837479     43.674958
     -3.708709     21.252581     21.252581     42.505162
     -3.698699     20.464101     20.464101     40.928202
     -3.688689     20.155166     20.155166     40.310333
     -3.678679     21.013934     21.013934     42.027868
     -3.668669     23.480104     23.480104     46.960209
     -3.658659     27.552019     27.552019     55.104038
     -3.648649     32.730939     32.730939     65.461877
     -3.638639     38.136589     38.136589     76.273179
     -3.628629     42.759830     42.759830     85.519659
     -3.618619     45.756450     45.756450     91.512901
     -3.608609     46.667894     46.667894     93.335789
     -3.598599     45.494419     45.494419     90.988837
     -3.588589     42.619830     42.619830     85.239660
     -3.578579     38.647679     38.647679     77.295358
     -3.568569     34.223725     34.223725     68.447449
     -3.558559     29.894068     29.894068     59.788136
     -3.548549     26.015450     26.015450     52.030901
     -3.538539     22.719985     22.719985     45.439971
     -3.528529     19.938334     19.938334     39.876668
     -3.518519     17.481789     17.481789     34.963578
     -3.508509     15.163598     15.163598     30.327197
     -3.498498     12.915859     12.915859     25.831718
     -3.488488     10.853166     10.853166     21.706332
     -3.478478      9.256076      9.256076     18.512152
     -3.468468      8.481658      8.481658     16.963315
     -3.458458      8.833426      8.833426     17.666852
     -3.448448     10.430743     10.430743     20.861486
     -3.438438     13.116259     13.116259     26.232518
     -3.428428     16.437388     16.437388     32.874776
     -3.418418     19.728646     19.728646     39.457291
     -3.408408     22.292952     22.292952     44.585904
     -3.398398     23.632560     23.632560     47.265120
     -3.388388     23.639537     23.639537     47.279073
     -3.378378     22.656325     22.656325     45.312650
     -3.368368     21.370431     21.370431     42.740862
     -3.358358     20.585791     20.585791     41.171582
     -3.348348     20.967153     20.967153     41.934306
     -3.338338     22.850798     22.850798     45.701595
     -3.328328     26.166128     26.166128     52.332256
     -3.318318     30.460454     30.460454     60.920908
     -3.308308     34.998647     34.998647     69.997294
     -3.298298     38.918248     38.918248     77.836495
     -3.288288     41.426827     41.426827     82.853654
     -3.278278     42.007249     42.007249     84.014497
     -3.268268     40.562096     40.562096     81.124192
     -3.258258     37.424002     37.424002     74.848003
     -3.248248     33.210902     33.210902     66.421803
     -3.238238     28.589480     28.589480     57.178959
     -3.228228     24.064281     24.064281     48.128563
     -3.218218     19.889484     19.889484     39.778968
     -3.208208     16.119550     16.119550     32.239100
     -3.198198     12.735019     12.735019     25.470038
     -3.188188      9.754912      9.754912     19.509825
     -3.178178      7.283034      7.283034     14.566068
     -3.168168      5.492217      5.492217     10.984435
     -3.158158      4.583210      4.583210      9.166421
     -3.148148      4.747992      4.747992      9.495984
     -3.138138      6.139202      6.139202     12.278403
     -3.128128      8.828272      8.828272     17.656545
     -3.118118     12.742120     12.742120     25.484240
     -3.108108     17.596112     17.596112     35.192223
     -3.098098     22.866881     22.866881     45.733762
     -3.088088     27.848705     27.848705     55.697410
     -3.078078     31.802937     31.802937     63.605874
     -3.068068     34.156478     34.156478     68.312955
     -3.058058     34.665428     34.665428     69.330856
     -3.048048     33.464656     33.464656     66.929313
     -3.038038     30.978079     30.978079     61.956157
     -3.028028     27.738477     27.738477     55.476954
     -3.018018     24.212692     24.212692     48.425383
     -3.008008     20.716737     20.716737     41.433474
     -2.997998     17.444534     17.444534     34.889067
     -2.987988     14.565841     14.565841     29.131682
     -2.977978     12.316945     12.316945     24.633890
     -2.967968     11.024688     11.024688     22.049377
     -2.957958     11.049376     11.049376     22.098752
     -2.947948     12.672538     12.672538     25.345076
     -2.937938     15.974006     15.974006     31.948012
     -2.927928     20.742330     20.742330     41.484661
     -2.917918     26.453703     26.453703     52.907405
     -2.907908     32.340375     32.340375     64.680750
     -2.897898     37.546081     37.546081     75.092162
     -2.887888     41.332908     41.332908     82.665817
     -2.877878     43.273483     43.273483     86.546965
     -2.867868     43.353798     43.353798     86.707596
     -2.857858     41.938723     41.938723     83.877446
     -2.847848     39.608229     39.608229     79.216458
     -2.837838     36.932167     36.932167     73.864335
     -2.827828     34.282455     34.282455     68.564910
     -2.817818     31.763650     31.763650     63.527300
     -2.807808     29.282478     29.282478     58.564956
     -2.797798     26.705484     26.705484     53.410967
     -2.787788     24.011155     24.011155     48.022311
     -2.777778     21.352725     21.352725     42.705450
     -2.767768     19.003996     19.003996     38.007993
     -2.757758     17.230013     17.230013     34.460027
     -2.747748     16.166363     16.166363     32.332726
     -2.737738     15.780838     15.780838     31.561677
     -2.727728     15.935387     15.935387     31.870774
     -2.717718     16.499493     16.499493     32.998985
     -2.707708     17.431797     17.431797     34.863594
     -2.697698     18.769526     18.769526     37.539053
     -2.687688     20.532402     20.532402     41.064805
     -2.677678     22.613989     22.613989     45.227978
     -2.667668     24.750179     24.750179     49.500358
     -2.657658     26.605299     26.605299     53.210599
     -2.647648     27.932568     27.932568     55.865137
     -2.637638     28.707269     28.707269     57.414538
     -2.627628     29.142693     29.142693     58.285386
     -2.617618     29.574377     29.574377     59.148753
     -2.607608     30.283034     30.283034     60.566069
     -2.597598     31.359547     31.359547     62.719094
     -2.587588     32.676378     32.676378     65.352756
     -2.577578     33.954600     33.954600     67.909200
     -2.567568     34.864311     34.864311     69.728623
     -2.557558     35.102529     35.102529     70.205058
     -2.547548     34.438712     34.438712     68.877423
     -2.537538     32.755152     32.755152     65.510304
     -2.527528     30.103553     30.103553     60.207105
     -2.517518     26.760291     26.760291     53.520581
     -2.507508     23.231927     23.231927     46.463854
     -2.497497     20.171845     20.171845     40.343690
     -2.487487     18.214970     18.214970     36.429939
     -2.477477     17.787754     17.787754     35.575508
     -2.467467     18.972229     18.972229     37.944458
     -2.457457     21.484685     21.484685     42.969371
     -2.447447     24.782723     24.782723     49.565447
     -2.437437     28.260564     28.260564     56.521129
     -2.427427     31.453425     31.453425     62.906850
     -2.417417     34.164124     34.164124     68.328248
     -2.407407     36.455510     36.455510     72.911020
     -2.397397     38.511701     38.511701     77.023401
     -2.387387     40.435037     40.435037     80.870074
     -2.377377     42.083202     42.083202     84.166404
     -2.367367     43.039804     43.039804     86.079608
     -2.357357     42.750744     42.750744     85.501488
     -2.347347     40.773593     40.773593     81.547185
     -2.337337     37.022530     37.022530     74.045060
     -2.327327     31.886959     31.886959     63.773918
     -2.317317     26.164432     26.164432     52.328865
     -2.307307     20.841875     20.841875     41.683750
     -2.297297     16.826732     16.826732     33.653463
     -2.287287     14.735383     14.735383     29.470766
     -2.277277     14.798120     14.798120     29.596241
     -2.267267     16.877768     16.877768     33.755537
     -2.257257     20.559808     20.559808     41.119616
     -2.247247     25.266047     25.266047     50.532094
     -2.237237     30.358669     30.358669     60.717339
     -2.227227     35.219492     35.219492     70.438984
     -2.217217     39.302339     39.302339     78.604677
     -2.207207     42.165466     42.165466     84.330933
     -2.197197     43.497169     43.497169     86.994338
     -2.187187     43.147505     43.147505     86.295011
     -2.177177     41.167478     41.167478     82.334956
     -2.167167     37.836262     37.836262     75.672524
     -2.157157     33.641805     33.641805     67.283609
     -2.147147     29.189097     29.189097     58.378193
     -2.137137     25.048311     25.048311     50.096623
     -2.127127     21.600757     21.600757     43.201514
     -2.117117     18.958416     18.958416     37.916831
     -2.107107     17.001255     17.001255     34.002509
     -2.097097     15.510213     15.510213     31.020426
     -2.087087     14.316613     14.316613     28.633226
     -2.077077     13.381020     13.381020     26.762040
     -2.067067     12.762393     12.762393     25.524786
     -2.057057     12.509333     12.509333     25.018665
     -2.047047     12.552581     12.552581     25.105162
     -2.037037     12.672830     12.672830     25.345660
     -2.027027     12.566992     12.566992     25.133983
     -2.017017     11.974430     11.974430     23.948860
     -2.007007     10.791082     10.791082     21.582164
     -1.996997      9.111942      9.111942     18.223883
     -1.986987      7.188426      7.188426     14.376852
     -1.976977      5.334463      5.334463     10.668926
     -1.966967      3.834997      3.834997      7.669994
     -1.956957      2.895845      2.895845      5.791689
     -1.946947      2.640160      2.640160      5.280320
     -1.936937      3.128393      3.128393      6.256785
     -1.926927      4.371545      4.371545      8.743090
     -1.916917      6.321807      6.321807     12.643614
     -1.906907      8.847703      8.847703     17.695406
     -1.896897     11.716976     11.716976     23.433951
     -1.886887     14.609953     14.609953     29.219906
     -1.876877     17.170602     17.170602     34.341205
     -1.866867     19.082700     19.082700     38.165399
     -1.856857     20.146275     20.146275     40.292549
     -1.846847     20.328948     20.328948     40.657895
     -1.836837     19.773967     19.773967     39.547933
     -1.826827     18.756879     18.756879     37.513758
     -1.816817     17.596388     17.596388     35.192777
     -1.806807     16.543846     16.543846     33.087691
     -1.796797     15.693708     15.693708     31.387416
     -1.786787     14.958790     14.958790     29.917581
     -1.776777     14.128646     14.128646     28.257293
     -1.766767     12.986058     12.986058     25.972115
     -1.756757     11.422904     11.422904     22.845807
     -1.746747      9.497467      9.497467     18.994934
     -1.736737      7.411212      7.411212     14.822424
     -1.726727      5.429209      5.429209     10.858419
     -1.716717      3.793957      3.793957      7.587914
     -1.706707      2.674127      2.674127      5.348254
     -1.696697      2.158943      2.158943      4.317885
     -1.686687      2.278731      2.278731      4.557462
     -1.676677      3.020925      3.020925      6.041850
     -1.666667      4.321899      4.321899      8.643798
     -1.656657      6.039208      6.039208     12.078416
     -1.646647      7.930620      7.930620     15.861240
     -1.636637      9.671785      9.671785     19.343570
     -1.626627     10.927729     10.927729     21.855458
