# EIG2DOS: Utility for SIESTA to obtain the electronic density of states
#  E. Artacho, Apr 1999, A. Garcia, Apr 2012
#  Nick R. Papior, Feb 2017
# ------------------------------------------
# Eigenvalues calculated from a non-polarized calculation
# Eigenvalues read from siesta.EIG
# Kpoint weights read from siesta.KP
# Using smearing parameter:   0.0500
# Using 1000 points in the energy range
# Selected bands: 1 to: 2981
# Emin, Emax in file for selected band(s):    -27.0370816    218.3098330
# Nbands, Nspin, Nk   =   2981     1     1
# E_F                 =    -4.3023 eV --> (shifted to ZERO)
# Broadening          =     0.0500 eV
#
#        E            N(up)  (=)   N(down)         Ntot
     -5.000000     46.116253     46.116253     92.232506
     -4.989990     49.340547     49.340547     98.681094
     -4.979980     50.951255     50.951255    101.902510
     -4.969970     50.858032     50.858032    101.716064
     -4.959960     49.211364     49.211364     98.422727
     -4.949950     46.343157     46.343157     92.686314
     -4.939940     42.690694     42.690694     85.381389
     -4.929930     38.742511     38.742511     77.485023
     -4.919920     35.021789     35.021789     70.043577
     -4.909910     32.090915     32.090915     64.181829
     -4.899900     30.536316     30.536316     61.072631
     -4.889890     30.889010     30.889010     61.778019
     -4.879880     33.464003     33.464003     66.928006
     -4.869870     38.158713     38.158713     76.317426
     -4.859860     44.310590     44.310590     88.621181
     -4.849850     50.730629     50.730629    101.461257
     -4.839840     55.968715     55.968715    111.937429
     -4.829830     58.745306     58.745306    117.490611
     -4.819820     58.372815     58.372815    116.745631
     -4.809810     54.970055     54.970055    109.940110
     -4.799800     49.370145     49.370145     98.740291
     -4.789790     42.779907     42.779907     85.559813
     -4.779780     36.365836     36.365836     72.731673
     -4.769770     30.948664     30.948664     61.897328
     -4.759760     26.896665     26.896665     53.793329
     -4.749750     24.192200     24.192200     48.384399
     -4.739740     22.579876     22.579876     45.159752
     -4.729730     21.709016     21.709016     43.418033
     -4.719720     21.227425     21.227425     42.454849
     -4.709710     20.826089     20.826089     41.652178
     -4.699700     20.255818     20.255818     40.511636
     -4.689690     19.339846     19.339846     38.679692
     -4.679680     17.999101     17.999101     35.998201
     -4.669670     16.292432     16.292432     32.584864
     -4.659660     14.456495     14.456495     28.912990
     -4.649650     12.917898     12.917898     25.835797
     -4.639640     12.251742     12.251742     24.503483
     -4.629630     13.075184     13.075184     26.150368
     -4.619620     15.885317     15.885317     31.770633
     -4.609610     20.872795     20.872795     41.745591
     -4.599600     27.765371     27.765371     55.530743
     -4.589590     35.771815     35.771815     71.543629
     -4.579580     43.688580     43.688580     87.377159
     -4.569570     50.182346     50.182346    100.364692
     -4.559560     54.179668     54.179668    108.359336
     -4.549550     55.221860     55.221860    110.443721
     -4.539540     53.630322     53.630322    107.260643
     -4.529530     50.396454     50.396454    100.792908
     -4.519520     46.831101     46.831101     93.662203
     -4.509510     44.116126     44.116126     88.232252
     -4.499499     42.937874     42.937874     85.875748
     -4.489489     43.334187     43.334187     86.668375
     -4.479479     44.785318     44.785318     89.570636
     -4.469469     46.478978     46.478978     92.957955
     -4.459459     47.624951     47.624951     95.249903
     -4.449449     47.699624     47.699624     95.399247
     -4.439439     46.550926     46.550926     93.101852
     -4.429429     44.360445     44.360445     88.720890
     -4.419419     41.513332     41.513332     83.026664
     -4.409409     38.449512     38.449512     76.899025
     -4.399399     35.556482     35.556482     71.112965
     -4.389389     33.125233     33.125233     66.250466
     -4.379379     31.350098     31.350098     62.700196
     -4.369369     30.335402     30.335402     60.670805
     -4.359359     30.086338     30.086338     60.172676
     -4.349349     30.493797     30.493797     60.987594
     -4.339339     31.344205     31.344205     62.688410
     -4.329329     32.376044     32.376044     64.752089
     -4.319319     33.371447     33.371447     66.742894
     -4.309309     34.241245     34.241245     68.482489
     -4.299299     35.058820     35.058820     70.117640
     -4.289289     36.022450     36.022450     72.044900
     -4.279279     37.357954     37.357954     74.715907
     -4.269269     39.194726     39.194726     78.389451
     -4.259259     41.456179     41.456179     82.912359
     -4.249249     43.807501     43.807501     87.615003
     -4.239239     45.698724     45.698724     91.397449
     -4.229229     46.516559     46.516559     93.033118
     -4.219219     45.807991     45.807991     91.615983
     -4.209209     43.484015     43.484015     86.968031
     -4.199199     39.896229     39.896229     79.792458
     -4.189189     35.730234     35.730234     71.460469
     -4.179179     31.756888     31.756888     63.513776
     -4.169169     28.563397     28.563397     57.126795
     -4.159159     26.395387     26.395387     52.790774
     -4.149149     25.173804     25.173804     50.347608
     -4.139139     24.653765     24.653765     49.307530
     -4.129129     24.624720     24.624720     49.249441
     -4.119119     25.042433     25.042433     50.084867
     -4.109109     26.026176     26.026176     52.052351
     -4.099099     27.723913     27.723913     55.447826
     -4.089089     30.116813     30.116813     60.233626
     -4.079079     32.875448     32.875448     65.750896
     -4.069069     35.368532     35.368532     70.737065
     -4.059059     36.853119     36.853119     73.706238
     -4.049049     36.771935     36.771935     73.543870
     -4.039039     35.009939     35.009939     70.019877
     -4.029029     31.972397     31.972397     63.944794
     -4.019019     28.442699     28.442699     56.885398
     -4.009009     25.300219     25.300219     50.600438
     -3.998999     23.246800     23.246800     46.493601
     -3.988989     22.663832     22.663832     45.327663
     -3.978979     23.627147     23.627147     47.254294
     -3.968969     26.014787     26.014787     52.029575
     -3.958959     29.612864     29.612864     59.225727
     -3.948949     34.164875     34.164875     68.329751
     -3.938939     39.376245     39.376245     78.752490
     -3.928929     44.922632     44.922632     89.845264
     -3.918919     50.493460     50.493460    100.986919
     -3.908909     55.852979     55.852979    111.705958
     -3.898899     60.866154     60.866154    121.732307
     -3.888889     65.447628     65.447628    130.895255
     -3.878879     69.443957     69.443957    138.887914
     -3.868869     72.516346     72.516346    145.032693
     -3.858859     74.112618     74.112618    148.225236
     -3.848849     73.583290     73.583290    147.166579
     -3.838839     70.420690     70.420690    140.841380
     -3.828829     64.523083     64.523083    129.046166
     -3.818819     56.354597     56.354597    112.709193
     -3.808809     46.909958     46.909958     93.819916
     -3.798799     37.482503     37.482503     74.965006
     -3.788789     29.324072     29.324072     58.648145
     -3.778779     23.326852     23.326852     46.653703
     -3.768769     19.834216     19.834216     39.668432
     -3.758759     18.623910     18.623910     37.247820
     -3.748749     19.042359     19.042359     38.084718
     -3.738739     20.230926     20.230926     40.461853
     -3.728729     21.376414     21.376414     42.752828
     -3.718719     21.926733     21.926733     43.853465
     -3.708709     21.726326     21.726326     43.452652
     -3.698699     21.041041     21.041041     42.082082
     -3.688689     20.461724     20.461724     40.923448
     -3.678679     20.703256     20.703256     41.406511
     -3.668669     22.348905     22.348905     44.697810
     -3.658659     25.618315     25.618315     51.236631
     -3.648649     30.244417     30.244417     60.488834
     -3.638639     35.515817     35.515817     71.031634
     -3.628629     40.478714     40.478714     80.957428
     -3.618619     44.222059     44.222059     88.444117
     -3.608609     46.131387     46.131387     92.262773
     -3.598599     46.016991     46.016991     92.033982
     -3.588589     44.089754     44.089754     88.179508
     -3.578579     40.828774     40.828774     81.657548
     -3.568569     36.815556     36.815556     73.631111
     -3.558559     32.592128     32.592128     65.184256
     -3.548549     28.564290     28.564290     57.128580
     -3.538539     24.950394     24.950394     49.900788
     -3.528529     21.777661     21.777661     43.555322
     -3.518519     18.931631     18.931631     37.863262
     -3.508509     16.250814     16.250814     32.501629
     -3.498498     13.633264     13.633264     27.266529
     -3.488488     11.108539     11.108539     22.217078
     -3.478478      8.843289      8.843289     17.686578
     -3.468468      7.082499      7.082499     14.164999
     -3.458458      6.056981      6.056981     12.113963
     -3.448448      5.894811      5.894811     11.789621
     -3.438438      6.564050      6.564050     13.128099
     -3.428428      7.860992      7.860992     15.721985
     -3.418418      9.450184      9.450184     18.900368
     -3.408408     10.954155     10.954155     21.908311
     -3.398398     12.074312     12.074312     24.148625
     -3.388388     12.703472     12.703472     25.406944
     -3.378378     12.981607     12.981607     25.963215
     -3.368368     13.263556     13.263556     26.527111
     -3.358358     14.006207     14.006207     28.012413
     -3.348348     15.619461     15.619461     31.238921
     -3.338338     18.335459     18.335459     36.670918
     -3.328328     22.130113     22.130113     44.260226
     -3.318318     26.700314     26.700314     53.400628
     -3.308308     31.486453     31.486453     62.972906
     -3.298298     35.740325     35.740325     71.480650
     -3.288288     38.652078     38.652078     77.304155
     -3.278278     39.537223     39.537223     79.074445
     -3.268268     38.041423     38.041423     76.082846
     -3.258258     34.279597     34.279597     68.559194
     -3.248248     28.830602     28.830602     57.661203
     -3.238238     22.571206     22.571206     45.142413
     -3.228228     16.416019     16.416019     32.832038
     -3.218218     11.076300     11.076300     22.152601
     -3.208208      6.930498      6.930498     13.860997
     -3.198198      4.032655      4.032655      8.065310
     -3.188188      2.219461      2.219461      4.438922
     -3.178178      1.248860      1.248860      2.497720
     -3.168168      0.915582      0.915582      1.831164
     -3.158158      1.119341      1.119341      2.238682
     -3.148148      1.885363      1.885363      3.770726
     -3.138138      3.344746      3.344746      6.689491
     -3.128128      5.679898      5.679898     11.359797
     -3.118118      9.040315      9.040315     18.080629
     -3.108108     13.443949     13.443949     26.887898
     -3.098098     18.696140     18.696140     37.392280
     -3.088088     24.367694     24.367694     48.735388
     -3.078078     29.861259     29.861259     59.722517
     -3.068068     34.556856     34.556856     69.113713
     -3.058058     37.980525     37.980525     75.961050
     -3.048048     39.916256     39.916256     79.832512
     -3.038038     40.405727     40.405727     80.811455
     -3.028028     39.646166     39.646166     79.292333
     -3.018018     37.862163     37.862163     75.724327
     -3.008008     35.242807     35.242807     70.485613
     -2.997998     31.984531     31.984531     63.969062
     -2.987988     28.397694     28.397694     56.795389
     -2.977978     24.982437     24.982437     49.964875
     -2.967968     22.395134     22.395134     44.790267
     -2.957958     21.296314     21.296314     42.592629
     -2.947948     22.143076     22.143076     44.286153
     -2.937938     25.018378     25.018378     50.036757
     -2.927928     29.567504     29.567504     59.135009
     -2.917918     35.062173     35.062173     70.124346
     -2.907908     40.566352     40.566352     81.132704
     -2.897898     45.151896     45.151896     90.303792
     -2.887888     48.106444     48.106444     96.212888
     -2.877878     49.082737     49.082737     98.165473
     -2.867868     48.152245     48.152245     96.304491
     -2.857858     45.747138     45.747138     91.494276
     -2.847848     42.504341     42.504341     85.008682
     -2.837838     39.059050     39.059050     78.118101
     -2.827828     35.858824     35.858824     71.717648
     -2.817818     33.067412     33.067412     66.134823
     -2.807808     30.593150     30.593150     61.186301
     -2.797798     28.221668     28.221668     56.443337
     -2.787788     25.783414     25.783414     51.566828
     -2.777778     23.270751     23.270751     46.541502
     -2.767768     20.848297     20.848297     41.696594
     -2.757758     18.760155     18.760155     37.520309
     -2.747748     17.195799     17.195799     34.391598
     -2.737738     16.198618     16.198618     32.397237
     -2.727728     15.672799     15.672799     31.345598
     -2.717718     15.480919     15.480919     30.961837
     -2.707708     15.564826     15.564826     31.129652
     -2.697698     16.004933     16.004933     32.009866
     -2.687688     16.971414     16.971414     33.942828
     -2.677678     18.592417     18.592417     37.184835
     -2.667668     20.823166     20.823166     41.646332
     -2.657658     23.405564     23.405564     46.811128
     -2.647648     25.953650     25.953650     51.907301
     -2.637638     28.119313     28.119313     56.238627
     -2.627628     29.739103     29.739103     59.478205
     -2.617618     30.874848     30.874848     61.749695
     -2.607608     31.731244     31.731244     63.462489
     -2.597598     32.512428     32.512428     65.024855
     -2.587588     33.309667     33.309667     66.619335
     -2.577578     34.075018     34.075018     68.150036
     -2.567568     34.666468     34.666468     69.332936
     -2.557558     34.907998     34.907998     69.815995
     -2.547548     34.623572     34.623572     69.247143
     -2.537538     33.653592     33.653592     67.307185
     -2.527528     31.892231     31.892231     63.784462
     -2.517518     29.363120     29.363120     58.726240
     -2.507508     26.299174     26.299174     52.598349
     -2.497497     23.160377     23.160377     46.320754
     -2.487487     20.544680     20.544680     41.089360
     -2.477477     19.009416     19.009416     38.018832
     -2.467467     18.879380     18.879380     37.758760
     -2.457457     20.133680     20.133680     40.267359
     -2.447447     22.428278     22.428278     44.856555
     -2.437437     25.246396     25.246396     50.492792
     -2.427427     28.108176     28.108176     56.216352
     -2.417417     30.742507     30.742507     61.485015
     -2.407407     33.140681     33.140681     66.281361
     -2.397397     35.466873     35.466873     70.933746
     -2.387387     37.869868     37.869868     75.739735
     -2.377377     40.291358     40.291358     80.582716
     -2.367367     42.373352     42.373352     84.746704
     -2.357357     43.524695     43.524695     87.049391
     -2.347347     43.131942     43.131942     86.263884
     -2.337337     40.826980     40.826980     81.653960
     -2.327327     36.690216     36.690216     73.380432
     -2.317317     31.294243     31.294243     62.588485
     -2.307307     25.567343     25.567343     51.134686
     -2.297297     20.538070     20.538070     41.076139
     -2.287287     17.066509     17.066509     34.133018
     -2.277277     15.655980     15.655980     31.311961
     -2.267267     16.388599     16.388599     32.777199
     -2.257257     18.974855     18.974855     37.949710
     -2.247247     22.875912     22.875912     45.751823
     -2.237237     27.449755     27.449755     54.899509
     -2.227227     32.078160     32.078160     64.156320
     -2.217217     36.244411     36.244411     72.488823
     -2.207207     39.552693     39.552693     79.105386
     -2.197197     41.707622     41.707622     83.415244
     -2.187187     42.493697     42.493697     84.987395
     -2.177177     41.791655     41.791655     83.583311
     -2.167167     39.636027     39.636027     79.272055
     -2.157157     36.274095     36.274095     72.548190
     -2.147147     32.164931     32.164931     64.329863
     -2.137137     27.881938     27.881938     55.763875
     -2.127127     23.942944     23.942944     47.885889
     -2.117117     20.647148     20.647148     41.294296
     -2.107107     18.005350     18.005350     36.010700
     -2.097097     15.800038     15.800038     31.600076
     -2.087087     13.737646     13.737646     27.475293
     -2.077077     11.607031     11.607031     23.214063
     -2.067067      9.365311      9.365311     18.730622
     -2.057057      7.123946      7.123946     14.247891
     -2.047047      5.065504      5.065504     10.131008
     -2.037037      3.349325      3.349325      6.698649
     -2.027027      2.053277      2.053277      4.106555
     -2.017017      1.166263      1.166263      2.332526
     -2.007007      0.617238      0.617238      1.234476
     -1.996997      0.315899      0.315899      0.631799
     -1.986987      0.186275      0.186275      0.372549
     -1.976977      0.186782      0.186782      0.373563
     -1.966967      0.319113      0.319113      0.638226
     -1.956957      0.629937      0.629937      1.259874
     -1.946947      1.205795      1.205795      2.411589
     -1.936937      2.157355      2.157355      4.314710
     -1.926927      3.589028      3.589028      7.178057
     -1.916917      5.555922      5.555922     11.111844
     -1.906907      8.020084      8.020084     16.040168
     -1.896897     10.825290     10.825290     21.650580
     -1.886887     13.707306     13.707306     27.414612
     -1.876877     16.343214     16.343214     32.686427
     -1.866867     18.426168     18.426168     36.852337
     -1.856857     19.741264     19.741264     39.482528
     -1.846847     20.218988     20.218988     40.437975
     -1.836837     19.950856     19.950856     39.901711
     -1.826827     19.160594     19.160594     38.321189
     -1.816817     18.133169     18.133169     36.266338
     -1.806807     17.117714     17.117714     34.235428
     -1.796797     16.237917     16.237917     32.475834
     -1.786787     15.451798     15.451798     30.903595
     -1.776777     14.587337     14.587337     29.174674
     -1.766767     13.442409     13.442409     26.884819
     -1.756757     11.899797     11.899797     23.799594
     -1.746747      9.998772      9.998772     19.997545
     -1.736737      7.932179      7.932179     15.864358
     -1.726727      5.982732      5.982732     11.965464
     -1.716717      4.442616      4.442616      8.885232
     -1.706707      3.557755      3.557755      7.115510
     -1.696697      3.509023      3.509023      7.018047
     -1.686687      4.411195      4.411195      8.822390
     -1.676677      6.298977      6.298977     12.597954
     -1.666667      9.085104      9.085104     18.170209
     -1.656657     12.507173     12.507173     25.014346
     -1.646647     16.105976     16.105976     32.211951
     -1.636637     19.278144     19.278144     38.556288
     -1.626627     21.413806     21.413806     42.827611
