# EIG2DOS: Utility for SIESTA to obtain the electronic density of states
#  E. Artacho, Apr 1999, A. Garcia, Apr 2012
#  Nick R. Papior, Feb 2017
# ------------------------------------------
# Eigenvalues calculated from a non-polarized calculation
# Eigenvalues read from siesta.EIG
# Kpoint weights read from siesta.KP
# Using smearing parameter:   0.0500
# Using 1000 points in the energy range
# Selected bands: 1 to: 2981
# Emin, Emax in file for selected band(s):    -27.2192909    218.3571660
# Nbands, Nspin, Nk   =   2981     1     1
# E_F                 =    -4.2440 eV --> (shifted to ZERO)
# Broadening          =     0.0500 eV
#
#        E            N(up)  (=)   N(down)         Ntot
     -5.000000     32.893232     32.893232     65.786465
     -4.989990     37.121083     37.121083     74.242166
     -4.979980     40.932841     40.932841     81.865681
     -4.969970     43.717306     43.717306     87.434612
     -4.959960     44.983168     44.983168     89.966336
     -4.949950     44.513371     44.513371     89.026741
     -4.939940     42.443516     42.443516     84.887033
     -4.929930     39.243576     39.243576     78.487153
     -4.919920     35.626509     35.626509     71.253017
     -4.909910     32.425027     32.425027     64.850054
     -4.899900     30.461461     30.461461     60.922922
     -4.889890     30.407314     30.407314     60.814628
     -4.879880     32.622902     32.622902     65.245805
     -4.869870     36.999059     36.999059     73.998118
     -4.859860     42.870139     42.870139     85.740277
     -4.849850     49.083323     49.083323     98.166646
     -4.839840     54.260589     54.260589    108.521178
     -4.829830     57.191383     57.191383    114.382766
     -4.819820     57.206139     57.206139    114.412278
     -4.809810     54.367405     54.367405    108.734810
     -4.799800     49.395551     49.395551     98.791101
     -4.789790     43.374892     43.374892     86.749784
     -4.779780     37.384978     37.384978     74.769956
     -4.769770     32.214144     32.214144     64.428289
     -4.759760     28.242580     28.242580     56.485159
     -4.749750     25.485341     25.485341     50.970681
     -4.739740     23.722120     23.722120     47.444240
     -4.729730     22.633675     22.633675     45.267350
     -4.719720     21.897312     21.897312     43.794624
     -4.709710     21.233759     21.233759     42.467518
     -4.699700     20.424467     20.424467     40.848934
     -4.689690     19.326812     19.326812     38.653625
     -4.679680     17.906837     17.906837     35.813673
     -4.669670     16.289240     16.289240     32.578479
     -4.659660     14.801268     14.801268     29.602536
     -4.649650     13.973803     13.973803     27.947607
     -4.639640     14.468285     14.468285     28.936570
     -4.629630     16.921203     16.921203     33.842406
     -4.619620     21.730878     21.730878     43.461756
     -4.609610     28.845173     28.845173     57.690346
     -4.599600     37.632931     37.632931     75.265863
     -4.589590     46.920025     46.920025     93.840050
     -4.579580     55.227287     55.227287    110.454574
     -4.569570     61.165908     61.165908    122.331816
     -4.559560     63.860644     63.860644    127.721287
     -4.549550     63.233640     63.233640    126.467280
     -4.539540     60.023955     60.023955    120.047910
     -4.529530     55.525585     55.525585    111.051170
     -4.519520     51.145754     51.145754    102.291507
     -4.509510     47.955818     47.955818     95.911637
     -4.499499     46.399374     46.399374     92.798747
     -4.489489     46.246834     46.246834     92.493668
     -4.479479     46.782355     46.782355     93.564710
     -4.469469     47.123310     47.123310     94.246619
     -4.459459     46.537528     46.537528     93.075056
     -4.449449     44.647456     44.647456     89.294912
     -4.439439     41.475861     41.475861     82.951721
     -4.429429     37.360401     37.360401     74.720803
     -4.419419     32.809598     32.809598     65.619195
     -4.409409     28.372370     28.372370     56.744740
     -4.399399     24.555423     24.555423     49.110846
     -4.389389     21.777051     21.777051     43.554103
     -4.379379     20.325074     20.325074     40.650148
     -4.369369     20.302875     20.302875     40.605751
     -4.359359     21.583556     21.583556     43.167112
     -4.349349     23.814465     23.814465     47.628930
     -4.339339     26.500526     26.500526     53.001051
     -4.329329     29.151826     29.151826     58.303652
     -4.319319     31.439232     31.439232     62.878464
     -4.309309     33.290345     33.290345     66.580690
     -4.299299     34.883051     34.883051     69.766102
     -4.289289     36.537544     36.537544     73.075087
     -4.279279     38.545989     38.545989     77.091977
     -4.269269     40.999714     40.999714     81.999428
     -4.259259     43.677972     43.677972     87.355944
     -4.249249     46.051772     46.051772     92.103545
     -4.239239     47.425631     47.425631     94.851262
     -4.229229     47.186011     47.186011     94.372022
     -4.219219     45.064355     45.064355     90.128711
     -4.209209     41.292771     41.292771     82.585543
     -4.199199     36.564413     36.564413     73.128827
     -4.189189     31.802767     31.802767     63.605534
     -4.179179     27.843530     27.843530     55.687060
     -4.169169     25.177200     25.177200     50.354401
     -4.159159     23.862529     23.862529     47.725058
     -4.149149     23.627684     23.627684     47.255369
     -4.139139     24.085054     24.085054     48.170107
     -4.129129     24.943266     24.943266     49.886531
     -4.119119     26.116451     26.116451     52.232903
     -4.109109     27.687260     27.687260     55.374521
     -4.099099     29.749955     29.749955     59.499909
     -4.089089     32.219117     32.219117     64.438233
     -4.079079     34.715359     34.715359     69.430718
     -4.069069     36.612469     36.612469     73.224938
     -4.059059     37.251043     37.251043     74.502085
     -4.049049     36.227089     36.227089     72.454178
     -4.039039     33.608942     33.608942     67.217885
     -4.029029     29.964307     29.964307     59.928614
     -4.019019     26.179948     26.179948     52.359897
     -4.009009     23.167036     23.167036     46.334072
     -3.998999     21.595891     21.595891     43.191781
     -3.988989     21.768328     21.768328     43.536656
     -3.978979     23.645980     23.645980     47.291960
     -3.968969     26.971805     26.971805     53.943610
     -3.958959     31.397109     31.397109     62.794218
     -3.948949     36.560440     36.560440     73.120880
     -3.938939     42.120047     42.120047     84.240095
     -3.928929     47.772711     47.772711     95.545421
     -3.918919     53.279959     53.279959    106.559917
     -3.908909     58.487701     58.487701    116.975402
     -3.898899     63.305091     63.305091    126.610181
     -3.888889     67.626163     67.626163    135.252325
     -3.878879     71.222881     71.222881    142.445762
     -3.868869     73.676039     73.676039    147.352078
     -3.858859     74.409605     74.409605    148.819210
     -3.848849     72.848521     72.848521    145.697041
     -3.838839     68.652415     68.652415    137.304829
     -3.828829     61.926208     61.926208    123.852415
     -3.818819     53.304454     53.304454    106.608908
     -3.808809     43.855655     43.855655     87.711310
     -3.798799     34.831213     34.831213     69.662425
     -3.788789     27.349824     27.349824     54.699648
     -3.778779     22.129054     22.129054     44.258107
     -3.768769     19.347046     19.347046     38.694093
     -3.758759     18.661441     18.661441     37.322881
     -3.748749     19.360226     19.360226     38.720453
     -3.738739     20.589127     20.589127     41.178253
     -3.728729     21.592837     21.592837     43.185674
     -3.718719     21.913917     21.913917     43.827834
     -3.708709     21.505359     21.505359     43.010718
     -3.698699     20.728942     20.728942     41.457884
     -3.688689     20.233496     20.233496     40.466993
     -3.678679     20.736580     20.736580     41.473161
     -3.668669     22.765953     22.765953     45.531905
     -3.658659     26.442336     26.442336     52.884671
     -3.648649     31.385912     31.385912     62.771825
     -3.638639     36.793629     36.793629     73.587258
     -3.628629     41.668330     41.668330     83.336659
     -3.618619     45.113115     45.113115     90.226231
     -3.608609     46.574568     46.574568     93.149137
     -3.598599     45.948060     45.948060     91.896121
     -3.588589     43.529955     43.529955     87.059910
     -3.578579     39.868703     39.868703     79.737407
     -3.568569     35.590508     35.590508     71.181016
     -3.558559     31.253883     31.253883     62.507766
     -3.548549     27.252645     27.252645     54.505291
     -3.538539     23.769269     23.769269     47.538538
     -3.528529     20.782197     20.782197     41.564393
     -3.518519     18.130432     18.130432     36.260865
     -3.508509     15.621283     15.621283     31.242566
     -3.498498     13.142032     13.142032     26.284064
     -3.488488     10.727722     10.727722     21.455443
     -3.478478      8.557203      8.557203     17.114405
     -3.468468      6.885373      6.885373     13.770746
     -3.458458      5.946085      5.946085     11.892171
     -3.448448      5.863840      5.863840     11.727681
     -3.438438      6.599801      6.599801     13.199601
     -3.428428      7.944396      7.944396     15.888792
     -3.418418      9.561457      9.561457     19.122914
     -3.408408     11.080730     11.080730     22.161461
     -3.398398     12.218869     12.218869     24.437737
     -3.388388     12.888379     12.888379     25.776759
     -3.378378     13.246710     13.246710     26.493420
     -3.368368     13.656923     13.656923     27.313846
     -3.358358     14.570987     14.570987     29.141973
     -3.348348     16.381751     16.381751     32.763503
     -3.338338     19.296861     19.296861     38.593723
     -3.328328     23.265892     23.265892     46.531784
     -3.318318     27.963565     27.963565     55.927131
     -3.308308     32.822033     32.822033     65.644066
     -3.298298     37.115732     37.115732     74.231464
     -3.288288     40.108148     40.108148     80.216296
     -3.278278     41.245558     41.245558     82.491116
     -3.268268     40.335560     40.335560     80.671120
     -3.258258     37.620614     37.620614     75.241228
     -3.248248     33.689278     33.689278     67.378557
     -3.238238     29.253730     29.253730     58.507460
     -3.228228     24.903609     24.903609     49.807218
     -3.218218     20.960427     20.960427     41.920855
     -3.208208     17.491259     17.491259     34.982518
     -3.198198     14.443984     14.443984     28.887967
     -3.188188     11.806567     11.806567     23.613133
     -3.178178      9.701862      9.701862     19.403724
     -3.168168      8.385579      8.385579     16.771159
     -3.158158      8.170624      8.170624     16.341248
     -3.148148      9.323555      9.323555     18.647110
     -3.138138     11.969942     11.969942     23.939884
     -3.128128     16.027181     16.027181     32.054362
     -3.118118     21.173689     21.173689     42.347378
     -3.108108     26.863264     26.863264     53.726529
     -3.098098     32.392567     32.392567     64.785134
     -3.088088     37.019881     37.019881     74.039761
     -3.078078     40.115134     40.115134     80.230269
     -3.068068     41.302106     41.302106     82.604213
     -3.058058     40.544385     40.544385     81.088770
     -3.048048     38.136788     38.136788     76.273575
     -3.038038     34.596870     34.596870     69.193740
     -3.028028     30.496391     30.496391     60.992783
     -3.018018     26.305462     26.305462     52.610924
     -3.008008     22.318040     22.318040     44.636080
     -2.997998     18.683247     18.683247     37.366493
     -2.987988     15.508400     15.508400     31.016801
     -2.977978     12.963998     12.963998     25.927996
     -2.967968     11.328066     11.328066     22.656132
     -2.957958     10.946215     10.946215     21.892431
     -2.947948     12.125704     12.125704     24.251409
     -2.937938     15.005706     15.005706     30.011412
     -2.927928     19.450234     19.450234     38.900467
     -2.917918     25.003748     25.003748     50.007497
     -2.907908     30.936754     30.936754     61.873509
     -2.897898     36.386006     36.386006     72.772012
     -2.887888     40.559812     40.559812     81.119624
     -2.877878     42.944309     42.944309     85.888617
     -2.867868     43.432249     43.432249     86.864499
     -2.857858     42.317504     42.317504     84.635009
     -2.847848     40.152529     40.152529     80.305058
     -2.837838     37.527897     37.527897     75.055795
     -2.827828     34.869943     34.869943     69.739885
     -2.817818     32.342967     32.342967     64.685933
     -2.807808     29.889362     29.889362     59.778724
     -2.797798     27.371407     27.371407     54.742815
     -2.787788     24.729422     24.729422     49.458845
     -2.777778     22.068712     22.068712     44.137425
     -2.767768     19.633029     19.633029     39.266058
     -2.757758     17.689428     17.689428     35.378857
     -2.747748     16.400085     16.400085     32.800170
     -2.737738     15.761237     15.761237     31.522473
     -2.727728     15.644779     15.644779     31.289559
     -2.717718     15.910636     15.910636     31.821272
     -2.707708     16.510381     16.510381     33.020762
     -2.697698     17.507158     17.507158     35.014317
     -2.687688     18.993707     18.993707     37.987414
     -2.677678     20.963417     20.963417     41.926833
     -2.667668     23.228481     23.228481     46.456962
     -2.657658     25.453818     25.453818     50.907637
     -2.647648     27.298870     27.298870     54.597741
     -2.637638     28.583130     28.583130     57.166261
     -2.627628     29.370233     29.370233     58.740466
     -2.617618     29.916848     29.916848     59.833696
     -2.607608     30.520669     30.520669     61.041338
     -2.597598     31.362769     31.362769     62.725538
     -2.587588     32.431150     32.431150     64.862300
     -2.577578     33.546779     33.546779     67.093558
     -2.567568     34.446329     34.446329     68.892658
     -2.557558     34.858479     34.858479     69.716959
     -2.547548     34.547197     34.547197     69.094393
     -2.537538     33.343319     33.343319     66.686639
     -2.527528     31.197274     31.197274     62.394548
     -2.517518     28.251557     28.251557     56.503114
     -2.507508     24.887074     24.887074     49.774147
     -2.497497     21.687164     21.687164     43.374327
     -2.487487     19.301152     19.301152     38.602305
     -2.477477     18.249222     18.249222     36.498444
     -2.467467     18.750964     18.750964     37.501929
     -2.457457     20.656322     20.656322     41.312643
     -2.447447     23.513487     23.513487     47.026975
     -2.437437     26.747133     26.747133     53.494265
     -2.427427     29.870093     29.870093     59.740186
     -2.417417     32.634633     32.634633     65.269266
     -2.407407     35.055033     35.055033     70.110066
     -2.397397     37.292684     37.292684     74.585368
     -2.387387     39.461944     39.461944     78.923888
     -2.377377     41.457208     41.457208     82.914417
     -2.367367     42.896458     42.896458     85.792916
     -2.357357     43.223565     43.223565     86.447129
     -2.347347     41.933840     41.933840     83.867680
     -2.337337     38.822465     38.822465     77.644930
     -2.327327     34.138639     34.138639     68.277278
     -2.317317     28.571422     28.571422     57.142843
     -2.307307     23.073928     23.073928     46.147856
     -2.297297     18.604882     18.604882     37.209763
     -2.287287     15.891532     15.891532     31.783065
     -2.277277     15.289607     15.289607     30.579213
     -2.267267     16.761223     16.761223     33.522445
     -2.257257     19.945679     19.945679     39.891358
     -2.247247     24.278584     24.278584     48.557168
     -2.237237     29.117567     29.117567     58.235134
     -2.227227     33.844876     33.844876     67.689753
     -2.217217     37.931171     37.931171     75.862341
     -2.207207     40.960567     40.960567     81.921134
     -2.197197     42.633568     42.633568     85.267137
     -2.187187     42.773808     42.773808     85.547616
     -2.177177     41.356384     41.356384     82.712768
     -2.167167     38.549052     38.549052     77.098103
     -2.157157     34.728899     34.728899     69.457798
     -2.147147     30.431839     30.431839     60.863678
     -2.137137     26.223809     26.223809     52.447617
     -2.127127     22.535604     22.535604     45.071209
     -2.117117     19.539697     19.539697     39.079394
     -2.107107     17.135386     17.135386     34.270772
     -2.097097     15.050905     15.050905     30.101810
     -2.087087     13.005449     13.005449     26.010897
     -2.077077     10.845015     10.845015     21.690030
     -2.067067      8.590355      8.590355     17.180710
     -2.057057      6.391963      6.391963     12.783927
     -2.047047      4.436054      4.436054      8.872109
     -2.037037      2.859069      2.859069      5.718138
     -2.027027      1.707295      1.707295      3.414590
     -2.017017      0.944632      0.944632      1.889264
     -2.007007      0.488301      0.488301      0.976603
     -1.996997      0.248287      0.248287      0.496573
     -1.986987      0.155911      0.155911      0.311823
     -1.976977      0.179059      0.179059      0.358117
     -1.966967      0.328281      0.328281      0.656563
     -1.956957      0.657771      0.657771      1.315542
     -1.946947      1.260737      1.260737      2.521475
     -1.936937      2.254742      2.254742      4.509484
     -1.926927      3.753003      3.753003      7.506007
     -1.916917      5.824246      5.824246     11.648493
     -1.906907      8.453491      8.453491     16.906981
     -1.896897     11.522364     11.522364     23.044728
     -1.886887     14.823014     14.823014     29.646027
     -1.876877     18.104033     18.104033     36.208066
     -1.866867     21.128967     21.128967     42.257934
     -1.856857     23.720776     23.720776     47.441552
     -1.846847     25.775061     25.775061     51.550121
     -1.836837     27.243897     27.243897     54.487793
     -1.826827     28.106701     28.106701     56.213402
     -1.816817     28.345965     28.345965     56.691930
     -1.806807     27.937246     27.937246     55.874493
     -1.796797     26.854283     26.854283     53.708566
     -1.786787     25.086734     25.086734     50.173468
     -1.776777     22.666750     22.666750     45.333500
     -1.766767     19.696273     19.696273     39.392547
     -1.756757     16.361045     16.361045     32.722090
     -1.746747     12.917509     12.917509     25.835019
     -1.736737      9.650231      9.650231     19.300463
     -1.726727      6.814792      6.814792     13.629583
     -1.716717      4.591694      4.591694      9.183388
     -1.706707      3.071441      3.071441      6.142882
     -1.696697      2.272278      2.272278      4.544556
     -1.686687      2.172572      2.172572      4.345144
     -1.676677      2.731961      2.731961      5.463922
     -1.666667      3.884152      3.884152      7.768303
     -1.656657      5.504781      5.504781     11.009562
     -1.646647      7.378809      7.378809     14.757619
     -1.636637      9.200606      9.200606     18.401211
     -1.626627     10.628236     10.628236     21.256472
