# EIG2DOS: Utility for SIESTA to obtain the electronic density of states
#  E. Artacho, Apr 1999, A. Garcia, Apr 2012
#  Nick R. Papior, Feb 2017
# ------------------------------------------
# Eigenvalues calculated from a non-polarized calculation
# Eigenvalues read from siesta.EIG
# Kpoint weights read from siesta.KP
# Using smearing parameter:   0.0500
# Using 1000 points in the energy range
# Selected bands: 1 to: 2981
# Emin, Emax in file for selected band(s):    -27.1876570    218.3814510
# Nbands, Nspin, Nk   =   2981     1     1
# E_F                 =    -4.2170 eV --> (shifted to ZERO)
# Broadening          =     0.0500 eV
#
#        E            N(up)  (=)   N(down)         Ntot
     -5.000000     31.547355     31.547355     63.094711
     -4.989990     36.312597     36.312597     72.625194
     -4.979980     40.832061     40.832061     81.664122
     -4.969970     44.362176     44.362176     88.724352
     -4.959960     46.250716     46.250716     92.501432
     -4.949950     46.151494     46.151494     92.302989
     -4.939940     44.146920     44.146920     88.293840
     -4.929930     40.740743     40.740743     81.481486
     -4.919920     36.743587     36.743587     73.487175
     -4.909910     33.106498     33.106498     66.212995
     -4.899900     30.747651     30.747651     61.495303
     -4.889890     30.385596     30.385596     60.771192
     -4.879880     32.377149     32.377149     64.754299
     -4.869870     36.579546     36.579546     73.159092
     -4.859860     42.294807     42.294807     84.589615
     -4.849850     48.365055     48.365055     96.730111
     -4.839840     53.440998     53.440998    106.881997
     -4.829830     56.358027     56.358027    112.716055
     -4.819820     56.480446     56.480446    112.960892
     -4.809810     53.869123     53.869123    107.738246
     -4.799800     49.203698     49.203698     98.407397
     -4.789790     43.505540     43.505540     87.011080
     -4.779780     37.793799     37.793799     75.587598
     -4.769770     32.816952     32.816952     65.633905
     -4.759760     28.940398     28.940398     57.880796
     -4.749750     26.184036     26.184036     52.368071
     -4.739740     24.344305     24.344305     48.688610
     -4.729730     23.125297     23.125297     46.250594
     -4.719720     22.231151     22.231151     44.462303
     -4.709710     21.410226     21.410226     42.820453
     -4.699700     20.470104     20.470104     40.940209
     -4.689690     19.292717     19.292717     38.585434
     -4.679680     17.869801     17.869801     35.739601
     -4.669670     16.355424     16.355424     32.710848
     -4.659660     15.106822     15.106822     30.213644
     -4.649650     14.672900     14.672900     29.345800
     -4.639640     15.700687     15.700687     31.401374
     -4.629630     18.760303     18.760303     37.520606
     -4.619620     24.126729     24.126729     48.253458
     -4.609610     31.588618     31.588618     63.177236
     -4.599600     40.367864     40.367864     80.735727
     -4.589590     49.215785     49.215785     98.431570
     -4.579580     56.696118     56.696118    113.392236
     -4.569570     61.584718     61.584718    123.169436
     -4.559560     63.247795     63.247795    126.495590
     -4.549550     61.847031     61.847031    123.694063
     -4.539540     58.278935     58.278935    116.557870
     -4.529530     53.863568     53.863568    107.727136
     -4.519520     49.901626     49.901626     99.803251
     -4.509510     47.268942     47.268942     94.537884
     -4.499499     46.193850     46.193850     92.387699
     -4.489489     46.281201     46.281201     92.562402
     -4.479479     46.746394     46.746394     93.492788
     -4.469469     46.746578     46.746578     93.493156
     -4.459459     45.673793     45.673793     91.347586
     -4.449449     43.310640     43.310640     86.621281
     -4.439439     39.821873     39.821873     79.643747
     -4.429429     35.628149     35.628149     71.256298
     -4.419419     31.246470     31.246470     62.492939
     -4.409409     27.170536     27.170536     54.341072
     -4.399399     23.816259     23.816259     47.632519
     -4.389389     21.507249     21.507249     43.014499
     -4.379379     20.456330     20.456330     40.912660
     -4.369369     20.722238     20.722238     41.444477
     -4.359359     22.163700     22.163700     44.327399
     -4.349349     24.438658     24.438658     48.877315
     -4.339339     27.081553     27.081553     54.163105
     -4.329329     29.645430     29.645430     59.290861
     -4.319319     31.851474     31.851474     63.702948
     -4.309309     33.676422     33.676422     67.352843
     -4.299299     35.333999     35.333999     70.667998
     -4.289289     37.152026     37.152026     74.304052
     -4.279279     39.388690     39.388690     78.777380
     -4.269269     42.056328     42.056328     84.112657
     -4.259259     44.825980     44.825980     89.651960
     -4.249249     47.068355     47.068355     94.136710
     -4.239239     48.042240     48.042240     96.084480
     -4.229229     47.175538     47.175538     94.351075
     -4.219219     44.325140     44.325140     88.650280
     -4.209209     39.890222     39.890222     79.780444
     -4.199199     34.711016     34.711016     69.422033
     -4.189189     29.788763     29.788763     59.577526
     -4.179179     25.953103     25.953103     51.906206
     -4.169169     23.625769     23.625769     47.251537
     -4.159159     22.772950     22.772950     45.545899
     -4.149149     23.041208     23.041208     46.082417
     -4.139139     23.989366     23.989366     47.978731
     -4.129129     25.298471     25.298471     50.596942
     -4.119119     26.866611     26.866611     53.733222
     -4.109109     28.754979     28.754979     57.509958
     -4.099099     31.021310     31.021310     62.042619
     -4.089089     33.533106     33.533106     67.066211
     -4.079079     35.872412     35.872412     71.744824
     -4.069069     37.408100     37.408100     74.816200
     -4.059059     37.526236     37.526236     75.052473
     -4.049049     35.915007     35.915007     71.830014
     -4.039039     32.756845     32.756845     65.513690
     -4.029029     28.721698     28.721698     57.443395
     -4.019019     24.760839     24.760839     49.521678
     -4.009009     21.804166     21.804166     43.608333
     -3.998999     20.502111     20.502111     41.004221
     -3.988989     21.109989     21.109989     42.219978
     -3.978979     23.525172     23.525172     47.050344
     -3.968969     27.414689     27.414689     54.829378
     -3.958959     32.351561     32.351561     64.703122
     -3.948949     37.909655     37.909655     75.819311
     -3.938939     43.714217     43.714217     87.428434
     -3.928929     49.470263     49.470263     98.940525
     -3.918919     54.980754     54.980754    109.961507
     -3.908909     60.140526     60.140526    120.281052
     -3.898899     64.883193     64.883193    129.766386
     -3.888889     69.082709     69.082709    138.165417
     -3.878879     72.453062     72.453062    144.906124
     -3.868869     74.513803     74.513803    149.027605
     -3.858859     74.670736     74.670736    149.341472
     -3.848849     72.405122     72.405122    144.810244
     -3.838839     67.502527     67.502527    135.005053
     -3.828829     60.220989     60.220989    120.441979
     -3.818819     51.316337     51.316337    102.632673
     -3.808809     41.901317     41.901317     83.802634
     -3.798799     33.184080     33.184080     66.368159
     -3.788789     26.176822     26.176822     52.353643
     -3.778779     21.469212     21.469212     42.938424
     -3.768769     19.128811     19.128811     38.257622
     -3.758759     18.743163     18.743163     37.486326
     -3.748749     19.577150     19.577150     39.154300
     -3.738739     20.795490     20.795490     41.590980
     -3.728729     21.693183     21.693183     43.386365
     -3.718719     21.880551     21.880551     43.761102
     -3.708709     21.379942     21.379942     42.759884
     -3.698699     20.607411     20.607411     41.214821
     -3.688689     20.236171     20.236171     40.472342
     -3.678679     20.969257     20.969257     41.938515
     -3.668669     23.281847     23.281847     46.563694
     -3.658659     27.216943     27.216943     54.433885
     -3.648649     32.314869     32.314869     64.629739
     -3.638639     37.716608     37.716608     75.433217
     -3.628629     42.411897     42.411897     84.823793
     -3.618619     45.537314     45.537314     91.074628
     -3.608609     46.606677     46.606677     93.213354
     -3.598599     45.593504     45.593504     91.187007
     -3.588589     42.860683     42.860683     85.721367
     -3.578579     38.997295     38.997295     77.994591
     -3.568569     34.640382     34.640382     69.280763
     -3.558559     30.333503     30.333503     60.667005
     -3.548549     26.438071     26.438071     52.876142
     -3.538539     23.097014     23.097014     46.194029
     -3.528529     20.252665     20.252665     40.505330
     -3.518519     17.719938     17.719938     35.439876
     -3.508509     15.297980     15.297980     30.595961
     -3.498498     12.879777     12.879777     25.759555
     -3.488488     10.513296     10.513296     21.026593
     -3.478478      8.389867      8.389867     16.779734
     -3.468468      6.771130      6.771130     13.542259
     -3.458458      5.890460      5.890460     11.780921
     -3.448448      5.866291      5.866291     11.732582
     -3.438438      6.651310      6.651310     13.302621
     -3.428428      8.028661      8.028661     16.057323
     -3.418418      9.659455      9.659455     19.318911
     -3.408408     11.177744     11.177744     22.355487
     -3.398398     12.311940     12.311940     24.623880
     -3.388388     12.991320     12.991320     25.982640
     -3.378378     13.390220     13.390220     26.780439
     -3.368368     13.883405     13.883405     27.766809
     -3.358358     14.926093     14.926093     29.852186
     -3.348348     16.905949     16.905949     33.811898
     -3.338338     20.019656     20.019656     40.039312
     -3.328328     24.203901     24.203901     48.407803
     -3.318318     29.122846     29.122846     58.245691
     -3.308308     34.204649     34.204649     68.409298
     -3.298298     38.728158     38.728158     77.456317
     -3.288288     41.963627     41.963627     83.927254
     -3.278278     43.348325     43.348325     86.696649
     -3.268268     42.640323     42.640323     85.280646
     -3.258258     39.979520     39.979520     79.959040
     -3.248248     35.820718     35.820718     71.641436
     -3.238238     30.771955     30.771955     61.543910
     -3.228228     25.421285     25.421285     50.842570
     -3.218218     20.228804     20.228804     40.457609
     -3.208208     15.507803     15.507803     31.015607
     -3.198198     11.465272     11.465272     22.930545
     -3.188188      8.255036      8.255036     16.510072
     -3.178178      6.015661      6.015661     12.031321
     -3.168168      4.890760      4.890760      9.781520
     -3.158158      5.036431      5.036431     10.072863
     -3.148148      6.609597      6.609597     13.219195
     -3.138138      9.721673      9.721673     19.443346
     -3.128128     14.352148     14.352148     28.704295
     -3.118118     20.246106     20.246106     40.492213
     -3.108108     26.849238     26.849238     53.698477
     -3.098098     33.338402     33.338402     66.676803
     -3.088088     38.772534     38.772534     77.545068
     -3.078078     42.329033     42.329033     84.658066
     -3.068068     43.537046     43.537046     87.074092
     -3.058058     42.405959     42.405959     84.811917
     -3.048048     39.388552     39.388552     78.777104
     -3.038038     35.195452     35.195452     70.390904
     -3.028028     30.548822     30.548822     61.097644
     -3.018018     25.988163     25.988163     51.976325
     -3.008008     21.805566     21.805566     43.611133
     -2.997998     18.114124     18.114124     36.228248
     -2.987988     14.985791     14.985791     29.971583
     -2.977978     12.571031     12.571031     25.142062
     -2.967968     11.137857     11.137857     22.275713
     -2.957958     11.018011     11.018011     22.036023
     -2.947948     12.490396     12.490396     24.980792
     -2.937938     15.650037     15.650037     31.300074
     -2.927928     20.309226     20.309226     40.618453
     -2.917918     25.967374     25.967374     51.934748
     -2.907908     31.871542     31.871542     63.743084
     -2.897898     37.166367     37.166367     74.332733
     -2.887888     41.099187     41.099187     82.198373
     -2.877878     43.215056     43.215056     86.430112
     -2.867868     43.466528     43.466528     86.933057
     -2.857858     42.188274     42.188274     84.376547
     -2.847848     39.941528     39.941528     79.883056
     -2.837838     37.293079     37.293079     74.586157
     -2.827828     34.625811     34.625811     69.251622
     -2.817818     32.062471     32.062471     64.124941
     -2.807808     29.526477     29.526477     59.052953
     -2.797798     26.893359     26.893359     53.786718
     -2.787788     24.142200     24.142200     48.284401
     -2.777778     21.422881     21.422881     42.845762
     -2.767768     19.007773     19.007773     38.015546
     -2.757758     17.165023     17.165023     34.330046
     -2.747748     16.034977     16.034977     32.069955
     -2.737738     15.585691     15.585691     31.171383
     -2.727728     15.671107     15.671107     31.342214
     -2.717718     16.148195     16.148195     32.296390
     -2.707708     16.969973     16.969973     33.939947
     -2.697698     18.187292     18.187292     36.374584
     -2.687688     19.855991     19.855991     39.711983
     -2.677678     21.916052     21.916052     43.832105
     -2.667668     24.136026     24.136026     48.272052
     -2.657658     26.176561     26.176561     52.353123
     -2.647648     27.744972     27.744972     55.489943
     -2.637638     28.745411     28.745411     57.490822
     -2.627628     29.326378     29.326378     58.652757
     -2.617618     29.793067     29.793067     59.586135
     -2.607608     30.439585     30.439585     60.879170
     -2.597598     31.401880     31.401880     62.803760
     -2.587588     32.606353     32.606353     65.212707
     -2.577578     33.817633     33.817633     67.635267
     -2.567568     34.730724     34.730724     69.461448
     -2.557558     35.048937     35.048937     70.097873
     -2.547548     34.530818     34.530818     69.061636
     -2.537538     33.030157     33.030157     66.060314
     -2.527528     30.553783     30.553783     61.107567
     -2.517518     27.325072     27.325072     54.650144
     -2.507508     23.805502     23.805502     47.611004
     -2.497497     20.629108     20.629108     41.258217
     -2.487487     18.447744     18.447744     36.895488
     -2.477477     17.738404     17.738404     35.476807
     -2.467467     18.651918     18.651918     37.303836
     -2.457457     20.969691     20.969691     41.939383
     -2.447447     24.190569     24.190569     48.381138
     -2.437437     27.714949     27.714949     55.429897
     -2.427427     31.050543     31.050543     62.101086
     -2.417417     33.951775     33.951775     67.903551
     -2.407407     36.430911     36.430911     72.861823
     -2.397397     38.636498     38.636498     77.272996
     -2.387387     40.659712     40.659712     81.319424
     -2.377377     42.370199     42.370199     84.740398
     -2.367367     43.375962     43.375962     86.751924
     -2.357357     43.144567     43.144567     86.289134
     -2.347347     41.239912     41.239912     82.479823
     -2.337337     37.563317     37.563317     75.126634
     -2.327327     32.478905     32.478905     64.957810
     -2.317317     26.759819     26.759819     53.519639
     -2.307307     21.381473     21.381473     42.762946
     -2.297297     17.256970     17.256970     34.513940
     -2.287287     15.020974     15.020974     30.041949
     -2.277277     14.925572     14.925572     29.851143
     -2.267267     16.851241     16.851241     33.702481
     -2.257257     20.394472     20.394472     40.788944
     -2.247247     24.983848     24.983848     49.967696
     -2.237237     29.988338     29.988338     59.976676
     -2.227227     34.799082     34.799082     69.598164
     -2.217217     38.880523     38.880523     77.761045
     -2.207207     41.798036     41.798036     83.596072
     -2.197197     43.237462     43.237462     86.474923
     -2.187187     43.032816     43.032816     86.065631
     -2.177177     41.206502     41.206502     82.413004
     -2.167167     38.003594     38.003594     76.007188
     -2.157157     33.883230     33.883230     67.766460
     -2.147147     29.435976     29.435976     58.871952
     -2.137137     25.232923     25.232923     50.465847
     -2.127127     21.660892     21.660892     43.321785
     -2.117117     18.822168     18.822168     37.644336
     -2.107107     16.552406     16.552406     33.104813
     -2.097097     14.547668     14.547668     29.095335
     -2.087087     12.531896     12.531896     25.063791
     -2.077077     10.379489     10.379489     20.758978
     -2.067067      8.142153      8.142153     16.284306
     -2.057057      5.987740      5.987740     11.975481
     -2.047047      4.101842      4.101842      8.203684
     -2.037037      2.608272      2.608272      5.216544
     -2.027027      1.538816      1.538816      3.077632
     -2.017017      0.849566      0.849566      1.699132
     -2.007007      0.461682      0.461682      0.923365
     -1.996997      0.303852      0.303852      0.607704
     -1.986987      0.344222      0.344222      0.688445
     -1.976977      0.609574      0.609574      1.219148
     -1.966967      1.192398      1.192398      2.384796
     -1.956957      2.242846      2.242846      4.485692
     -1.946947      3.938234      3.938234      7.876469
     -1.936937      6.425061      6.425061     12.850122
     -1.926927      9.741044      9.741044     19.482089
     -1.916917     13.743208     13.743208     27.486415
     -1.906907     18.079933     18.079933     36.159866
     -1.896897     22.236501     22.236501     44.473002
     -1.886887     25.652505     25.652505     51.305010
     -1.876877     27.871328     27.871328     55.742655
     -1.866867     28.662169     28.662169     57.324338
     -1.856857     28.068851     28.068851     56.137702
     -1.846847     26.376882     26.376882     52.753764
     -1.836837     24.023791     24.023791     48.047582
     -1.826827     21.487575     21.487575     42.975150
     -1.816817     19.178327     19.178327     38.356654
     -1.806807     17.348709     17.348709     34.697417
     -1.796797     16.041301     16.041301     32.082603
     -1.786787     15.095202     15.095202     30.190404
     -1.776777     14.222176     14.222176     28.444352
     -1.766767     13.131319     13.131319     26.262639
     -1.756757     11.650743     11.650743     23.301485
     -1.746747      9.791447      9.791447     19.582893
     -1.736737      7.729167      7.729167     15.458334
     -1.726727      5.724642      5.724642     11.449284
     -1.716717      4.031150      4.031150      8.062300
     -1.706707      2.833886      2.833886      5.667772
     -1.696697      2.236500      2.236500      4.473001
     -1.686687      2.278440      2.278440      4.556881
     -1.676677      2.952333      2.952333      5.904666
     -1.666667      4.199234      4.199234      8.398469
     -1.656657      5.883082      5.883082     11.766165
     -1.646647      7.768741      7.768741     15.537482
     -1.636637      9.535749      9.535749     19.071498
     -1.626627     10.845357     10.845357     21.690715
