# EIG2DOS: Utility for SIESTA to obtain the electronic density of states
#  E. Artacho, Apr 1999, A. Garcia, Apr 2012
#  Nick R. Papior, Feb 2017
# ------------------------------------------
# Eigenvalues calculated from a non-polarized calculation
# Eigenvalues read from siesta.EIG
# Kpoint weights read from siesta.KP
# Using smearing parameter:   0.0500
# Using 1000 points in the energy range
# Selected bands: 1 to: 2981
# Emin, Emax in file for selected band(s):    -27.1090373    218.3321540
# Nbands, Nspin, Nk   =   2981     1     1
# E_F                 =    -4.2738 eV --> (shifted to ZERO)
# Broadening          =     0.0500 eV
#
#        E            N(up)  (=)   N(down)         Ntot
     -5.000000     37.333802     37.333802     74.667605
     -4.989990     39.725080     39.725080     79.450160
     -4.979980     41.719590     41.719590     83.439180
     -4.969970     42.896697     42.896697     85.793395
     -4.959960     42.962306     42.962306     85.924612
     -4.949950     41.831427     41.831427     83.662854
     -4.939940     39.653946     39.653946     79.307891
     -4.929930     36.794359     36.794359     73.588719
     -4.919920     33.787431     33.787431     67.574863
     -4.909910     31.282915     31.282915     62.565830
     -4.899900     29.970867     29.970867     59.941734
     -4.889890     30.463424     30.463424     60.926848
     -4.879880     33.121252     33.121252     66.242504
     -4.869870     37.859281     37.859281     75.718563
     -4.859860     44.021474     44.021474     88.042948
     -4.849850     50.430091     50.430091    100.860182
     -4.839840     55.656946     55.656946    111.313892
     -4.829830     58.448936     58.448936    116.897872
     -4.819820     58.136602     58.136602    116.273205
     -4.809810     54.838598     54.838598    109.677197
     -4.799800     49.369485     49.369485     98.738970
     -4.789790     42.908497     42.908497     85.816994
     -4.779780     36.597583     36.597583     73.195167
     -4.769770     31.243297     31.243297     62.486593
     -4.759760     27.210168     27.210168     54.420336
     -4.749750     24.483159     24.483159     48.966317
     -4.739740     22.812494     22.812494     45.624987
     -4.729730     21.855826     21.855826     43.711653
     -4.719720     21.273112     21.273112     42.546225
     -4.709710     20.770973     20.770973     41.541945
     -4.699700     20.116732     20.116732     40.233464
     -4.689690     19.148161     19.148161     38.296321
     -4.679680     17.798120     17.798120     35.596240
     -4.669670     16.136556     16.136556     32.273112
     -4.659660     14.411615     14.411615     28.823231
     -4.649650     13.058572     13.058572     26.117144
     -4.639640     12.649029     12.649029     25.298059
     -4.629630     13.772061     13.772061     27.544122
     -4.619620     16.864443     16.864443     33.728887
     -4.609610     22.030983     22.030983     44.061967
     -4.599600     28.914189     28.914189     57.828378
     -4.589590     36.678058     36.678058     73.356116
     -4.579580     44.150799     44.150799     88.301598
     -4.569570     50.118419     50.118419    100.236838
     -4.559560     53.689536     53.689536    107.379072
     -4.549550     54.598473     54.598473    109.196946
     -4.539540     53.316165     53.316165    106.632330
     -4.529530     50.906131     50.906131    101.812262
     -4.519520     48.666513     48.666513     97.333026
     -4.509510     47.688302     47.688302     95.376603
     -4.499499     48.492759     48.492759     96.985519
     -4.489489     50.876200     50.876200    101.752399
     -4.479479     54.007290     54.007290    108.014579
     -4.469469     56.727627     56.727627    113.455254
     -4.459459     57.937102     57.937102    115.874204
     -4.449449     56.925680     56.925680    113.851360
     -4.439439     53.547507     53.547507    107.095015
     -4.429429     48.204828     48.204828     96.409657
     -4.419419     41.684502     41.684502     83.369004
     -4.409409     34.933317     34.933317     69.866634
     -4.399399     28.852871     28.852871     57.705743
     -4.389389     24.154269     24.154269     48.308538
     -4.379379     21.271662     21.271662     42.543323
     -4.369369     20.319726     20.319726     40.639452
     -4.359359     21.093487     21.093487     42.186974
     -4.349349     23.124793     23.124793     46.249587
     -4.339339     25.803792     25.803792     51.607584
     -4.329329     28.544278     28.544278     57.088556
     -4.319319     30.941083     30.941083     61.882165
     -4.309309     32.861319     32.861319     65.722637
     -4.299299     34.436324     34.436324     68.872648
     -4.289289     35.961198     35.961198     71.922397
     -4.279279     37.740297     37.740297     75.480593
     -4.269269     39.928792     39.928792     79.857583
     -4.259259     42.418674     42.418674     84.837348
     -4.249249     44.811368     44.811368     89.622736
     -4.239239     46.505082     46.505082     93.010164
     -4.229229     46.890559     46.890559     93.781117
     -4.219219     45.594759     45.594759     91.189518
     -4.209209     42.666877     42.666877     85.333753
     -4.199199     38.605967     38.605967     77.211934
     -4.189189     34.199464     34.199464     68.398927
     -4.179179     30.242233     30.242233     60.484466
     -4.169169     27.272076     27.272076     54.544152
     -4.159159     25.445157     25.445157     50.890315
     -4.149149     24.593840     24.593840     49.187681
     -4.139139     24.413652     24.413652     48.827305
     -4.129129     24.669737     24.669737     49.339474
     -4.119119     25.316817     25.316817     50.633633
     -4.109109     26.477028     26.477028     52.954056
     -4.099099     28.290335     28.290335     56.580670
     -4.089089     30.716874     30.716874     61.433748
     -4.079079     33.404562     33.404562     66.809124
     -4.069069     35.716056     35.716056     71.432112
     -4.059059     36.932605     36.932605     73.865209
     -4.049049     36.551010     36.551010     73.102019
     -4.039039     34.524471     34.524471     69.048941
     -4.029029     31.317706     31.317706     62.635411
     -4.019019     27.746631     27.746631     55.493261
     -4.009009     24.690934     24.690934     49.381867
     -3.998999     22.827583     22.827583     45.655166
     -3.988989     22.500282     22.500282     45.000565
     -3.978979     23.744878     23.744878     47.489756
     -3.968969     26.403096     26.403096     52.806192
     -3.958959     30.231859     30.231859     60.463719
     -3.948949     34.956498     34.956498     69.912995
     -3.938939     40.279625     40.279625     80.559251
     -3.928929     45.890648     45.890648     91.781297
     -3.918919     51.502956     51.502956    103.005911
     -3.908909     56.900480     56.900480    113.800960
     -3.898899     61.946655     61.946655    123.893309
     -3.888889     66.524390     66.524390    133.048780
     -3.878879     70.426147     70.426147    140.852293
     -3.868869     73.261762     73.261762    146.523525
     -3.858859     74.461985     74.461985    148.923971
     -3.848849     73.415333     73.415333    146.830666
     -3.838839     69.703804     69.703804    139.407607
     -3.828829     63.338771     63.338771    126.677541
     -3.818819     54.881080     54.881080    109.762159
     -3.808809     45.373395     45.373395     90.746791
     -3.798799     36.096893     36.096893     72.193786
     -3.788789     28.242414     28.242414     56.484828
     -3.778779     22.617104     22.617104     45.234208
     -3.768769     19.481280     19.481280     38.962560
     -3.758759     18.550228     18.550228     37.100456
     -3.748749     19.137334     19.137334     38.274668
     -3.738739     20.381311     20.381311     40.762622
     -3.728729     21.492684     21.492684     42.985368
     -3.718719     21.962048     21.962048     43.924095
     -3.708709     21.685074     21.685074     43.370148
     -3.698699     20.974466     20.974466     41.948933
     -3.688689     20.450157     20.450157     40.900313
     -3.678679     20.828226     20.828226     41.656451
     -3.668669     22.662768     22.662768     45.325535
     -3.658659     26.121699     26.121699     52.243399
     -3.648649     30.880515     30.880515     61.761030
     -3.638639     36.184566     36.184566     72.369132
     -3.628629     41.065421     41.065421     82.130842
     -3.618619     44.628559     44.628559     89.257119
     -3.608609     46.297569     46.297569     92.595138
     -3.598599     45.926806     45.926806     91.853612
     -3.588589     43.764367     43.764367     87.528734
     -3.578579     40.314463     40.314463     80.628926
     -3.568569     36.172710     36.172710     72.345420
     -3.558559     31.886892     31.886892     63.773784
     -3.548549     27.860924     27.860924     55.721848
     -3.538539     24.302972     24.302972     48.605944
     -3.528529     21.222627     21.222627     42.445253
     -3.518519     18.484440     18.484440     36.968879
     -3.508509     15.908493     15.908493     31.816987
     -3.498498     13.381534     13.381534     26.763067
     -3.488488     10.929911     10.929911     21.859822
     -3.478478      8.722764      8.722764     17.445528
     -3.468468      7.009503      7.009503     14.019005
     -3.458458      6.024265      6.024265     12.048530
     -3.448448      5.896059      5.896059     11.792118
     -3.438438      6.591837      6.591837     13.183674
     -3.428428      7.906215      7.906215     15.812429
     -3.418418      9.503440      9.503440     19.006881
     -3.408408     11.008855     11.008855     22.017710
     -3.398398     12.130440     12.130440     24.260880
     -3.388388     12.770351     12.770351     25.540702
     -3.378378     13.078127     13.078127     26.156254
     -3.368368     13.415332     13.415332     26.830664
     -3.358358     14.240390     14.240390     28.480779
     -3.348348     15.958397     15.958397     31.916794
     -3.338338     18.789848     18.789848     37.579697
     -3.328328     22.691534     22.691534     45.383069
     -3.318318     27.333694     27.333694     54.667388
     -3.308308     32.125620     32.125620     64.251240
     -3.298298     36.292262     36.292262     72.584523
     -3.288288     39.014323     39.014323     78.028646
     -3.278278     39.626518     39.626518     79.253036
     -3.268268     37.823262     37.823262     75.646524
     -3.258258     33.784308     33.784308     67.568617
     -3.248248     28.146478     28.146478     56.292957
     -3.238238     21.816972     21.816972     43.633944
     -3.228228     15.706004     15.706004     31.412009
     -3.218218     10.494987     10.494987     20.989973
     -3.208208      6.527537      6.527537     13.055075
     -3.198198      3.840038      3.840038      7.680076
     -3.188188      2.285070      2.285070      4.570141
     -3.178178      1.677224      1.677224      3.354448
     -3.168168      1.904820      1.904820      3.809639
     -3.158158      2.980081      2.980081      5.960161
     -3.148148      5.023850      5.023850     10.047700
     -3.138138      8.194426      8.194426     16.388852
     -3.128128     12.580267     12.580267     25.160533
     -3.118118     18.088821     18.088821     36.177641
     -3.108108     24.374532     24.374532     48.749064
     -3.098098     30.846899     30.846899     61.693798
     -3.088088     36.775837     36.775837     73.551674
     -3.078078     41.470633     41.470633     82.941266
     -3.068068     44.468275     44.468275     88.936550
     -3.058058     45.650422     45.650422     91.300844
     -3.048048     45.231434     45.231434     90.462867
     -3.038038     43.618896     43.618896     87.237792
     -3.028028     41.215715     41.215715     82.431430
     -3.018018     38.268955     38.268955     76.537910
     -3.008008     34.846954     34.846954     69.693909
     -2.997998     30.950868     30.950868     61.901736
     -2.987988     26.685784     26.685784     53.371569
     -2.977978     22.383370     22.383370     44.766741
     -2.967968     18.602239     18.602239     37.204477
     -2.957958     16.004913     16.004913     32.009826
     -2.947948     15.170167     15.170167     30.340335
     -2.937938     16.415422     16.415422     32.830845
     -2.927928     19.683313     19.683313     39.366627
     -2.917918     24.517713     24.517713     49.035425
     -2.907908     30.135333     30.135333     60.270667
     -2.897898     35.585126     35.585126     71.170252
     -2.887888     39.966543     39.966543     79.933086
     -2.877878     42.649697     42.649697     85.299395
     -2.867868     43.423312     43.423312     86.846624
     -2.857858     42.510480     42.510480     85.020959
     -2.847848     40.440761     40.440761     80.881523
     -2.837838     37.829432     37.829432     75.658864
     -2.827828     35.157697     35.157697     70.315394
     -2.817818     32.646438     32.646438     65.292876
     -2.807808     30.268947     30.268947     60.537893
     -2.797798     27.878864     27.878864     55.757728
     -2.787788     25.374230     25.374230     50.748460
     -2.777778     22.806310     22.806310     45.612621
     -2.767768     20.378782     20.378782     40.757565
     -2.757758     18.348258     18.348258     36.696516
     -2.747748     16.894079     16.894079     33.788158
     -2.737738     16.040809     16.040809     32.081617
     -2.727728     15.681086     15.681086     31.362172
     -2.717718     15.680437     15.680437     31.360873
     -2.707708     15.990409     15.990409     31.980817
     -2.697698     16.688707     16.688707     33.377415
     -2.687688     17.912538     17.912538     35.825076
     -2.677678     19.725032     19.725032     39.450064
     -2.667668     22.005514     22.005514     44.011027
     -2.657658     24.445543     24.445543     48.891086
     -2.647648     26.666191     26.666191     53.332382
     -2.637638     28.390593     28.390593     56.781186
     -2.627628     29.565822     29.565822     59.131644
     -2.617618     30.359518     30.359518     60.719037
     -2.607608     31.038702     31.038702     62.077404
     -2.597598     31.811942     31.811942     63.623883
     -2.587588     32.728859     32.728859     65.457718
     -2.577578     33.678131     33.678131     67.356261
     -2.567568     34.453596     34.453596     68.907193
     -2.557558     34.825778     34.825778     69.651556
     -2.547548     34.582345     34.582345     69.164690
     -2.537538     33.551996     33.551996     67.103993
     -2.527528     31.648977     31.648977     63.297955
     -2.517518     28.948017     28.948017     57.896035
     -2.507508     25.749743     25.749743     51.499487
     -2.497497     22.573875     22.573875     45.147751
     -2.487487     20.046986     20.046986     40.093971
     -2.477477     18.714009     18.714009     37.428017
     -2.467467     18.853870     18.853870     37.707740
     -2.457457     20.386269     20.386269     40.772538
     -2.447447     22.916319     22.916319     45.832638
     -2.437437     25.899627     25.899627     51.799255
     -2.427427     28.854216     28.854216     57.708431
     -2.417417     31.522972     31.522972     63.045944
     -2.407407     33.912017     33.912017     67.824034
     -2.397397     36.188184     36.188184     72.376368
     -2.387387     38.487077     38.487077     76.974155
     -2.377377     40.729569     40.729569     81.459137
     -2.367367     42.545550     42.545550     85.091099
     -2.357357     43.356553     43.356553     86.713106
     -2.347347     42.593203     42.593203     85.186406
     -2.337337     39.954689     39.954689     79.909378
     -2.327327     35.591229     35.591229     71.182458
     -2.317317     30.123597     30.123597     60.247194
     -2.307307     24.490479     24.490479     48.980957
     -2.297297     19.692101     19.692101     39.384202
     -2.287287     16.534849     16.534849     33.069699
     -2.277277     15.462880     15.462880     30.925761
     -2.267267     16.510687     16.510687     33.021375
     -2.257257     19.360475     19.360475     38.720949
     -2.247247     23.462034     23.462034     46.924067
     -2.237237     28.169771     28.169771     56.339543
     -2.227227     32.860006     32.860006     65.720012
     -2.217217     37.004648     37.004648     74.009295
     -2.207207     40.195520     40.195520     80.391041
     -2.197197     42.135835     42.135835     84.271670
     -2.187187     42.631497     42.631497     85.262993
     -2.177177     41.610627     41.610627     83.221255
     -2.167167     39.170911     39.170911     78.341821
     -2.157157     35.617687     35.617687     71.235374
     -2.147147     31.440917     31.440917     62.881834
     -2.137137     27.205570     27.205570     54.411140
     -2.127127     23.386195     23.386195     46.772390
     -2.117117     20.223227     20.223227     40.446454
     -2.107107     17.678046     17.678046     35.356093
     -2.097097     15.511210     15.511210     31.022420
     -2.087087     13.438154     13.438154     26.876308
     -2.077077     11.276685     11.276685     22.553369
     -2.067067      9.015136      9.015136     18.030273
     -2.057057      6.783994      6.783994     13.567988
     -2.047047      4.767604      4.767604      9.535208
     -2.037037      3.114019      3.114019      6.228038
     -2.027027      1.885321      1.885321      3.770641
     -2.017017      1.057599      1.057599      2.115199
     -2.007007      0.553408      0.553408      1.106815
     -1.996997      0.282001      0.282001      0.564002
     -1.986987      0.170545      0.170545      0.341090
     -1.976977      0.181766      0.181766      0.363532
     -1.966967      0.321373      0.321373      0.642746
     -1.956957      0.639268      0.639268      1.278536
     -1.946947      1.224472      1.224472      2.448944
     -1.936937      2.189501      2.189501      4.379001
     -1.926927      3.639904      3.639904      7.279807
     -1.916917      5.630911      5.630911     11.261822
     -1.906907      8.123178      8.123178     16.246355
     -1.896897     10.957058     10.957058     21.914117
     -1.886887     13.862655     13.862655     27.725311
     -1.876877     16.509770     16.509770     33.019539
     -1.866867     18.584670     18.584670     37.169339
     -1.856857     19.869548     19.869548     39.739097
     -1.846847     20.300584     20.300584     40.601169
     -1.836837     19.988060     19.988060     39.976120
     -1.826827     19.190910     19.190910     38.381819
     -1.816817     18.247680     18.247680     36.495360
     -1.806807     17.479530     17.479530     34.959059
     -1.796797     17.096458     17.096458     34.192916
     -1.786787     17.143551     17.143551     34.287102
     -1.776777     17.508568     17.508568     35.017137
     -1.766767     17.980665     17.980665     35.961330
     -1.756757     18.324650     18.324650     36.649300
     -1.746747     18.336240     18.336240     36.672481
     -1.736737     17.868938     17.868938     35.737876
     -1.726727     16.848312     16.848312     33.696623
     -1.716717     15.291716     15.291716     30.583432
     -1.706707     13.331467     13.331467     26.662934
     -1.696697     11.219258     11.219258     22.438516
     -1.686687      9.289727      9.289727     18.579454
     -1.676677      7.881752      7.881752     15.763504
     -1.666667      7.240323      7.240323     14.480646
     -1.656657      7.433664      7.433664     14.867328
     -1.646647      8.316618      8.316618     16.633237
     -1.636637      9.557989      9.557989     19.115977
     -1.626627     10.731355     10.731355     21.462709
