# EIG2DOS: Utility for SIESTA to obtain the electronic density of states
#  E. Artacho, Apr 1999, A. Garcia, Apr 2012
#  Nick R. Papior, Feb 2017
# ------------------------------------------
# Eigenvalues calculated from a non-polarized calculation
# Eigenvalues read from siesta.EIG
# Kpoint weights read from siesta.KP
# Using smearing parameter:   0.0500
# Using 1000 points in the energy range
# Selected bands: 1 to: 2981
# Emin, Emax in file for selected band(s):    -27.0990804    218.3498090
# Nbands, Nspin, Nk   =   2981     1     1
# E_F                 =    -4.2608 eV --> (shifted to ZERO)
# Broadening          =     0.0500 eV
#
#        E            N(up)  (=)   N(down)         Ntot
     -5.000000     34.957300     34.957300     69.914600
     -4.989990     38.473160     38.473160     76.946319
     -4.979980     41.353280     41.353280     82.706560
     -4.969970     43.145279     43.145279     86.290557
     -4.959960     43.558163     43.558163     87.116326
     -4.949950     42.539852     42.539852     85.079703
     -4.939940     40.298657     40.298657     80.597314
     -4.929930     37.272465     37.272465     74.544930
     -4.919920     34.068317     34.068317     68.136634
     -4.909910     31.391481     31.391481     62.782961
     -4.899900     29.961057     29.961057     59.922114
     -4.889890     30.390250     30.390250     60.780501
     -4.879880     33.019153     33.019153     66.038306
     -4.869870     37.732922     37.732922     75.465843
     -4.859860     43.851677     43.851677     87.703355
     -4.849850     50.192001     50.192001    100.384002
     -4.839840     55.341517     55.341517    110.683035
     -4.829830     58.076507     58.076507    116.153014
     -4.819820     57.755342     57.755342    115.510685
     -4.809810     54.509189     54.509189    109.018377
     -4.799800     49.144774     49.144774     98.289548
     -4.789790     42.818188     42.818188     85.636376
     -4.779780     36.643177     36.643177     73.286354
     -4.769770     31.402043     31.402043     62.804085
     -4.759760     27.443383     27.443383     54.886767
     -4.749750     24.745066     24.745066     49.490132
     -4.739740     23.058269     23.058269     46.116538
     -4.729730     22.048789     22.048789     44.097578
     -4.719720     21.390340     21.390340     42.780681
     -4.709710     20.805777     20.805777     41.611554
     -4.699700     20.077073     20.077073     40.154145
     -4.689690     19.052103     19.052103     38.104207
     -4.679680     17.669060     17.669060     35.338121
     -4.669670     16.000754     16.000754     32.001507
     -4.659660     14.298701     14.298701     28.597401
     -4.649650     13.003523     13.003523     26.007046
     -4.639640     12.692803     12.692803     25.385607
     -4.629630     13.958078     13.958078     27.916156
     -4.619620     17.229456     17.229456     34.458911
     -4.609610     22.591934     22.591934     45.183867
     -4.599600     29.657186     29.657186     59.314372
     -4.589590     37.559589     37.559589     75.119178
     -4.579580     45.120610     45.120610     90.241219
     -4.569570     51.164557     51.164557    102.329115
     -4.559560     54.889999     54.889999    109.779999
     -4.549550     56.148516     56.148516    112.297032
     -4.539540     55.497493     55.497493    110.994986
     -4.529530     53.982605     53.982605    107.965211
     -4.519520     52.728466     52.728466    105.456931
     -4.509510     52.507987     52.507987    105.015975
     -4.499499     53.471830     53.471830    106.943660
     -4.489489     55.142289     55.142289    110.284577
     -4.479479     56.652054     56.652054    113.304109
     -4.469469     57.102466     57.102466    114.204933
     -4.459459     55.880547     55.880547    111.761093
     -4.449449     52.819562     52.819562    105.639124
     -4.439439     48.179483     48.179483     96.358967
     -4.429429     42.506485     42.506485     85.012970
     -4.419419     36.463665     36.463665     72.927330
     -4.409409     30.702617     30.702617     61.405235
     -4.399399     25.793421     25.793421     51.586843
     -4.389389     22.186961     22.186961     44.373921
     -4.379379     20.174324     20.174324     40.348648
     -4.369369     19.833547     19.833547     39.667094
     -4.359359     20.990159     20.990159     41.980319
     -4.349349     23.234106     23.234106     46.468212
     -4.339339     26.016095     26.016095     52.032189
     -4.329329     28.802623     28.802623     57.605246
     -4.319319     31.230836     31.230836     62.461672
     -4.309309     33.198219     33.198219     66.396438
     -4.299299     34.851225     34.851225     69.702449
     -4.289289     36.480988     36.480988     72.961975
     -4.279279     38.367558     38.367558     76.735115
     -4.269269     40.625603     40.625603     81.251206
     -4.259259     43.101172     43.101172     86.202344
     -4.249249     45.360369     45.360369     90.720739
     -4.239239     46.793433     46.793433     93.586866
     -4.229229     46.820604     46.820604     93.641208
     -4.219219     45.132618     45.132618     90.265237
     -4.209209     41.858776     41.858776     83.717552
     -4.199199     37.568410     37.568410     75.136820
     -4.189189     33.086873     33.086873     66.173746
     -4.179179     29.205997     29.205997     58.411994
     -4.169169     26.427543     26.427543     52.855086
     -4.159159     24.857163     24.857163     49.714326
     -4.149149     24.281409     24.281409     48.562818
     -4.139139     24.366336     24.366336     48.732672
     -4.129129     24.864848     24.864848     49.729696
     -4.119119     25.728527     25.728527     51.457054
     -4.109109     27.073404     27.073404     54.146809
     -4.099099     29.021144     29.021144     58.042288
     -4.089089     31.501149     31.501149     63.002298
     -4.079079     34.129254     34.129254     68.258508
     -4.069069     36.252974     36.252974     72.505948
     -4.059059     37.171064     37.171064     74.342127
     -4.049049     36.433377     36.433377     72.866755
     -4.039039     34.068112     34.068112     68.136224
     -4.029029     30.612801     30.612801     61.225603
     -4.019019     26.931424     26.931424     53.862847
     -4.009009     23.916102     23.916102     47.832204
     -3.998999     22.223639     22.223639     44.447278
     -3.988989     22.156519     22.156519     44.313038
     -3.978979     23.700951     23.700951     47.401903
     -3.968969     26.650196     26.650196     53.300391
     -3.958959     30.720699     30.720699     61.441397
     -3.948949     35.611144     35.611144     71.222288
     -3.938939     41.016204     41.016204     82.032408
     -3.928929     46.637340     46.637340     93.274680
     -3.918919     52.214662     52.214662    104.429323
     -3.908909     57.561240     57.561240    115.122479
     -3.898899     62.557169     62.557169    125.114337
     -3.888889     67.079630     67.079630    134.159260
     -3.878879     70.894890     70.894890    141.789780
     -3.868869     73.581149     73.581149    147.162298
     -3.858859     74.553576     74.553576    149.107152
     -3.848849     73.217406     73.217406    146.434811
     -3.838839     69.204539     69.204539    138.409077
     -3.828829     62.593178     62.593178    125.186356
     -3.818819     54.002472     54.002472    108.004945
     -3.808809     44.503029     44.503029     89.006058
     -3.798799     35.365158     35.365158     70.730316
     -3.788789     27.736676     27.736676     55.473352
     -3.778779     22.365677     22.365677     44.731354
     -3.768769     19.455072     19.455072     38.910144
     -3.758759     18.677937     18.677937     37.355874
     -3.748749     19.328145     19.328145     38.656289
     -3.738739     20.549420     20.549420     41.098840
     -3.728729     21.578757     21.578757     43.157513
     -3.718719     21.947311     21.947311     43.894621
     -3.708709     21.594685     21.594685     43.189370
     -3.698699     20.868732     20.868732     41.737464
     -3.688689     20.405093     20.405093     40.810187
     -3.678679     20.910249     20.910249     41.820498
     -3.668669     22.904920     22.904920     45.809841
     -3.658659     26.509512     26.509512     53.019024
     -3.648649     31.353179     31.353179     62.706357
     -3.638639     36.651696     36.651696     73.303393
     -3.628629     41.433319     41.433319     82.866639
     -3.618619     44.825891     44.825891     89.651782
     -3.608609     46.291337     46.291337     92.582674
     -3.598599     45.724804     45.724804     91.449609
     -3.588589     43.406515     43.406515     86.813031
     -3.578579     39.858738     39.858738     79.717476
     -3.568569     35.680835     35.680835     71.361670
     -3.558559     31.412468     31.412468     62.824935
     -3.548549     27.441019     27.441019     54.882038
     -3.538539     23.954097     23.954097     47.908194
     -3.528529     20.942130     20.942130     41.884259
     -3.518519     18.257182     18.257182     36.514363
     -3.508509     15.716429     15.716429     31.432859
     -3.498498     13.212269     13.212269     26.424538
     -3.488488     10.780872     10.780872     21.561745
     -3.478478      8.600051      8.600051     17.200102
     -3.468468      6.923038      6.923038     13.846076
     -3.458458      5.982019      5.982019     11.964038
     -3.448448      5.899635      5.899635     11.799270
     -3.438438      6.634577      6.634577     13.269153
     -3.428428      7.974128      7.974128     15.948256
     -3.418418      9.578861      9.578861     19.157722
     -3.408408     11.076230     11.076230     22.152460
     -3.398398     12.182829     12.182829     24.365657
     -3.388388     12.814438     12.814438     25.628875
     -3.378378     13.135673     13.135673     26.271347
     -3.368368     13.520156     13.520156     27.040312
     -3.358358     14.431439     14.431439     28.862877
     -3.348348     16.270204     16.270204     32.540409
     -3.338338     19.241456     19.241456     38.482912
     -3.328328     23.274956     23.274956     46.549912
     -3.318318     28.004446     28.004446     56.008892
     -3.308308     32.800357     32.800357     65.600714
     -3.298298     36.859378     36.859378     73.718757
     -3.288288     39.359560     39.359560     78.719120
     -3.278278     39.667413     39.667413     79.334825
     -3.268268     37.538612     37.538612     75.077225
     -3.258258     33.224085     33.224085     66.448171
     -3.248248     27.416106     27.416106     54.832212
     -3.238238     21.042895     21.042895     42.085790
     -3.228228     14.998511     14.998511     29.997022
     -3.218218      9.923768      9.923768     19.847537
     -3.208208      6.116896      6.116896     12.233792
     -3.198198      3.580423      3.580423      7.160847
     -3.188188      2.151797      2.151797      4.303594
     -3.178178      1.647372      1.647372      3.294745
     -3.168168      1.967069      1.967069      3.934139
     -3.158158      3.136195      3.136195      6.272390
     -3.148148      5.283016      5.283016     10.566032
     -3.138138      8.562907      8.562907     17.125813
     -3.128128     13.049736     13.049736     26.099471
     -3.118118     18.627433     18.627433     37.254867
     -3.108108     24.924616     24.924616     49.849233
     -3.098098     31.331403     31.331403     62.662805
     -3.088088     37.112726     37.112726     74.225453
     -3.078078     41.591500     41.591500     83.182999
     -3.068068     44.335798     44.335798     88.671596
     -3.058058     45.269544     45.269544     90.539089
     -3.048048     44.650820     44.650820     89.301641
     -3.038038     42.921820     42.921820     85.843639
     -3.028028     40.502396     40.502396     81.004792
     -3.018018     37.635043     37.635043     75.270085
     -3.008008     34.364369     34.364369     68.728739
     -2.997998     30.656777     30.656777     61.313554
     -2.987988     26.582726     26.582726     53.165452
     -2.977978     22.449288     22.449288     44.898576
     -2.967968     18.805208     18.805208     37.610416
     -2.957958     16.315673     16.315673     32.631346
     -2.947948     15.567186     15.567186     31.134372
     -2.937938     16.881450     16.881450     33.762901
     -2.927928     20.197024     20.197024     40.394048
     -2.917918     25.046600     25.046600     50.093201
     -2.907908     30.635133     30.635133     61.270266
     -2.897898     36.007239     36.007239     72.014479
     -2.887888     40.270479     40.270479     80.540959
     -2.877878     42.814804     42.814804     85.629607
     -2.867868     43.454376     43.454376     86.908753
     -2.857858     42.434636     42.434636     84.869271
     -2.847848     40.296934     40.296934     80.593867
     -2.837838     37.654665     37.654665     75.309331
     -2.827828     34.976008     34.976008     69.952016
     -2.817818     32.464795     32.464795     64.929590
     -2.807808     30.081833     30.081833     60.163667
     -2.797798     27.678702     27.678702     55.357404
     -2.787788     25.161825     25.161825     50.323650
     -2.777778     22.595444     22.595444     45.190888
     -2.767768     20.192581     20.192581     40.385162
     -2.757758     18.210203     18.210203     36.420407
     -2.747748     16.820101     16.820101     33.640202
     -2.737738     16.038203     16.038203     32.076405
     -2.727728     15.754978     15.754978     31.509957
     -2.717718     15.842317     15.842317     31.684634
     -2.707708     16.260251     16.260251     32.520502
     -2.697698     17.085309     17.085309     34.170618
     -2.687688     18.434844     18.434844     36.869688
     -2.677678     20.335429     20.335429     40.670859
     -2.667668     22.628225     22.628225     45.256450
     -2.657658     24.986341     24.986341     49.972681
     -2.647648     27.046805     27.046805     54.093609
     -2.637638     28.580569     28.580569     57.161138
     -2.627628     29.594173     29.594173     59.188346
     -2.617618     30.299574     30.299574     60.599148
     -2.607608     30.975017     30.975017     61.950034
     -2.597598     31.807188     31.807188     63.614377
     -2.587588     32.805530     32.805530     65.611061
     -2.577578     33.818326     33.818326     67.636653
     -2.567568     34.609988     34.609988     69.219976
     -2.557558     34.935236     34.935236     69.870473
     -2.547548     34.579288     34.579288     69.158575
     -2.537538     33.383620     33.383620     66.767240
     -2.527528     31.293211     31.293211     62.586422
     -2.517518     28.428827     28.428827     56.857654
     -2.507508     25.140314     25.140314     50.280629
     -2.497497     21.981592     21.981592     43.963185
     -2.487487     19.583500     19.583500     39.166999
     -2.477477     18.462329     18.462329     36.924659
     -2.467467     18.846352     18.846352     37.692704
     -2.457457     20.601719     20.601719     41.203438
     -2.447447     23.295180     23.295180     46.590361
     -2.437437     26.368550     26.368550     52.737099
     -2.427427     29.348670     29.348670     58.697340
     -2.417417     31.999376     31.999376     63.998752
     -2.407407     34.346895     34.346895     68.693789
     -2.397397     36.567874     36.567874     73.135748
     -2.387387     38.794757     38.794757     77.589515
     -2.377377     40.936305     40.936305     81.872610
     -2.367367     42.609919     42.609919     85.219838
     -2.357357     43.234244     43.234244     86.468487
     -2.347347     42.254170     42.254170     84.508339
     -2.337337     39.401327     39.401327     78.802654
     -2.327327     34.868658     34.868658     69.737316
     -2.317317     29.315167     29.315167     58.630335
     -2.307307     23.698321     23.698321     47.396643
     -2.297297     19.010400     19.010400     38.020801
     -2.287287     16.027410     16.027410     32.054820
     -2.277277     15.153970     15.153970     30.307940
     -2.267267     16.390920     16.390920     32.781840
     -2.257257     19.402195     19.402195     38.804390
     -2.247247     23.634991     23.634991     47.269982
     -2.237237     28.449099     28.449099     56.898199
     -2.227227     33.223591     33.223591     66.447182
     -2.217217     37.423304     37.423304     74.846609
     -2.207207     40.623942     40.623942     81.247885
     -2.197197     42.512430     42.512430     85.024860
     -2.187187     42.890464     42.890464     85.780928
     -2.177177     41.702287     41.702287     83.404574
     -2.167167     39.080530     39.080530     78.161059
     -2.157157     35.372516     35.372516     70.745033
     -2.147147     31.100579     31.100579     62.201157
     -2.137137     26.839524     26.839524     53.679049
     -2.127127     23.048907     23.048907     46.097814
     -2.117117     19.938691     19.938691     39.877381
     -2.107107     17.439900     17.439900     34.879801
     -2.097097     15.296105     15.296105     30.592209
     -2.087087     13.223533     13.223533     26.447066
     -2.077077     11.053386     11.053386     22.106772
     -2.067067      8.789855      8.789855     17.579710
     -2.057057      6.573057      6.573057     13.146114
     -2.047047      4.587590      4.587590      9.175181
     -2.037037      2.974721      2.974721      5.949442
     -2.027027      1.787611      1.787611      3.575222
     -2.017017      0.995494      0.995494      1.990989
     -2.007007      0.517956      0.517956      1.035913
     -1.996997      0.264849      0.264849      0.529698
     -1.986987      0.166194      0.166194      0.332389
     -1.976977      0.188611      0.188611      0.377223
     -1.966967      0.341973      0.341973      0.683947
     -1.956957      0.680060      0.680060      1.360119
     -1.946947      1.294670      1.294670      2.589339
     -1.936937      2.298699      2.298699      4.597398
     -1.926927      3.794280      3.794280      7.588560
     -1.916917      5.828851      5.828851     11.657702
     -1.906907      8.352154      8.352154     16.704308
     -1.896897     11.193861     11.193861     22.387722
     -1.886887     14.078101     14.078101     28.156202
     -1.876877     16.677230     16.677230     33.354460
     -1.866867     18.690327     18.690327     37.380653
     -1.856857     19.922266     19.922266     39.844531
     -1.846847     20.340487     20.340487     40.680974
     -1.836837     20.093780     20.093780     40.187560
     -1.826827     19.484201     19.484201     38.968401
     -1.816817     18.890389     18.890389     37.780778
     -1.806807     18.653918     18.653918     37.307837
     -1.796797     18.960014     18.960014     37.920029
     -1.786787     19.758240     19.758240     39.516480
     -1.776777     20.762303     20.762303     41.524606
     -1.766767     21.537932     21.537932     43.075863
     -1.756757     21.648567     21.648567     43.297134
     -1.746747     20.802828     20.802828     41.605655
     -1.736737     18.948920     18.948920     37.897839
     -1.726727     16.286520     16.286520     32.573040
     -1.716717     13.201549     13.201549     26.403099
     -1.706707     10.157044     10.157044     20.314089
     -1.696697      7.582931      7.582931     15.165863
     -1.686687      5.796961      5.796961     11.593922
     -1.676677      4.966369      4.966369      9.932737
     -1.666667      5.099580      5.099580     10.199160
     -1.656657      6.052098      6.052098     12.104196
     -1.646647      7.542029      7.542029     15.084058
     -1.636637      9.186364      9.186364     18.372728
     -1.626627     10.572332     10.572332     21.144664
