# EIG2DOS: Utility for SIESTA to obtain the electronic density of states
#  E. Artacho, Apr 1999, A. Garcia, Apr 2012
#  Nick R. Papior, Feb 2017
# ------------------------------------------
# Eigenvalues calculated from a non-polarized calculation
# Eigenvalues read from siesta.EIG
# Kpoint weights read from siesta.KP
# Using smearing parameter:   0.0500
# Using 1000 points in the energy range
# Selected bands: 1 to: 2981
# Emin, Emax in file for selected band(s):    -27.0330793    218.3145640
# Nbands, Nspin, Nk   =   2981     1     1
# E_F                 =    -4.2936 eV --> (shifted to ZERO)
# Broadening          =     0.0500 eV
#
#        E            N(up)  (=)   N(down)         Ntot
     -5.000000     45.147673     45.147673     90.295345
     -4.989990     48.043101     48.043101     96.086201
     -4.979980     49.596600     49.596600     99.193201
     -4.969970     49.725634     49.725634     99.451269
     -4.959960     48.494533     48.494533     96.989067
     -4.949950     46.096553     46.096553     92.193105
     -4.939940     42.836062     42.836062     85.672123
     -4.929930     39.118060     39.118060     78.236120
     -4.919920     35.443733     35.443733     70.887465
     -4.909910     32.400152     32.400152     64.800303
     -4.899900     30.620723     30.620723     61.241446
     -4.889890     30.688233     30.688233     61.376466
     -4.879880     32.969341     32.969341     65.938682
     -4.869870     37.415174     37.415174     74.830349
     -4.859860     43.417886     43.417886     86.835772
     -4.849850     49.833279     49.833279     99.666557
     -4.839840     55.228195     55.228195    110.456391
     -4.829830     58.298185     58.298185    116.596370
     -4.819820     58.290638     58.290638    116.581276
     -4.809810     55.240034     55.240034    110.480067
     -4.799800     49.906632     49.906632     99.813264
     -4.789790     43.460557     43.460557     86.921114
     -4.779780     37.074195     37.074195     74.148390
     -4.769770     31.604442     31.604442     63.208884
     -4.759760     27.464937     27.464937     54.929874
     -4.749750     24.674771     24.674771     49.349541
     -4.739740     22.998383     22.998383     45.996766
     -4.729730     22.088396     22.088396     44.176792
     -4.719720     21.584123     21.584123     43.168246
     -4.709710     21.162176     21.162176     42.324351
     -4.699700     20.559008     20.559008     41.118015
     -4.689690     19.588736     19.588736     39.177471
     -4.679680     18.171376     18.171376     36.342753
     -4.669670     16.372191     16.372191     32.744381
     -4.659660     14.436921     14.436921     28.873842
     -4.649650     12.798130     12.798130     25.596260
     -4.639640     12.030561     12.030561     24.061123
     -4.629630     12.746790     12.746790     25.493580
     -4.619620     15.442007     15.442007     30.884014
     -4.609610     20.315695     20.315695     40.631390
     -4.599600     27.119013     27.119013     54.238025
     -4.589590     35.094316     35.094316     70.188631
     -4.579580     43.069217     43.069217     86.138433
     -4.569570     49.723568     49.723568     99.447136
     -4.559560     53.968953     53.968953    107.937907
     -4.549550     55.305416     55.305416    110.610833
     -4.539540     54.000779     54.000779    108.001559
     -4.529530     50.999503     50.999503    101.999006
     -4.519520     47.585910     47.585910     95.171820
     -4.509510     44.938222     44.938222     89.876445
     -4.499499     43.755107     43.755107     87.510214
     -4.489489     44.094363     44.094363     88.188726
     -4.479479     45.461201     45.461201     90.922402
     -4.469469     47.076191     47.076191     94.152383
     -4.459459     48.190313     48.190313     96.380627
     -4.449449     48.318340     48.318340     96.636680
     -4.439439     47.320251     47.320251     94.640503
     -4.429429     45.339687     45.339687     90.679375
     -4.419419     42.669844     42.669844     85.339688
     -4.409409     39.633241     39.633241     79.266482
     -4.399399     36.528427     36.528427     73.056853
     -4.389389     33.637401     33.637401     67.274803
     -4.379379     31.242371     31.242371     62.484743
     -4.369369     29.600738     29.600738     59.201476
     -4.359359     28.871384     28.871384     57.742768
     -4.349349     29.037555     29.037555     58.075109
     -4.339339     29.889174     29.889174     59.778347
     -4.329329     31.095164     31.095164     62.190328
     -4.319319     32.338618     32.338618     64.677236
     -4.309309     33.447117     33.447117     66.894234
     -4.299299     34.453260     34.453260     68.906521
     -4.289289     35.558490     35.558490     71.116981
     -4.279279     37.017611     37.017611     74.035223
     -4.269269     38.989024     38.989024     77.978049
     -4.259259     41.404427     41.404427     82.808853
     -4.249249     43.909895     43.909895     87.819791
     -4.239239     45.918292     45.918292     91.836584
     -4.229229     46.780386     46.780386     93.560772
     -4.219219     46.026906     46.026906     92.053812
     -4.209209     43.580506     43.580506     87.161013
     -4.199199     39.827568     39.827568     79.655136
     -4.189189     35.498134     35.498134     70.996267
     -4.179179     31.402666     31.402666     62.805332
     -4.169169     28.153551     28.153551     56.307103
     -4.159159     26.004134     26.004134     52.008269
     -4.149149     24.867259     24.867259     49.734519
     -4.139139     24.477627     24.477627     48.955253
     -4.129129     24.595934     24.595934     49.191868
     -4.119119     25.145781     25.145781     50.291563
     -4.109109     26.217794     26.217794     52.435589
     -4.099099     27.943120     27.943120     55.886241
     -4.089089     30.304316     30.304316     60.608632
     -4.079079     32.991553     32.991553     65.983105
     -4.069069     35.402934     35.402934     70.805868
     -4.059059     36.821087     36.821087     73.642174
     -4.049049     36.699278     36.699278     73.398556
     -4.039039     34.916278     34.916278     69.832556
     -4.029029     31.863474     31.863474     63.726949
     -4.019019     28.316180     28.316180     56.632359
     -4.009009     25.159756     25.159756     50.319512
     -3.998999     23.113081     23.113081     46.226163
     -3.988989     22.573452     22.573452     45.146903
     -3.978979     23.618854     23.618854     47.237708
     -3.968969     26.111426     26.111426     52.222852
     -3.958959     29.809903     29.809903     59.619807
     -3.948949     34.431521     34.431521     68.863043
     -3.938939     39.667028     39.667028     79.334055
     -3.928929     45.192073     45.192073     90.384145
     -3.918919     50.706796     50.706796    101.413592
     -3.908909     55.990325     55.990325    111.980651
     -3.898899     60.921838     60.921838    121.843676
     -3.888889     65.428005     65.428005    130.856010
     -3.878879     69.365726     69.365726    138.731452
     -3.868869     72.405161     72.405161    144.810322
     -3.858859     74.000441     74.000441    148.000883
     -3.848849     73.503172     73.503172    147.006344
     -3.838839     70.399237     70.399237    140.798473
     -3.828829     64.572767     64.572767    129.145534
     -3.818819     56.469142     56.469142    112.938283
     -3.808809     47.065398     47.065398     94.130796
     -3.798799     37.644291     37.644291     75.288581
     -3.788789     29.457914     29.457914     58.915828
     -3.778779     23.409244     23.409244     46.818489
     -3.768769     19.858849     19.858849     39.717699
     -3.758759     18.601888     18.601888     37.203777
     -3.748749     18.996592     18.996592     37.993185
     -3.738739     20.186961     20.186961     40.373923
     -3.728729     21.352900     21.352900     42.705800
     -3.718719     21.928556     21.928556     43.857113
     -3.708709     21.742504     21.742504     43.485008
     -3.698699     21.048081     21.048081     42.096162
     -3.688689     20.431690     20.431690     40.863380
     -3.678679     20.614324     20.614324     41.228648
     -3.668669     22.195028     22.195028     44.390056
     -3.658659     25.414207     25.414207     50.828414
     -3.648649     30.023145     30.023145     60.046290
     -3.638639     35.319069     35.319069     70.638137
     -3.628629     40.343339     40.343339     80.686678
     -3.618619     44.168684     44.168684     88.337368
     -3.608609     46.160053     46.160053     92.320106
     -3.598599     46.110998     46.110998     92.221996
     -3.588589     44.224604     44.224604     88.449208
     -3.578579     40.981119     40.981119     81.962238
     -3.568569     36.968423     36.968423     73.936846
     -3.558559     32.735910     32.735910     65.471821
     -3.548549     28.695374     28.695374     57.390748
     -3.538539     25.069417     25.069417     50.138834
     -3.528529     21.887963     21.887963     43.775925
     -3.518519     19.037343     19.037343     38.074687
     -3.508509     16.354243     16.354243     32.708486
     -3.498498     13.732265     13.732265     27.464531
     -3.488488     11.195239     11.195239     22.390478
     -3.478478      8.905086      8.905086     17.810172
     -3.468468      7.105297      7.105297     14.210593
     -3.458458      6.029818      6.029818     12.059637
     -3.448448      5.814729      5.814729     11.629459
     -3.438438      6.439861      6.439861     12.879722
     -3.428428      7.714375      7.714375     15.428751
     -3.418418      9.312657      9.312657     18.625315
     -3.408408     10.859571     10.859571     21.719143
     -3.398398     12.048542     12.048542     24.097084
     -3.388388     12.754758     12.754758     25.509515
     -3.378378     13.095258     13.095258     26.190517
     -3.368368     13.402987     13.402987     26.805975
     -3.358358     14.119993     14.119993     28.239985
     -3.348348     15.652653     15.652653     31.305307
     -3.338338     18.243315     18.243315     36.486631
     -3.328328     21.892292     21.892292     43.784585
     -3.318318     26.332390     26.332390     52.664780
     -3.308308     31.043762     31.043762     62.087525
     -3.298298     35.309303     35.309303     70.618607
     -3.288288     38.328311     38.328311     76.656621
     -3.278278     39.396416     39.396416     78.792832
     -3.268268     38.114963     38.114963     76.229926
     -3.258258     34.545793     34.545793     69.091586
     -3.248248     29.225456     29.225456     58.450913
     -3.238238     23.012874     23.012874     46.025748
     -3.228228     16.831174     16.831174     33.662347
     -3.218218     11.417673     11.417673     22.835346
     -3.208208      7.181217      7.181217     14.362435
     -3.198198      4.200028      4.200028      8.400056
     -3.188188      2.324487      2.324487      4.648974
     -3.178178      1.317214      1.317214      2.634428
     -3.168168      0.972777      0.972777      1.945555
     -3.158158      1.189592      1.189592      2.379184
     -3.148148      1.991697      1.991697      3.983394
     -3.138138      3.507432      3.507432      7.014863
     -3.128128      5.911047      5.911047     11.822095
     -3.118118      9.334357      9.334357     18.668714
     -3.108108     13.766312     13.766312     27.532624
     -3.098098     18.975068     18.975068     37.950137
     -3.088088     24.495566     24.495566     48.991133
     -3.078078     29.710676     29.710676     59.421352
     -3.068068     34.012642     34.012642     68.025284
     -3.058058     36.982056     36.982056     73.964111
     -3.048048     38.497098     38.497098     76.994196
     -3.038038     38.712634     38.712634     77.425268
     -3.028028     37.921278     37.921278     75.842556
     -3.018018     36.383668     36.383668     72.767336
     -3.008008     34.238385     34.238385     68.476769
     -2.997998     31.550058     31.550058     63.100116
     -2.987988     28.458978     28.458978     56.917956
     -2.977978     25.323308     25.323308     50.646616
     -2.967968     22.745582     22.745582     45.491163
     -2.957958     21.444628     21.444628     42.889256
     -2.947948     22.022484     22.022484     44.044967
     -2.937938     24.729321     24.729321     49.458641
     -2.927928     29.326468     29.326468     58.652936
     -2.917918     35.102382     35.102382     70.204765
     -2.907908     41.037478     41.037478     82.074957
     -2.897898     46.063967     46.063967     92.127935
     -2.887888     49.338439     49.338439     98.676878
     -2.877878     50.442899     50.442899    100.885797
     -2.867868     49.454126     49.454126     98.908251
     -2.857858     46.864554     46.864554     93.729108
     -2.847848     43.386999     43.386999     86.773999
     -2.837838     39.714257     39.714257     79.428514
     -2.827828     36.319196     36.319196     72.638393
     -2.817818     33.364433     33.364433     66.728866
     -2.807808     30.746403     30.746403     61.492806
     -2.797798     28.242241     28.242241     56.484481
     -2.787788     25.683577     25.683577     51.367155
     -2.777778     23.071872     23.071872     46.143743
     -2.767768     20.582713     20.582713     41.165426
     -2.757758     18.467105     18.467105     36.934210
     -2.747748     16.914131     16.914131     33.828261
     -2.737738     15.959452     15.959452     31.918905
     -2.727728     15.494411     15.494411     30.988821
     -2.717718     15.366900     15.366900     30.733800
     -2.707708     15.505712     15.505712     31.011425
     -2.697698     15.982766     15.982766     31.965532
     -2.687688     16.965900     16.965900     33.931800
     -2.677678     18.586601     18.586601     37.173203
     -2.667668     20.806483     20.806483     41.612965
     -2.657658     23.373206     23.373206     46.746411
     -2.647648     25.903100     25.903100     51.806201
     -2.637638     28.046590     28.046590     56.093180
     -2.627628     29.637555     29.637555     59.275110
     -2.617618     30.737816     30.737816     61.475632
     -2.607608     31.557298     31.557298     63.114595
     -2.597598     32.309935     32.309935     64.619870
     -2.587588     33.097585     33.097585     66.195170
     -2.577578     33.879049     33.879049     67.758099
     -2.567568     34.512562     34.512562     69.025124
     -2.557558     34.816360     34.816360     69.632719
     -2.547548     34.605172     34.605172     69.210345
     -2.537538     33.708868     33.708868     67.417735
     -2.527528     32.010490     32.010490     64.020979
     -2.517518     29.522174     29.522174     59.044347
     -2.507508     26.466659     26.466659     52.933317
     -2.497497     23.298942     23.298942     46.597883
     -2.487487     20.621532     20.621532     41.243064
     -2.477477     19.007630     19.007630     38.015259
     -2.467467     18.806194     18.806194     37.612387
     -2.457457     20.021409     20.021409     40.042818
     -2.447447     22.326487     22.326487     44.652974
     -2.437437     25.207900     25.207900     50.415799
     -2.427427     28.174042     28.174042     56.348083
     -2.417417     30.931105     30.931105     61.862209
     -2.407407     33.443351     33.443351     66.886701
     -2.397397     35.849944     35.849944     71.699887
     -2.387387     38.281430     38.281430     76.562859
     -2.377377     40.671575     40.671575     81.343151
     -2.367367     42.667437     42.667437     85.334874
     -2.357357     43.696524     43.696524     87.393048
     -2.347347     43.174205     43.174205     86.348409
     -2.337337     40.763250     40.763250     81.526501
     -2.327327     36.567059     36.567059     73.134118
     -2.317317     31.166270     31.166270     62.332539
     -2.307307     25.481540     25.481540     50.963081
     -2.297297     20.523327     20.523327     41.046654
     -2.287287     17.130693     17.130693     34.261385
     -2.277277     15.789105     15.789105     31.578210
     -2.267267     16.568987     16.568987     33.137973
     -2.257257     19.175705     19.175705     38.351410
     -2.247247     23.070864     23.070864     46.141729
     -2.237237     27.616669     27.616669     55.233338
     -2.227227     32.200684     32.200684     64.401367
     -2.217217     36.311626     36.311626     72.623253
     -2.207207     39.558117     39.558117     79.116233
     -2.197197     41.649112     41.649112     83.298224
     -2.187187     42.374769     42.374769     84.749539
     -2.177177     41.623055     41.623055     83.246110
     -2.167167     39.435615     39.435615     78.871230
     -2.157157     36.063981     36.063981     72.127961
     -2.147147     31.966653     31.966653     63.933306
     -2.137137     27.711796     27.711796     55.423592
     -2.127127     23.809452     23.809452     47.618904
     -2.117117     20.551221     20.551221     41.102442
     -2.107107     17.942485     17.942485     35.884971
     -2.097097     15.763091     15.763091     31.526181
     -2.087087     13.719100     13.719100     27.438200
     -2.077077     11.600327     11.600327     23.200654
     -2.067067      9.365361      9.365361     18.730722
     -2.057057      7.127156      7.127156     14.254312
     -2.047047      5.069582      5.069582     10.139164
     -2.037037      3.353005      3.353005      6.706011
     -2.027027      2.056010      2.056010      4.112021
     -2.017017      1.167880      1.167880      2.335760
     -2.007007      0.617593      0.617593      1.235186
     -1.996997      0.314454      0.314454      0.628908
     -1.986987      0.181571      0.181571      0.363142
     -1.976977      0.175769      0.175769      0.351539
     -1.966967      0.296465      0.296465      0.592929
     -1.956957      0.587751      0.587751      1.175501
     -1.946947      1.134366      1.134366      2.268731
     -1.936937      2.047701      2.047701      4.095402
     -1.926927      3.437236      3.437236      6.874472
     -1.916917      5.368131      5.368131     10.736263
     -1.906907      7.815602      7.815602     15.631203
     -1.896897     10.634979     10.634979     21.269959
     -1.886887     13.565916     13.565916     27.131832
     -1.876877     16.277412     16.277412     32.554823
     -1.866867     18.443024     18.443024     36.886048
     -1.856857     19.822738     19.822738     39.645476
     -1.846847     20.325745     20.325745     40.651491
     -1.836837     20.034620     20.034620     40.069241
     -1.826827     19.180590     19.180590     38.361180
     -1.816817     18.070676     18.070676     36.141352
     -1.806807     16.983571     16.983571     33.967142
     -1.796797     16.070171     16.070171     32.140341
     -1.786787     15.303903     15.303903     30.607807
     -1.776777     14.510784     14.510784     29.021569
     -1.766767     13.470322     13.470322     26.940645
     -1.756757     12.038440     12.038440     24.076879
     -1.746747     10.230974     10.230974     20.461948
     -1.736737      8.231481      8.231481     16.462962
     -1.726727      6.332084      6.332084     12.664169
     -1.716717      4.849125      4.849125      9.698250
     -1.706707      4.055983      4.055983      8.111966
     -1.696697      4.148920      4.148920      8.297840
     -1.686687      5.232001      5.232001     10.464001
     -1.676677      7.296827      7.296827     14.593654
     -1.666667     10.187940     10.187940     20.375880
     -1.656657     13.572291     13.572291     27.144582
     -1.646647     16.949097     16.949097     33.898195
     -1.636637     19.728425     19.728425     39.456850
     -1.626627     21.373627     21.373627     42.747253
