# EIG2DOS: Utility for SIESTA to obtain the electronic density of states
#  E. Artacho, Apr 1999, A. Garcia, Apr 2012
#  Nick R. Papior, Feb 2017
# ------------------------------------------
# Eigenvalues calculated from a non-polarized calculation
# Eigenvalues read from siesta.EIG
# Kpoint weights read from siesta.KP
# Using smearing parameter:   0.0500
# Using 1000 points in the energy range
# Selected bands: 1 to: 2981
# Emin, Emax in file for selected band(s):    -27.2556608    218.4057260
# Nbands, Nspin, Nk   =   2981     1     1
# E_F                 =    -4.1857 eV --> (shifted to ZERO)
# Broadening          =     0.0500 eV
#
#        E            N(up)  (=)   N(down)         Ntot
     -5.000000     33.112389     33.112389     66.224779
     -4.989990     38.368393     38.368393     76.736787
     -4.979980     43.086666     43.086666     86.173333
     -4.969970     46.404171     46.404171     92.808342
     -4.959960     47.681984     47.681984     95.363968
     -4.949950     46.721961     46.721961     93.443922
     -4.939940     43.834757     43.834757     87.669513
     -4.929930     39.752197     39.752197     79.504395
     -4.919920     35.444485     35.444485     70.888969
     -4.909910     31.918349     31.918349     63.836698
     -4.899900     30.038957     30.038957     60.077914
     -4.889890     30.377115     30.377115     60.754230
     -4.879880     33.075834     33.075834     66.151668
     -4.869870     37.761272     37.761272     75.522544
     -4.859860     43.555983     43.555983     87.111966
     -4.849850     49.243349     49.243349     98.486699
     -4.839840     53.570318     53.570318    107.140636
     -4.829830     55.596147     55.596147    111.192293
     -4.819820     54.952767     54.952767    109.905533
     -4.809810     51.910780     51.910780    103.821561
     -4.799800     47.231405     47.231405     94.462811
     -4.789790     41.879734     41.879734     83.759469
     -4.779780     36.726423     36.726423     73.452847
     -4.769770     32.350559     32.350559     64.701119
     -4.759760     28.992669     28.992669     57.985339
     -4.749750     26.633814     26.633814     53.267627
     -4.739740     25.130517     25.130517     50.261034
     -4.729730     24.329586     24.329586     48.659171
     -4.719720     24.114087     24.114087     48.228175
     -4.709710     24.375357     24.375357     48.750714
     -4.699700     24.948464     24.948464     49.896927
     -4.689690     25.572702     25.572702     51.145404
     -4.679680     25.929675     25.929675     51.859351
     -4.669670     25.767940     25.767940     51.535880
     -4.659660     25.064932     25.064932     50.129863
     -4.649650     24.138012     24.138012     48.276023
     -4.639640     23.623282     23.623282     47.246564
     -4.629630     24.294280     24.294280     48.588560
     -4.619620     26.768288     26.768288     53.536577
     -4.609610     31.211010     31.211010     62.422020
     -4.599600     37.171119     37.171119     74.342237
     -4.589590     43.639708     43.639708     87.279416
     -4.579580     49.342270     49.342270     98.684540
     -4.569570     53.164886     53.164886    106.329772
     -4.559560     54.543290     54.543290    109.086579
     -4.549550     53.647826     53.647826    107.295652
     -4.539540     51.284671     51.284671    102.569342
     -4.529530     48.560941     48.560941     97.121882
     -4.519520     46.461853     46.461853     92.923707
     -4.509510     45.513997     45.513997     91.027994
     -4.499499     45.656072     45.656072     91.312145
     -4.489489     46.341544     46.341544     92.683089
     -4.479479     46.803960     46.803960     93.607919
     -4.469469     46.362340     46.362340     92.724680
     -4.459459     44.646588     44.646588     89.293176
     -4.449449     41.673400     41.673400     83.346800
     -4.439439     37.775892     37.775892     75.551783
     -4.429429     33.450936     33.450936     66.901871
     -4.419419     29.209240     29.209240     58.418480
     -4.409409     25.487138     25.487138     50.974276
     -4.399399     22.625198     22.625198     45.250396
     -4.389389     20.873778     20.873778     41.747557
     -4.379379     20.379800     20.379800     40.759599
     -4.369369     21.143418     21.143418     42.286837
     -4.359359     22.977987     22.977987     45.955974
     -4.349349     25.523587     25.523587     51.047173
     -4.339339     28.338019     28.338019     56.676038
     -4.329329     31.038264     31.038264     62.076528
     -4.319319     33.427158     33.427158     66.854317
     -4.309309     35.540509     35.540509     71.081019
     -4.299299     37.586841     37.586841     75.173682
     -4.289289     39.801566     39.801566     79.603133
     -4.279279     42.274781     42.274781     84.549562
     -4.269269     44.825175     44.825175     89.650351
     -4.259259     46.981334     46.981334     93.962667
     -4.249249     48.097806     48.097806     96.195612
     -4.239239     47.581003     47.581003     95.162006
     -4.229229     45.144056     45.144056     90.288113
     -4.219219     40.979186     40.979186     81.958371
     -4.209209     35.757650     35.757650     71.515300
     -4.199199     30.441081     30.441081     60.882163
     -4.189189     25.978153     25.978153     51.956305
     -4.179179     23.016048     23.016048     46.032095
     -4.169169     21.745907     21.745907     43.491814
     -4.159159     21.934104     21.934104     43.868209
     -4.149149     23.105757     23.105757     46.211515
     -4.139139     24.784678     24.784678     49.569355
     -4.129129     26.677842     26.677842     53.355684
     -4.119119     28.723475     28.723475     57.446949
     -4.109109     30.986781     30.986781     61.973561
     -4.099099     33.463349     33.463349     66.926698
     -4.089089     35.905389     35.905389     71.810777
     -4.079079     37.786872     37.786872     75.573744
     -4.069069     38.456726     38.456726     76.913452
     -4.059059     37.421733     37.421733     74.843465
     -4.049049     34.615721     34.615721     69.231442
     -4.039039     30.507772     30.507772     61.015544
     -4.029029     25.987294     25.987294     51.974588
     -4.019019     22.084078     22.084078     44.168157
     -4.009009     19.660238     19.660238     39.320476
     -3.998999     19.205295     19.205295     38.410591
     -3.988989     20.792230     20.792230     41.584461
     -3.978979     24.166339     24.166339     48.332678
     -3.968969     28.891005     28.891005     57.782011
     -3.958959     34.480427     34.480427     68.960853
     -3.948949     40.488191     40.488191     80.976381
     -3.938939     46.556484     46.556484     93.112969
     -3.928929     52.439556     52.439556    104.879111
     -3.918919     58.000212     58.000212    116.000424
     -3.908909     63.164859     63.164859    126.329718
     -3.898899     67.833786     67.833786    135.667573
     -3.888889     71.777324     71.777324    143.554649
     -3.878879     74.577661     74.577661    149.155322
     -3.868869     75.671112     75.671112    151.342224
     -3.858859     74.500974     74.500974    149.001947
     -3.848849     70.731281     70.731281    141.462562
     -3.838839     64.433025     64.433025    128.866050
     -3.828829     56.159161     56.159161    112.318322
     -3.818819     46.869234     46.869234     93.738469
     -3.808809     37.724289     37.724289     75.448578
     -3.798799     29.819588     29.819588     59.639176
     -3.788789     23.939148     23.939148     47.878296
     -3.778779     20.401364     20.401364     40.802728
     -3.768769     19.030797     19.030797     38.061595
     -3.758759     19.253112     19.253112     38.506225
     -3.748749     20.279984     20.279984     40.559968
     -3.738739     21.333552     21.333552     42.667104
     -3.728729     21.855439     21.855439     43.710878
     -3.718719     21.650966     21.650966     43.301932
     -3.708709     20.932598     20.932598     41.865197
     -3.698699     20.246893     20.246893     40.493786
     -3.688689     20.295875     20.295875     40.591749
     -3.678679     21.694855     21.694855     43.389709
     -3.668669     24.736781     24.736781     49.473563
     -3.658659     29.244794     29.244794     58.489587
     -3.648649     34.575873     34.575873     69.151746
     -3.638639     39.786578     39.786578     79.573157
     -3.628629     43.904776     43.904776     87.809551
     -3.618619     46.203496     46.203496     92.406991
     -3.608609     46.374632     46.374632     92.749264
     -3.598599     44.552467     44.552467     89.104935
     -3.588589     41.207429     41.207429     82.414858
     -3.578579     36.975940     36.975940     73.951881
     -3.568569     32.492552     32.492552     64.985105
     -3.558559     28.261547     28.261547     56.523094
     -3.548549     24.579021     24.579021     49.158041
     -3.538539     21.509673     21.509673     43.019346
     -3.528529     18.924362     18.924362     37.848724
     -3.518519     16.594841     16.594841     33.189681
     -3.508509     14.317557     14.317557     28.635114
     -3.498498     12.017869     12.017869     24.035738
     -3.488488      9.790732      9.790732     19.581463
     -3.478478      7.864718      7.864718     15.729436
     -3.468468      6.512228      6.512228     13.024457
     -3.458458      5.947059      5.947059     11.894119
     -3.448448      6.245990      6.245990     12.491981
     -3.438438      7.315909      7.315909     14.631818
     -3.428428      8.915549      8.915549     17.831097
     -3.418418     10.731585     10.731585     21.463171
     -3.408408     12.494081     12.494081     24.988161
     -3.398398     14.093971     14.093971     28.187942
     -3.388388     15.649052     15.649052     31.298103
     -3.378378     17.474632     17.474632     34.949265
     -3.368368     19.956308     19.956308     39.912615
     -3.358358     23.374450     23.374450     46.748900
     -3.348348     27.758042     27.758042     55.516084
     -3.338338     32.827928     32.827928     65.655856
     -3.328328     38.039259     38.039259     76.078518
     -3.318318     42.688281     42.688281     85.376562
     -3.308308     46.040455     46.040455     92.080910
     -3.298298     47.459979     47.459979     94.919958
     -3.288288     46.540170     46.540170     93.080341
     -3.278278     43.222710     43.222710     86.445420
     -3.268268     37.863463     37.863463     75.726927
     -3.258258     31.193698     31.193698     62.387397
     -3.248248     24.162862     24.162862     48.325724
     -3.238238     17.711892     17.711892     35.423783
     -3.228228     12.565085     12.565085     25.130171
     -3.218218      9.113002      9.113002     18.226003
     -3.208208      7.403933      7.403933     14.807866
     -3.198198      7.211612      7.211612     14.423225
     -3.188188      8.134221      8.134221     16.268443
     -3.178178      9.699848      9.699848     19.399697
     -3.168168     11.475522     11.475522     22.951045
     -3.158158     13.175400     13.175400     26.350800
     -3.148148     14.740942     14.740942     29.481884
     -3.138138     16.348573     16.348573     32.697145
     -3.128128     18.314770     18.314770     36.629541
     -3.118118     20.916761     20.916761     41.833521
     -3.108108     24.201846     24.201846     48.403692
     -3.098098     27.881617     27.881617     55.763234
     -3.088088     31.376700     31.376700     62.753401
     -3.078078     34.004345     34.004345     68.008689
     -3.068068     35.224787     35.224787     70.449575
     -3.058058     34.828375     34.828375     69.656750
     -3.048048     32.976604     32.976604     65.953208
     -3.038038     30.090391     30.090391     60.180782
     -3.028028     26.660324     26.660324     53.320648
     -3.018018     23.086931     23.086931     46.173863
     -3.008008     19.626361     19.626361     39.252722
     -2.997998     16.444205     16.444205     32.888410
     -2.987988     13.717354     13.717354     27.434708
     -2.977978     11.707287     11.707287     23.414573
     -2.967968     10.758031     10.758031     21.516063
     -2.957958     11.218928     11.218928     22.437855
     -2.947948     13.326063     13.326063     26.652126
     -2.937938     17.086734     17.086734     34.173467
     -2.927928     22.206743     22.206743     44.413486
     -2.917918     28.090739     28.090739     56.181478
     -2.907908     33.931474     33.931474     67.862948
     -2.897898     38.879546     38.879546     77.759093
     -2.887888     42.252173     42.252173     84.504347
     -2.877878     43.711684     43.711684     87.423369
     -2.867868     43.341514     43.341514     86.683027
     -2.857858     41.580542     41.580542     83.161085
     -2.847848     39.036583     39.036583     78.073167
     -2.837838     36.257890     36.257890     72.515780
     -2.827828     33.564385     33.564385     67.128770
     -2.817818     31.010781     31.010781     62.021562
     -2.807808     28.484857     28.484857     56.969715
     -2.797798     25.873806     25.873806     51.747613
     -2.787788     23.200090     23.200090     46.400180
     -2.777778     20.653421     20.653421     41.306842
     -2.767768     18.511155     18.511155     37.022310
     -2.757758     17.005764     17.005764     34.011527
     -2.747748     16.225531     16.225531     32.451062
     -2.737738     16.107323     16.107323     32.214645
     -2.727728     16.516112     16.516112     33.032225
     -2.717718     17.346710     17.346710     34.693420
     -2.707708     18.569405     18.569405     37.138809
     -2.697698     20.184546     20.184546     40.369092
     -2.687688     22.122925     22.122925     44.245850
     -2.677678     24.177031     24.177031     48.354062
     -2.667668     26.033809     26.033809     52.067617
     -2.657658     27.408027     27.408027     54.816054
     -2.647648     28.197153     28.197153     56.394306
     -2.637638     28.553059     28.553059     57.106117
     -2.627628     28.815176     28.815176     57.630351
     -2.617618     29.339577     29.339577     58.679155
     -2.607608     30.323417     30.323417     60.646833
     -2.597598     31.718845     31.718845     63.437691
     -2.587588     33.264624     33.264624     66.529249
     -2.577578     34.591430     34.591430     69.182861
     -2.567568     35.330991     35.330991     70.661983
     -2.557558     35.188665     35.188665     70.377329
     -2.547548     33.987040     33.987040     67.974080
     -2.537538     31.708564     31.708564     63.417127
     -2.527528     28.543916     28.543916     57.087832
     -2.517518     24.916280     24.916280     49.832560
     -2.507508     21.438534     21.438534     42.877068
     -2.497497     18.786540     18.786540     37.573080
     -2.487487     17.518933     17.518933     35.037866
     -2.477477     17.909520     17.909520     35.819041
     -2.467467     19.861251     19.861251     39.722502
     -2.457457     22.941193     22.941193     45.882387
     -2.447447     26.528997     26.528997     53.057995
     -2.437437     30.025444     30.025444     60.050888
     -2.427427     33.039729     33.039729     66.079459
     -2.417417     35.476932     35.476932     70.953864
     -2.407407     37.484589     37.484589     74.969178
     -2.397397     39.278970     39.278970     78.557941
     -2.387387     40.932626     40.932626     81.865252
     -2.377377     42.234053     42.234053     84.468106
     -2.367367     42.705752     42.705752     85.411504
     -2.357357     41.791238     41.791238     83.582476
     -2.347347     39.129641     39.129641     78.259282
     -2.337337     34.781737     34.781737     69.563474
     -2.327327     29.291616     29.291616     58.583231
     -2.317317     23.554804     23.554804     47.109607
     -2.307307     18.562117     18.562117     37.124234
     -2.297297     15.138080     15.138080     30.276159
     -2.287287     13.771224     13.771224     27.542448
     -2.277277     14.568598     14.568598     29.137196
     -2.267267     17.306924     17.306924     34.613849
     -2.257257     21.528700     21.528700     43.057400
     -2.247247     26.641164     26.641164     53.282328
     -2.237237     31.998570     31.998570     63.997141
     -2.227227     36.965889     36.965889     73.931777
     -2.217217     40.970141     40.970141     81.940281
     -2.207207     43.547497     43.547497     87.094994
     -2.197197     44.392747     44.392747     88.785493
     -2.187187     43.411141     43.411141     86.822283
     -2.177177     40.759321     40.759321     81.518642
     -2.167167     36.847651     36.847651     73.695301
     -2.157157     32.274904     32.274904     64.549809
     -2.147147     27.689665     27.689665     55.379331
     -2.137137     23.615333     23.615333     47.230667
     -2.127127     20.310424     20.310424     40.620847
     -2.117117     17.732670     17.732670     35.465339
     -2.107107     15.627614     15.627614     31.255228
     -2.097097     13.697068     13.697068     27.394136
     -2.087087     11.762501     11.762501     23.525003
     -2.077077      9.848073      9.848073     19.696145
     -2.067067      8.156973      8.156973     16.313946
     -2.057057      6.968103      6.968103     13.936206
     -2.047047      6.507584      6.507584     13.015167
     -2.037037      6.845643      6.845643     13.691285
     -2.027027      7.849249      7.849249     15.698497
     -2.017017      9.201147      9.201147     18.402294
     -2.007007     10.480649     10.480649     20.961299
     -1.996997     11.285691     11.285691     22.571382
     -1.986987     11.358836     11.358836     22.717671
     -1.976977     10.671996     10.671996     21.343992
     -1.966967      9.436781      9.436781     18.873562
     -1.956957      8.037740      8.037740     16.075479
     -1.946947      6.917457      6.917457     13.834914
     -1.936937      6.456660      6.456660     12.913320
     -1.926927      6.884361      6.884361     13.768723
     -1.916917      8.233761      8.233761     16.467522
     -1.906907     10.343889     10.343889     20.687779
     -1.896897     12.900198     12.900198     25.800396
     -1.886887     15.504561     15.504561     31.009123
     -1.876877     17.761022     17.761022     35.522043
     -1.866867     19.359139     19.359139     38.718277
     -1.856857     20.136518     20.136518     40.273036
     -1.846847     20.106740     20.106740     40.213479
     -1.836837     19.444916     19.444916     38.889833
     -1.826827     18.429261     18.429261     36.858521
     -1.816817     17.347603     17.347603     34.695207
     -1.806807     16.395089     16.395089     32.790177
     -1.796797     15.604351     15.604351     31.208702
     -1.786787     14.845624     14.845624     29.691248
     -1.776777     13.903769     13.903769     27.807538
     -1.766767     12.596750     12.596750     25.193499
     -1.756757     10.874803     10.874803     21.749606
     -1.746747      8.851383      8.851383     17.702766
     -1.736737      6.758471      6.758471     13.516941
     -1.726727      4.860856      4.860856      9.721713
     -1.716717      3.379221      3.379221      6.758442
     -1.706707      2.454650      2.454650      4.909300
     -1.696697      2.154365      2.154365      4.308731
     -1.686687      2.493272      2.493272      4.986543
     -1.676677      3.442373      3.442373      6.884746
     -1.666667      4.912099      4.912099      9.824197
     -1.656657      6.723710      6.723710     13.447420
     -1.646647      8.599377      8.599377     17.198755
     -1.636637     10.199166     10.199166     20.398332
     -1.626627     11.209725     11.209725     22.419449
