# EIG2DOS: Utility for SIESTA to obtain the electronic density of states
#  E. Artacho, Apr 1999, A. Garcia, Apr 2012
#  Nick R. Papior, Feb 2017
# ------------------------------------------
# Eigenvalues calculated from a non-polarized calculation
# Eigenvalues read from siesta.EIG
# Kpoint weights read from siesta.KP
# Using smearing parameter:   0.0500
# Using 1000 points in the energy range
# Selected bands: 1 to: 2981
# Emin, Emax in file for selected band(s):    -27.0649233    218.3286360
# Nbands, Nspin, Nk   =   2981     1     1
# E_F                 =    -4.2779 eV --> (shifted to ZERO)
# Broadening          =     0.0500 eV
#
#        E            N(up)  (=)   N(down)         Ntot
     -5.000000     45.958602     45.958602     91.917203
     -4.989990     47.690947     47.690947     95.381894
     -4.979980     48.218243     48.218243     96.436486
     -4.969970     47.596135     47.596135     95.192270
     -4.959960     45.945318     45.945318     91.890635
     -4.949950     43.442323     43.442323     86.884646
     -4.939940     40.330734     40.330734     80.661469
     -4.929930     36.943181     36.943181     73.886363
     -4.919920     33.720019     33.720019     67.440039
     -4.909910     31.206992     31.206992     62.413984
     -4.899900     30.008618     30.008618     60.017236
     -4.889890     30.674237     30.674237     61.348474
     -4.879880     33.515410     33.515410     67.030820
     -4.869870     38.401890     38.401890     76.803780
     -4.859860     44.634925     44.634925     89.269851
     -4.849850     51.005333     51.005333    102.010666
     -4.839840     56.078244     56.078244    112.156489
     -4.829830     58.626939     58.626939    117.253878
     -4.819820     58.036607     58.036607    116.073214
     -4.809810     54.490613     54.490613    108.981227
     -4.799800     48.854943     48.854943     97.709886
     -4.789790     42.330204     42.330204     84.660409
     -4.779780     36.047092     36.047092     72.094185
     -4.769770     30.778984     30.778984     61.557968
     -4.759760     26.851701     26.851701     53.703402
     -4.749750     24.219553     24.219553     48.439105
     -4.739740     22.616522     22.616522     45.233043
     -4.729730     21.697979     21.697979     43.395959
     -4.719720     21.131254     21.131254     42.262507
     -4.709710     20.634590     20.634590     41.269180
     -4.699700     19.986329     19.986329     39.972658
     -4.689690     19.031247     19.031247     38.062495
     -4.679680     17.703937     17.703937     35.407874
     -4.669670     16.071938     16.071938     32.143877
     -4.659660     14.379838     14.379838     28.759676
     -4.649650     13.061611     13.061611     26.123221
     -4.639640     12.691888     12.691888     25.383776
     -4.629630     13.866376     13.866376     27.732751
     -4.619620     17.028114     17.028114     34.056228
     -4.609610     22.281667     22.281667     44.563334
     -4.599600     29.257210     29.257210     58.514420
     -4.589590     37.092777     37.092777     74.185555
     -4.579580     44.581536     44.581536     89.163072
     -4.569570     50.474285     50.474285    100.948570
     -4.559560     53.851764     53.851764    107.703528
     -4.549550     54.427423     54.427423    108.854846
     -4.539540     52.649087     52.649087    105.298174
     -4.529530     49.544872     49.544872     99.089744
     -4.519520     46.369152     46.369152     92.738304
     -4.509510     44.190559     44.190559     88.381118
     -4.499499     43.581948     43.581948     87.163897
     -4.489489     44.516581     44.516581     89.033162
     -4.479479     46.478178     46.478178     92.956356
     -4.469469     48.704847     48.704847     97.409694
     -4.459459     50.448453     50.448453    100.896907
     -4.449449     51.153438     51.153438    102.306875
     -4.439439     50.522140     50.522140    101.044279
     -4.429429     48.497814     48.497814     96.995628
     -4.419419     45.225142     45.225142     90.450284
     -4.409409     41.028775     41.028775     82.057550
     -4.399399     36.403093     36.403093     72.806186
     -4.389389     31.970578     31.970578     63.941155
     -4.379379     28.373287     28.373287     56.746574
     -4.369369     26.109843     26.109843     52.219686
     -4.359359     25.383203     25.383203     50.766407
     -4.349349     26.039578     26.039578     52.079156
     -4.339339     27.640318     27.640318     55.280636
     -4.329329     29.639855     29.639855     59.279710
     -4.319319     31.588412     31.588412     63.176825
     -4.309309     33.270876     33.270876     66.541753
     -4.299299     34.732030     34.732030     69.464060
     -4.289289     36.193750     36.193750     72.387500
     -4.279279     37.908925     37.908925     75.817850
     -4.269269     40.007517     40.007517     80.015034
     -4.259259     42.383418     42.383418     84.766836
     -4.249249     44.661631     44.661631     89.323262
     -4.239239     46.273115     46.273115     92.546231
     -4.229229     46.634853     46.634853     93.269705
     -4.219219     45.381603     45.381603     90.763206
     -4.209209     42.549117     42.549117     85.098234
     -4.199199     38.608359     38.608359     77.216719
     -4.189189     34.315365     34.315365     68.630730
     -4.179179     30.440357     30.440357     60.880714
     -4.169169     27.508342     27.508342     55.016684
     -4.159159     25.674624     25.674624     51.349248
     -4.149149     24.780048     24.780048     49.560096
     -4.139139     24.534943     24.534943     49.069886
     -4.129129     24.722775     24.722775     49.445551
     -4.119119     25.316712     25.316712     50.633424
     -4.109109     26.452695     26.452695     52.905389
     -4.099099     28.274616     28.274616     56.549233
     -4.089089     30.733767     30.733767     61.467533
     -4.079079     33.458903     33.458903     66.917806
     -4.069069     35.791503     35.791503     71.583006
     -4.059059     37.000181     37.000181     74.000363
     -4.049049     36.584385     36.584385     73.168771
     -4.039039     34.513569     34.513569     69.027139
     -4.029029     31.272785     31.272785     62.545570
     -4.019019     27.690806     27.690806     55.381613
     -4.009009     24.646349     24.646349     49.292697
     -3.998999     22.804026     22.804026     45.608051
     -3.988989     22.492643     22.492643     44.985286
     -3.978979     23.739509     23.739509     47.479017
     -3.968969     26.387602     26.387602     52.775204
     -3.958959     30.201768     30.201768     60.403536
     -3.948949     34.915621     34.915621     69.831242
     -3.938939     40.235657     40.235657     80.471314
     -3.928929     45.850120     45.850120     91.700240
     -3.918919     51.468898     51.468898    102.937796
     -3.908909     56.873388     56.873388    113.746775
     -3.898899     61.926926     61.926926    123.853853
     -3.888889     66.513763     66.513763    133.027527
     -3.878879     70.426678     70.426678    140.853356
     -3.868869     73.272741     73.272741    146.545483
     -3.858859     74.476828     74.476828    148.953656
     -3.848849     73.421080     73.421080    146.842159
     -3.838839     69.684784     69.684784    139.369567
     -3.828829     63.283559     63.283559    126.567118
     -3.818819     54.789407     54.789407    109.578814
     -3.808809     45.258987     45.258987     90.517974
     -3.798799     35.984032     35.984032     71.968064
     -3.788789     28.157332     28.157332     56.314665
     -3.778779     22.578042     22.578042     45.156084
     -3.768769     19.491628     19.491628     38.983257
     -3.758759     18.597549     18.597549     37.195097
     -3.748749     19.198391     19.198391     38.396782
     -3.738739     20.430896     20.430896     40.861792
     -3.728729     21.512859     21.512859     43.025717
     -3.718719     21.948583     21.948583     43.897167
     -3.708709     21.649007     21.649007     43.298014
     -3.698699     20.938308     20.938308     41.876616
     -3.688689     20.439934     20.439934     40.879869
     -3.678679     20.863852     20.863852     41.727703
     -3.668669     22.750005     22.750005     45.500009
     -3.658659     26.248836     26.248836     52.497671
     -3.648649     31.021428     31.021428     62.042856
     -3.638639     36.307341     36.307341     72.614682
     -3.628629     41.143088     41.143088     82.286177
     -3.618619     44.647407     44.647407     89.294815
     -3.608609     46.259753     46.259753     92.519507
     -3.598599     45.847005     45.847005     91.694009
     -3.588589     43.663055     43.663055     87.326109
     -3.578579     40.211233     40.211233     80.422467
     -3.568569     36.081821     36.081821     72.163642
     -3.558559     31.815267     31.815267     63.630534
     -3.548549     27.807864     27.807864     55.615728
     -3.538539     24.261172     24.261172     48.522345
     -3.528529     21.180757     21.180757     42.361513
     -3.518519     18.431349     18.431349     36.862699
     -3.508509     15.838031     15.838031     31.676062
     -3.498498     13.296032     13.296032     26.592063
     -3.488488     10.840635     10.840635     21.681270
     -3.478478      8.646994      8.646994     17.293989
     -3.468468      6.965384      6.965384     13.930769
     -3.458458      6.025195      6.025195     12.050390
     -3.448448      5.946114      5.946114     11.892228
     -3.438438      6.683279      6.683279     13.366558
     -3.428428      8.019898      8.019898     16.039795
     -3.418418      9.612733      9.612733     19.225467
     -3.408408     11.086840     11.086840     22.173679
     -3.398398     12.158616     12.158616     24.317232
     -3.388388     12.745798     12.745798     25.491595
     -3.378378     13.016189     13.016189     26.032378
     -3.368368     13.346615     13.346615     26.693230
     -3.358358     14.203091     14.203091     28.406182
     -3.348348     15.988325     15.988325     31.976650
     -3.338338     18.910406     18.910406     37.820812
     -3.328328     22.905398     22.905398     45.810797
     -3.318318     27.617977     27.617977     55.235955
     -3.308308     32.432926     32.432926     64.865851
     -3.298298     36.559677     36.559677     73.119354
     -3.288288     39.179782     39.179782     78.359563
     -3.278278     39.647749     39.647749     79.295497
     -3.268268     37.691626     37.691626     75.383253
     -3.258258     33.526982     33.526982     67.053965
     -3.248248     27.815736     27.815736     55.631472
     -3.238238     21.471532     21.471532     42.943063
     -3.228228     15.392428     15.392428     30.784855
     -3.218218     10.235115     10.235115     20.470230
     -3.208208      6.312620      6.312620     12.625240
     -3.198198      3.627230      3.627230      7.254461
     -3.188188      1.990568      1.990568      3.981136
     -3.178178      1.163778      1.163778      2.327556
     -3.168168      0.969036      0.969036      1.938072
     -3.158158      1.354031      1.354031      2.708062
     -3.148148      2.410802      2.410802      4.821604
     -3.138138      4.352784      4.352784      8.705569
     -3.128128      7.448079      7.448079     14.896158
     -3.118118     11.907689     11.907689     23.815379
     -3.108108     17.744252     17.744252     35.488504
     -3.098098     24.645551     24.645551     49.291101
     -3.088088     31.929114     31.929114     63.858228
     -3.078078     38.634927     38.634927     77.269854
     -3.068068     43.761066     43.761066     87.522131
     -3.058058     46.569607     46.569607     93.139214
     -3.048048     46.832798     46.832798     93.665597
     -3.038038     44.897624     44.897624     89.795249
     -3.028028     41.529386     41.529386     83.058772
     -3.018018     37.608305     37.608305     75.216611
     -3.008008     33.827949     33.827949     67.655899
     -2.997998     30.534097     30.534097     61.068194
     -2.987988     27.757945     27.757945     55.515889
     -2.977978     25.393878     25.393878     50.787756
     -2.967968     23.408168     23.408168     46.816336
     -2.957958     21.966002     21.966002     43.932004
     -2.947948     21.416770     21.416770     42.833540
     -2.937938     22.148614     22.148614     44.297228
     -2.927928     24.381932     24.381932     48.763865
     -2.917918     27.998047     27.998047     55.996094
     -2.907908     32.486186     32.486186     64.972372
     -2.897898     37.044116     37.044116     74.088233
     -2.887888     40.802740     40.802740     81.605479
     -2.877878     43.089339     43.089339     86.178678
     -2.867868     43.623579     43.623579     87.247158
     -2.857858     42.566697     42.566697     85.133395
     -2.847848     40.407747     40.407747     80.815495
     -2.837838     37.742449     37.742449     75.484898
     -2.827828     35.045945     35.045945     70.091889
     -2.817818     32.538034     32.538034     65.076069
     -2.807808     30.189712     30.189712     60.379424
     -2.797798     27.848300     27.848300     55.696600
     -2.787788     25.401712     25.401712     50.803424
     -2.777778     22.889396     22.889396     45.778793
     -2.767768     20.504242     20.504242     41.008485
     -2.757758     18.495392     18.495392     36.990784
     -2.747748     17.039337     17.039337     34.078675
     -2.737738     16.162632     16.162632     32.325264
     -2.727728     15.764006     15.764006     31.528013
     -2.717718     15.717645     15.717645     31.435290
     -2.707708     15.984258     15.984258     31.968517
     -2.697698     16.649142     16.649142     33.298285
     -2.687688     17.854145     17.854145     35.708290
     -2.677678     19.663944     19.663944     39.327889
     -2.667668     21.957266     21.957266     43.914531
     -2.657658     24.424200     24.424200     48.848399
     -2.647648     26.684099     26.684099     53.368197
     -2.637638     28.457606     28.457606     56.915213
     -2.627628     29.687256     29.687256     59.374512
     -2.617618     30.533171     30.533171     61.066343
     -2.607608     31.252446     31.252446     62.504893
     -2.597598     32.043768     32.043768     64.087535
     -2.587588     32.950387     32.950387     65.900775
     -2.577578     33.860829     33.860829     67.721658
     -2.567568     34.575351     34.575351     69.150703
     -2.557558     34.875296     34.875296     69.750592
     -2.547548     34.560278     34.560278     69.120557
     -2.537538     33.469618     33.469618     66.939235
     -2.527528     31.526048     31.526048     63.052097
     -2.517518     28.810682     28.810682     57.621364
     -2.507508     25.627729     25.627729     51.255459
     -2.497497     22.495697     22.495697     44.991393
     -2.487487     20.032924     20.032924     40.065848
     -2.477477     18.768749     18.768749     37.537498
     -2.467467     18.962158     18.962158     37.924316
     -2.457457     20.514579     20.514579     41.029159
     -2.447447     23.021192     23.021192     46.042385
     -2.437437     25.940225     25.940225     51.880451
     -2.427427     28.804510     28.804510     57.609021
     -2.417417     31.379133     31.379133     62.758266
     -2.407407     33.692822     33.692822     67.385643
     -2.397397     35.929156     35.929156     71.858312
     -2.387387     38.230902     38.230902     76.461803
     -2.377377     40.515556     40.515556     81.031111
     -2.367367     42.400434     42.400434     84.800869
     -2.357357     43.288570     43.288570     86.577139
     -2.347347     42.591159     42.591159     85.182317
     -2.337337     39.992736     39.992736     79.985473
     -2.327327     35.637921     35.637921     71.275842
     -2.317317     30.151716     30.151716     60.303432
     -2.307307     24.483774     24.483774     48.967548
     -2.297297     19.646920     19.646920     39.293839
     -2.287287     16.457425     16.457425     32.914851
     -2.277277     15.364818     15.364818     30.729636
     -2.267267     16.405019     16.405019     32.810039
     -2.257257     19.259352     19.259352     38.518704
     -2.247247     23.375880     23.375880     46.751761
     -2.237237     28.107257     28.107257     56.214514
     -2.227227     32.828202     32.828202     65.656404
     -2.217217     37.008784     37.008784     74.017567
     -2.207207     40.237919     40.237919     80.475837
     -2.197197     42.214198     42.214198     84.428397
     -2.187187     42.737596     42.737596     85.475192
     -2.177177     41.730813     41.730813     83.461627
     -2.167167     39.289072     39.289072     78.578144
     -2.157157     35.719674     35.719674     71.439348
     -2.147147     31.518249     31.518249     63.036497
     -2.137137     27.256542     27.256542     54.513084
     -2.127127     23.414142     23.414142     46.828283
     -2.117117     20.233378     20.233378     40.466757
     -2.107107     17.674968     17.674968     35.349936
     -2.097097     15.497970     15.497970     30.995940
     -2.087087     13.416980     13.416980     26.833959
     -2.077077     11.250012     11.250012     22.500023
     -2.067067      8.986065      8.986065     17.972131
     -2.057057      6.755892      6.755892     13.511784
     -2.047047      4.743278      4.743278      9.486555
     -2.037037      3.095066      3.095066      6.190131
     -2.027027      1.872018      1.872018      3.744035
     -2.017017      1.049299      1.049299      2.098599
     -2.007007      0.549202      0.549202      1.098404
     -1.996997      0.281429      0.281429      0.562858
     -1.986987      0.174279      0.174279      0.348557
     -1.976977      0.192275      0.192275      0.384550
     -1.966967      0.343501      0.343501      0.687002
     -1.956957      0.680383      0.680383      1.360766
     -1.946947      1.293602      1.293602      2.587205
     -1.936937      2.294879      2.294879      4.589757
     -1.926927      3.784940      3.784940      7.569880
     -1.916917      5.809746      5.809746     11.619492
     -1.906907      8.318088      8.318088     16.636176
     -1.896897     11.140125     11.140125     22.280250
     -1.886887     14.002606     14.002606     28.005212
     -1.876877     16.582146     16.582146     33.164291
     -1.866867     18.580977     18.580977     37.161954
     -1.856857     19.800441     19.800441     39.600883
     -1.846847     20.189828     20.189828     40.379656
     -1.836837     19.856810     19.856810     39.713619
     -1.826827     19.034181     19.034181     38.068363
     -1.816817     18.006327     18.006327     36.012655
     -1.806807     17.012883     17.012883     34.025766
     -1.796797     16.164510     16.164510     32.329019
     -1.786787     15.412678     15.412678     30.825356
     -1.776777     14.597387     14.597387     29.194773
     -1.766767     13.556712     13.556712     27.113424
     -1.756757     12.244014     12.244014     24.488028
     -1.746747     10.789953     10.789953     21.579906
     -1.736737      9.474980      9.474980     18.949961
     -1.726727      8.625265      8.625265     17.250529
     -1.716717      8.482343      8.482343     16.964686
     -1.706707      9.105937      9.105937     18.211874
     -1.696697     10.350766     10.350766     20.701531
     -1.686687     11.923849     11.923849     23.847697
     -1.676677     13.493132     13.493132     26.986265
     -1.666667     14.795191     14.795191     29.590382
     -1.656657     15.691437     15.691437     31.382873
     -1.646647     16.152229     16.152229     32.304459
     -1.636637     16.192563     16.192563     32.385127
     -1.626627     15.813295     15.813295     31.626591
