# EIG2DOS: Utility for SIESTA to obtain the electronic density of states
#  E. Artacho, Apr 1999, A. Garcia, Apr 2012
#  Nick R. Papior, Feb 2017
# ------------------------------------------
# Eigenvalues calculated from a non-polarized calculation
# Eigenvalues read from siesta.EIG
# Kpoint weights read from siesta.KP
# Using smearing parameter:   0.0500
# Using 1000 points in the energy range
# Selected bands: 1 to: 2981
# Emin, Emax in file for selected band(s):    -27.2331558    218.3922000
# Nbands, Nspin, Nk   =   2981     1     1
# E_F                 =    -4.2128 eV --> (shifted to ZERO)
# Broadening          =     0.0500 eV
#
#        E            N(up)  (=)   N(down)         Ntot
     -5.000000     31.587228     31.587228     63.174456
     -4.989990     36.295808     36.295808     72.591616
     -4.979980     40.756035     40.756035     81.512069
     -4.969970     44.239592     44.239592     88.479184
     -4.959960     46.104591     46.104591     92.209183
     -4.949950     46.007135     46.007135     92.014271
     -4.939940     44.023980     44.023980     88.047961
     -4.929930     40.647750     40.647750     81.295499
     -4.919920     36.675874     36.675874     73.351748
     -4.909910     33.047643     33.047643     66.095285
     -4.899900     30.674462     30.674462     61.348924
     -4.889890     30.276398     30.276398     60.552797
     -4.879880     32.221813     32.221813     64.443627
     -4.869870     36.387689     36.387689     72.775379
     -4.859860     42.097694     42.097694     84.195387
     -4.849850     48.208439     48.208439     96.416878
     -4.839840     53.370353     53.370353    106.740705
     -4.829830     56.401948     56.401948    112.803896
     -4.819820     56.639628     56.639628    113.279256
     -4.809810     54.115845     54.115845    108.231689
     -4.799800     49.491640     49.491640     98.983280
     -4.789790     43.785135     43.785135     87.570270
     -4.779780     38.026716     38.026716     76.053432
     -4.769770     32.985153     32.985153     65.970305
     -4.759760     29.048845     29.048845     58.097691
     -4.749750     26.259539     26.259539     52.519079
     -4.739740     24.434947     24.434947     48.869895
     -4.729730     23.305093     23.305093     46.610185
     -4.719720     22.612609     22.612609     45.225218
     -4.709710     22.162576     22.162576     44.325151
     -4.699700     21.833022     21.833022     43.666045
     -4.689690     21.567111     21.567111     43.134221
     -4.679680     21.364843     21.364843     42.729687
     -4.669670     21.282069     21.282069     42.564139
     -4.659660     21.434879     21.434879     42.869758
     -4.649650     22.002553     22.002553     44.005105
     -4.639640     23.219877     23.219877     46.439754
     -4.629630     25.345597     25.345597     50.691194
     -4.619620     28.591880     28.591880     57.183760
     -4.609610     33.012694     33.012694     66.025388
     -4.599600     38.382763     38.382763     76.765527
     -4.589590     44.135092     44.135092     88.270183
     -4.579580     49.428549     49.428549     98.857097
     -4.569570     53.366140     53.366140    106.732279
     -4.559560     55.298995     55.298995    110.597990
     -4.549550     55.084527     55.084527    110.169054
     -4.539540     53.168393     53.168393    106.336785
     -4.529530     50.435409     50.435409    100.870817
     -4.519520     47.883768     47.883768     95.767537
     -4.509510     46.260251     46.260251     92.520502
     -4.499499     45.809464     45.809464     91.618929
     -4.489489     46.233542     46.233542     92.467083
     -4.479479     46.861667     46.861667     93.723333
     -4.469469     46.939706     46.939706     93.879412
     -4.459459     45.909882     45.909882     91.819765
     -4.449449     43.573227     43.573227     87.146455
     -4.439439     40.095932     40.095932     80.191863
     -4.429429     35.896152     35.896152     71.792304
     -4.419419     31.491458     31.491458     62.982917
     -4.409409     27.380391     27.380391     54.760782
     -4.399399     23.985889     23.985889     47.971778
     -4.389389     21.638009     21.638009     43.276018
     -4.379379     20.553529     20.553529     41.107057
     -4.369369     20.791986     20.791986     41.583971
     -4.359359     22.210123     22.210123     44.420247
     -4.349349     24.462250     24.462250     48.924499
     -4.339339     27.079237     27.079237     54.158473
     -4.329329     29.612630     29.612630     59.225259
     -4.319319     31.785805     31.785805     63.571609
     -4.309309     33.581735     33.581735     67.163469
     -4.299299     35.222897     35.222897     70.445794
     -4.289289     37.045161     37.045161     74.090322
     -4.279279     39.310274     39.310274     78.620547
     -4.269269     42.027017     42.027017     84.054034
     -4.259259     44.855854     44.855854     89.711708
     -4.249249     47.153185     47.153185     94.306370
     -4.239239     48.165013     48.165013     96.330025
     -4.229229     47.312686     47.312686     94.625372
     -4.219219     44.454445     44.454445     88.908890
     -4.209209     39.996548     39.996548     79.993096
     -4.199199     34.787533     34.787533     69.575067
     -4.189189     29.834161     29.834161     59.668322
     -4.179179     25.967577     25.967577     51.935154
     -4.169169     23.608733     23.608733     47.217467
     -4.159159     22.723593     22.723593     45.447187
     -4.149149     22.960534     22.960534     45.921069
     -4.139139     23.881202     23.881202     47.762403
     -4.129129     25.167965     25.167965     50.335930
     -4.119119     26.717271     26.717271     53.434541
     -4.109109     28.587292     28.587292     57.174583
     -4.099099     30.835522     30.835522     61.671043
     -4.089089     33.335642     33.335642     66.671284
     -4.079079     35.681802     35.681802     71.363604
     -4.069069     37.255142     37.255142     74.510283
     -4.059059     37.446015     37.446015     74.892030
     -4.049049     35.933660     35.933660     71.867320
     -4.039039     32.879838     32.879838     65.759676
     -4.029029     28.929875     28.929875     57.859750
     -4.019019     25.015933     25.015933     50.031866
     -4.009009     22.060184     22.060184     44.120368
     -3.998999     20.716730     20.716730     41.433460
     -3.988989     21.251702     21.251702     42.503404
     -3.978979     23.575518     23.575518     47.151036
     -3.968969     27.367547     27.367547     54.735095
     -3.958959     32.211729     32.211729     64.423458
     -3.948949     37.691444     37.691444     75.382888
     -3.938939     43.439335     43.439335     86.878671
     -3.928929     49.164133     49.164133     98.328265
     -3.918919     54.667701     54.667701    109.335402
     -3.908909     59.839926     59.839926    119.679852
     -3.898899     64.609087     64.609087    129.218173
     -3.888889     68.847730     68.847730    137.695461
     -3.878879     72.274284     72.274284    144.548568
     -3.868869     74.415535     74.415535    148.831069
     -3.858859     74.679986     74.679986    149.359972
     -3.848849     72.539874     72.539874    145.079748
     -3.838839     67.758640     67.758640    135.517279
     -3.828829     60.565973     60.565973    121.131947
     -3.818819     51.695080     51.695080    103.390159
     -3.808809     42.251912     42.251912     84.503823
     -3.798799     33.456194     33.456194     66.912388
     -3.788789     26.344392     26.344392     52.688785
     -3.778779     21.533363     21.533363     43.066726
     -3.768769     19.112204     19.112204     38.224408
     -3.758759     18.679991     18.679991     37.359981
     -3.748749     19.502876     19.502876     39.005752
     -3.738739     20.738672     20.738672     41.477345
     -3.728729     21.670181     21.670181     43.340361
     -3.718719     21.893289     21.893289     43.786578
     -3.708709     21.416812     21.416812     42.833623
     -3.698699     20.647230     20.647230     41.294459
     -3.688689     20.254595     20.254595     40.509190
     -3.678679     20.946322     20.946322     41.892645
     -3.668669     23.208721     23.208721     46.417442
     -3.658659     27.099777     27.099777     54.199555
     -3.648649     32.174215     32.174215     64.348429
     -3.638639     37.582156     37.582156     75.164312
     -3.628629     42.314033     42.314033     84.628066
     -3.618619     45.498270     45.498270     90.996541
     -3.608609     46.634294     46.634294     93.268588
     -3.598599     45.679600     45.679600     91.359199
     -3.588589     42.984269     42.984269     85.968539
     -3.578579     39.131303     39.131303     78.262607
     -3.568569     34.759663     34.759663     69.519326
     -3.558559     30.421719     30.421719     60.843437
     -3.548549     26.491490     26.491490     52.982980
     -3.538539     23.124077     23.124077     46.248153
     -3.528529     20.269460     20.269460     40.538919
     -3.518519     17.743206     17.743206     35.486412
     -3.508509     15.338321     15.338321     30.676642
     -3.498498     12.937633     12.937633     25.875266
     -3.488488     10.579021     10.579021     21.158043
     -3.478478      8.447375      8.447375     16.894750
     -3.468468      6.803368      6.803368     13.606737
     -3.458458      5.884829      5.884829     11.769657
     -3.448448      5.818718      5.818718     11.637435
     -3.438438      6.568320      6.568320     13.136641
     -3.428428      7.926967      7.926967     15.853934
     -3.418418      9.562877      9.562877     19.125754
     -3.408408     11.112294     11.112294     22.224589
     -3.398398     12.301751     12.301751     24.603502
     -3.388388     13.059784     13.059784     26.119568
     -3.378378     13.570719     13.570719     27.141439
     -3.368368     14.241186     14.241186     28.482372
     -3.358358     15.587108     15.587108     31.174215
     -3.348348     18.080895     18.080895     36.161790
     -3.338338     22.004490     22.004490     44.008981
     -3.328328     27.336246     27.336246     54.672492
     -3.318318     33.682686     33.682686     67.365372
     -3.308308     40.270819     40.270819     80.541638
     -3.298298     46.034255     46.034255     92.068510
     -3.288288     49.821975     49.821975     99.643951
     -3.278278     50.707142     50.707142    101.414283
     -3.268268     48.296023     48.296023     96.592045
     -3.258258     42.895730     42.895730     85.791461
     -3.248248     35.443833     35.443833     70.887667
     -3.238238     27.218991     27.218991     54.437983
     -3.228228     19.464461     19.464461     38.928923
     -3.218218     13.089362     13.089362     26.178723
     -3.208208      8.549870      8.549870     17.099739
     -3.198198      5.905660      5.905660     11.811320
     -3.188188      4.968091      4.968091      9.936181
     -3.178178      5.444794      5.444794     10.889588
     -3.168168      7.028151      7.028151     14.056301
     -3.158158      9.430355      9.430355     18.860711
     -3.148148     12.397361     12.397361     24.794722
     -3.138138     15.725781     15.725781     31.451563
     -3.128128     19.277197     19.277197     38.554394
     -3.118118     22.963816     22.963816     45.927632
     -3.108108     26.690291     26.690291     53.380582
     -3.098098     30.274051     30.274051     60.548101
     -3.088088     33.399775     33.399775     66.799550
     -3.078078     35.658795     35.658795     71.317590
     -3.068068     36.674851     36.674851     73.349701
     -3.058058     36.255383     36.255383     72.510766
     -3.048048     34.480111     34.480111     68.960222
     -3.038038     31.671392     31.671392     63.342785
     -3.028028     28.264020     28.264020     56.528040
     -3.018018     24.654018     24.654018     49.308037
     -3.008008     21.113176     21.113176     42.226352
     -2.997998     17.806185     17.806185     35.612370
     -2.987988     14.879099     14.879099     29.758199
     -2.977978     12.548482     12.548482     25.096964
     -2.967968     11.129932     11.129932     22.259865
     -2.957958     10.986211     10.986211     21.972422
     -2.947948     12.416755     12.416755     24.833510
     -2.937938     15.531737     15.531737     31.063475
     -2.927928     20.155595     20.155595     40.311190
     -2.917918     25.796984     25.796984     51.593969
     -2.907908     31.708302     31.708302     63.416604
     -2.897898     37.034639     37.034639     74.069279
     -2.887888     41.018751     41.018751     82.037503
     -2.877878     43.196986     43.196986     86.393971
     -2.867868     43.510955     43.510955     87.021911
     -2.857858     42.284675     42.284675     84.569349
     -2.847848     40.071626     40.071626     80.143252
     -2.837838     37.435695     37.435695     74.871390
     -2.827828     34.762183     34.762183     69.524366
     -2.817818     32.180147     32.180147     64.360295
     -2.807808     29.620413     29.620413     59.240827
     -2.797798     26.964196     26.964196     53.928391
     -2.787788     24.193183     24.193183     48.386367
     -2.777778     21.457496     21.457496     42.914992
     -2.767768     19.029462     19.029462     38.058924
     -2.757758     17.178818     17.178818     34.357637
     -2.747748     16.049541     16.049541     32.099082
     -2.737738     15.613922     15.613922     31.227844
     -2.727728     15.728268     15.728268     31.456536
     -2.717718     16.247758     16.247758     32.495517
     -2.707708     17.118384     17.118384     34.236769
     -2.697698     18.379279     18.379279     36.758558
     -2.687688     20.072069     20.072069     40.144138
     -2.677678     22.123611     22.123611     44.247222
     -2.667668     24.294732     24.294732     48.589463
     -2.657658     26.247438     26.247438     52.494877
     -2.647648     27.700807     27.700807     55.401614
     -2.637638     28.578946     28.578946     57.157893
     -2.627628     29.053143     29.053143     58.106287
     -2.617618     29.447750     29.447750     58.895500
     -2.607608     30.067445     30.067445     60.134890
     -2.597598     31.048478     31.048478     62.096957
     -2.587588     32.308993     32.308993     64.617987
     -2.577578     33.600624     33.600624     67.201248
     -2.567568     34.604706     34.604706     69.209411
     -2.557558     35.012951     35.012951     70.025902
     -2.547548     34.575173     34.575173     69.150346
     -2.537538     33.138636     33.138636     66.277271
     -2.527528     30.705031     30.705031     61.410061
     -2.517518     27.494106     27.494106     54.988213
     -2.507508     23.966459     23.966459     47.932918
     -2.497497     20.759350     20.759350     41.518700
     -2.487487     18.532130     18.532130     37.064260
     -2.477477     17.771821     17.771821     35.543641
     -2.467467     18.638650     18.638650     37.277300
     -2.457457     20.919602     20.919602     41.839203
     -2.447447     24.113589     24.113589     48.227178
     -2.437437     27.616170     27.616170     55.232341
     -2.427427     30.927950     30.927950     61.855900
     -2.417417     33.797550     33.797550     67.595100
     -2.407407     36.236046     36.236046     72.472092
     -2.397397     38.397559     38.397559     76.795119
     -2.387387     40.385934     40.385934     80.771867
     -2.377377     42.088237     42.088237     84.176474
     -2.367367     43.129049     43.129049     86.258098
     -2.357357     42.983753     42.983753     85.967505
     -2.347347     41.208503     41.208503     82.417007
     -2.337337     37.680161     37.680161     75.360322
     -2.327327     32.728545     32.728545     65.457090
     -2.317317     27.095217     27.095217     54.190434
     -2.307307     21.738687     21.738687     43.477374
     -2.297297     17.575005     17.575005     35.150011
     -2.287287     15.257943     15.257943     30.515885
     -2.277277     15.065229     15.065229     30.130458
     -2.267267     16.899392     16.899392     33.798784
     -2.257257     20.369228     20.369228     40.738455
     -2.247247     24.905315     24.905315     49.810629
     -2.237237     29.872207     29.872207     59.744413
     -2.227227     34.655935     34.655935     69.311869
     -2.217217     38.719789     38.719789     77.439578
     -2.207207     41.633353     41.633353     83.266705
     -2.197197     43.089492     43.089492     86.178985
     -2.187187     42.926868     42.926868     85.853736
     -2.177177     41.165188     41.165188     82.330376
     -2.167167     38.037972     38.037972     76.075944
     -2.157157     33.987380     33.987380     67.974760
     -2.147147     29.588533     29.588533     59.177065
     -2.137137     25.405273     25.405273     50.810546
     -2.127127     21.827873     21.827873     43.655746
     -2.117117     18.969768     18.969768     37.939537
     -2.107107     16.679042     16.679042     33.358085
     -2.097097     14.659593     14.659593     29.319186
     -2.087087     12.636449     12.636449     25.272897
     -2.077077     10.480364     10.480364     20.960727
     -2.067067      8.239000      8.239000     16.478001
     -2.057057      6.080016      6.080016     12.160033
     -2.047047      4.195752      4.195752      8.391505
     -2.037037      2.726351      2.726351      5.452702
     -2.027027      1.732928      1.732928      3.465855
     -2.017017      1.217809      1.217809      2.435619
     -2.007007      1.166049      1.166049      2.332097
     -1.996997      1.578563      1.578563      3.157127
     -1.986987      2.477605      2.477605      4.955209
     -1.976977      3.881737      3.881737      7.763474
     -1.966967      5.764005      5.764005     11.528011
     -1.956957      8.018341      8.018341     16.036681
     -1.946947     10.459257     10.459257     20.918514
     -1.936937     12.864436     12.864436     25.728872
     -1.926927     15.043714     15.043714     30.087429
     -1.916917     16.897153     16.897153     33.794307
     -1.906907     18.426402     18.426402     36.852805
     -1.896897     19.690655     19.690655     39.381311
     -1.886887     20.734093     20.734093     41.468186
     -1.876877     21.530564     21.530564     43.061127
     -1.866867     21.980352     21.980352     43.960704
     -1.856857     21.962049     21.962049     43.924099
     -1.846847     21.411028     21.411028     42.822057
     -1.836837     20.381489     20.381489     40.762978
     -1.826827     19.055773     19.055773     38.111545
     -1.816817     17.688284     17.688284     35.376568
     -1.806807     16.503497     16.503497     33.006995
     -1.796797     15.595265     15.595265     31.190531
     -1.786787     14.881443     14.881443     29.762885
     -1.776777     14.143757     14.143757     28.287514
     -1.766767     13.136964     13.136964     26.273929
     -1.756757     11.711213     11.711213     23.422426
     -1.746747      9.884656      9.884656     19.769312
     -1.736737      7.834845      7.834845     15.669690
     -1.726727      5.825062      5.825062     11.650124
     -1.716717      4.113529      4.113529      8.227057
     -1.706707      2.891495      2.891495      5.782991
     -1.696697      2.267804      2.267804      4.535608
     -1.686687      2.285201      2.285201      4.570401
     -1.676677      2.938031      2.938031      5.876062
     -1.666667      4.168539      4.168539      8.337078
     -1.656657      5.842141      5.842141     11.684281
     -1.646647      7.725400      7.725400     15.450801
     -1.636637      9.498833      9.498833     18.997666
     -1.626627     10.822742     10.822742     21.645485
