# EIG2DOS: Utility for SIESTA to obtain the electronic density of states
#  E. Artacho, Apr 1999, A. Garcia, Apr 2012
#  Nick R. Papior, Feb 2017
# ------------------------------------------
# Eigenvalues calculated from a non-polarized calculation
# Eigenvalues read from siesta.EIG
# Kpoint weights read from siesta.KP
# Using smearing parameter:   0.0500
# Using 1000 points in the energy range
# Selected bands: 1 to: 2981
# Emin, Emax in file for selected band(s):    -27.0638468    218.3198830
# Nbands, Nspin, Nk   =   2981     1     1
# E_F                 =    -4.2924 eV --> (shifted to ZERO)
# Broadening          =     0.0500 eV
#
#        E            N(up)  (=)   N(down)         Ntot
     -5.000000     41.895569     41.895569     83.791139
     -4.989990     43.280821     43.280821     86.561642
     -4.979980     44.161056     44.161056     88.322111
     -4.969970     44.380987     44.380987     88.761975
     -4.959960     43.777227     43.777227     87.554453
     -4.949950     42.272048     42.272048     84.544097
     -4.939940     39.945365     39.945365     79.890731
     -4.929930     37.065203     37.065203     74.130405
     -4.919920     34.079680     34.079680     68.159361
     -4.909910     31.579299     31.579299     63.158598
     -4.899900     30.226108     30.226108     60.452216
     -4.889890     30.632576     30.632576     61.265151
     -4.879880     33.182000     33.182000     66.363999
     -4.869870     37.824809     37.824809     75.649617
     -4.859860     43.939769     43.939769     87.879537
     -4.849850     50.368267     50.368267    100.736534
     -4.839840     55.675647     55.675647    111.351295
     -4.829830     58.578017     58.578017    117.156034
     -4.819820     58.363827     58.363827    116.727654
     -4.809810     55.116490     55.116490    110.232981
     -4.799800     49.635768     49.635768     99.271536
     -4.789790     43.109285     43.109285     86.218569
     -4.779780     36.703260     36.703260     73.406521
     -4.769770     31.253109     31.253109     62.506218
     -4.759760     27.147702     27.147702     54.295404
     -4.749750     24.387270     24.387270     48.774541
     -4.739740     22.727015     22.727015     45.454030
     -4.729730     21.819510     21.819510     43.639020
     -4.719720     21.310978     21.310978     42.621956
     -4.709710     20.888966     20.888966     41.777933
     -4.699700     20.301308     20.301308     40.602616
     -4.689690     19.370250     19.370250     38.740500
     -4.679680     18.018473     18.018473     36.036946
     -4.669670     16.309082     16.309082     32.618165
     -4.659660     14.483805     14.483805     28.967611
     -4.649650     12.971895     12.971895     25.943790
     -4.639640     12.344581     12.344581     24.689162
     -4.629630     13.205605     13.205605     26.411210
     -4.619620     16.029840     16.029840     32.059680
     -4.609610     20.983615     20.983615     41.967230
     -4.599600     27.780300     27.780300     55.560599
     -4.589590     35.636746     35.636746     71.273492
     -4.579580     43.385125     43.385125     86.770251
     -4.569570     49.747317     49.747317     99.494635
     -4.559560     53.704403     53.704403    107.408807
     -4.549550     54.829208     54.829208    109.658415
     -4.539540     53.440190     53.440190    106.880381
     -4.529530     50.498582     50.498582    100.997165
     -4.519520     47.280679     47.280679     94.561358
     -4.509510     44.955904     44.955904     89.911808
     -4.499499     44.236117     44.236117     88.472235
     -4.489489     45.217506     45.217506     90.435011
     -4.479479     47.441959     47.441959     94.883918
     -4.469469     50.112970     50.112970    100.225940
     -4.459459     52.356897     52.356897    104.713793
     -4.449449     53.436674     53.436674    106.873348
     -4.439439     52.878795     52.878795    105.757591
     -4.429429     50.525532     50.525532    101.051063
     -4.419419     46.542962     46.542962     93.085925
     -4.409409     41.399745     41.399745     82.799490
     -4.399399     35.805265     35.805265     71.610530
     -4.389389     30.588069     30.588069     61.176139
     -4.379379     26.518236     26.518236     53.036472
     -4.369369     24.116726     24.116726     48.233453
     -4.359359     23.521356     23.521356     47.042712
     -4.349349     24.469659     24.469659     48.939318
     -4.339339     26.413451     26.413451     52.826903
     -4.329329     28.721920     28.721920     57.443841
     -4.319319     30.891734     30.891734     61.783469
     -4.309309     32.684338     32.684338     65.368677
     -4.299299     34.148326     34.148326     68.296651
     -4.289289     35.534353     35.534353     71.068705
     -4.279279     37.145028     37.145028     74.290057
     -4.269269     39.172528     39.172528     78.345056
     -4.259259     41.571775     41.571775     83.143549
     -4.249249     44.010255     44.010255     88.020510
     -4.239239     45.925924     45.925924     91.851847
     -4.229229     46.697566     46.697566     93.395131
     -4.219219     45.881381     45.881381     91.762762
     -4.209209     43.416314     43.416314     86.832627
     -4.199199     39.691326     39.691326     79.382652
     -4.189189     35.424866     35.424866     70.849733
     -4.179179     31.405586     31.405586     62.811172
     -4.169169     28.221000     28.221000     56.441999
     -4.159159     26.104456     26.104456     52.208912
     -4.149149     24.959701     24.959701     49.919401
     -4.139139     24.525516     24.525516     49.051032
     -4.129129     24.577972     24.577972     49.155944
     -4.119119     25.062004     25.062004     50.124007
     -4.109109     26.088279     26.088279     52.176558
     -4.099099     27.799690     27.799690     55.599379
     -4.089089     30.178210     30.178210     60.356420
     -4.079079     32.902313     32.902313     65.804626
     -4.069069     35.353811     35.353811     70.707622
     -4.059059     36.803163     36.803163     73.606326
     -4.049049     36.701455     36.701455     73.402909
     -4.039039     34.934466     34.934466     69.868932
     -4.029029     31.902746     31.902746     63.805492
     -4.019019     28.384394     28.384394     56.768788
     -4.009009     25.257186     25.257186     50.514373
     -3.998999     23.225550     23.225550     46.451100
     -3.988989     22.674249     22.674249     45.348497
     -3.978979     23.678877     23.678877     47.357754
     -3.968969     26.111743     26.111743     52.223485
     -3.958959     29.749906     29.749906     59.499812
     -3.948949     34.329242     34.329242     68.658484
     -3.938939     39.553002     39.553002     79.106004
     -3.928929     45.100780     45.100780     90.201560
     -3.918919     50.668930     50.668930    101.337860
     -3.908909     56.026734     56.026734    112.053468
     -3.898899     61.038620     61.038620    122.077240
     -3.888889     65.612949     65.612949    131.225897
     -3.878879     69.587809     69.587809    139.175618
     -3.868869     72.619102     72.619102    145.238204
     -3.858859     74.156523     74.156523    148.313046
     -3.848849     73.559902     73.559902    147.119803
     -3.838839     70.334664     70.334664    140.669329
     -3.828829     64.390576     64.390576    128.781153
     -3.818819     56.197589     56.197589    112.395178
     -3.808809     46.749674     46.749674     93.499348
     -3.798799     37.334856     37.334856     74.669712
     -3.788789     29.198321     29.198321     58.396641
     -3.778779     23.226784     23.226784     46.453568
     -3.768769     19.760289     19.760289     39.520577
     -3.758759     18.574912     18.574912     37.149825
     -3.748749     19.015986     19.015986     38.031973
     -3.738739     20.223479     20.223479     40.446958
     -3.728729     21.382368     21.382368     42.764736
     -3.718719     21.938943     21.938943     43.877887
     -3.708709     21.737196     21.737196     43.474391
     -3.698699     21.044359     21.044359     42.088718
     -3.688689     20.454483     20.454483     40.908966
     -3.678679     20.686710     20.686710     41.373420
     -3.668669     22.328426     22.328426     44.656851
     -3.658659     25.602017     25.602017     51.204034
     -3.648649     30.240887     30.240887     60.481774
     -3.638639     35.531523     35.531523     71.063045
     -3.628629     40.515784     40.515784     81.031568
     -3.618619     44.277060     44.277060     88.554121
     -3.608609     46.195490     46.195490     92.390980
     -3.598599     46.077556     46.077556     92.155111
     -3.588589     44.133072     44.133072     88.266143
     -3.578579     40.843417     40.843417     81.686835
     -3.568569     36.795559     36.795559     73.591118
     -3.558559     32.539075     32.539075     65.078149
     -3.548549     28.487471     28.487471     56.974942
     -3.538539     24.864676     24.864676     49.729353
     -3.528529     21.699501     21.699501     43.399003
     -3.518519     18.874468     18.874468     37.748935
     -3.508509     16.221428     16.221428     32.442856
     -3.498498     13.630347     13.630347     27.260694
     -3.488488     11.123810     11.123810     22.247620
     -3.478478      8.864498      8.864498     17.728996
     -3.468468      7.097122      7.097122     14.194244
     -3.458458      6.055508      6.055508     12.111017
     -3.448448      5.873023      5.873023     11.746047
     -3.438438      6.524065      6.524065     13.048130
     -3.428428      7.810959      7.810959     15.621919
     -3.418418      9.402485      9.402485     18.804970
     -3.408408     10.922196     10.922196     21.844392
     -3.398398     12.068563     12.068563     24.137125
     -3.388388     12.727983     12.727983     25.455966
     -3.378378     13.032267     13.032267     26.064535
     -3.368368     13.328707     13.328707     26.657414
     -3.358358     14.069381     14.069381     28.138763
     -3.348348     15.663409     15.663409     31.326817
     -3.338338     18.346572     18.346572     36.693144
     -3.328328     22.102396     22.102396     44.204793
     -3.318318     26.637930     26.637930     53.275860
     -3.308308     31.403677     31.403677     62.807354
     -3.298298     35.658160     35.658160     71.316321
     -3.288288     38.592064     38.592064     77.184129
     -3.278278     39.514577     39.514577     79.029155
     -3.268268     38.060420     38.060420     76.120840
     -3.258258     34.333215     34.333215     68.666430
     -3.248248     28.904338     28.904338     57.808675
     -3.238238     22.648919     22.648919     45.297838
     -3.228228     16.485045     16.485045     32.970090
     -3.218218     11.130010     11.130010     22.260020
     -3.208208      6.968151      6.968151     13.936302
     -3.198198      4.057739      4.057739      8.115479
     -3.188188      2.238055      2.238055      4.476111
     -3.178178      1.269178      1.269178      2.538355
     -3.168168      0.949247      0.949247      1.898494
     -3.158158      1.184554      1.184554      2.369107
     -3.148148      2.012068      2.012068      4.024136
     -3.138138      3.581972      3.581972      7.163943
     -3.128128      6.105078      6.105078     12.210156
     -3.118118      9.768777      9.768777     19.537553
     -3.108108     14.633258     14.633258     29.266516
     -3.098098     20.535279     20.535279     41.070557
     -3.088088     27.038846     27.038846     54.077693
     -3.078078     33.467976     33.467976     66.935952
     -3.068068     39.030750     39.030750     78.061500
     -3.058058     43.004636     43.004636     86.009272
     -3.048048     44.920523     44.920523     89.841045
     -3.038038     44.677585     44.677585     89.355171
     -3.028028     42.549244     42.549244     85.098489
     -3.018018     39.087647     39.087647     78.175295
     -3.008008     34.973332     34.973332     69.946663
     -2.997998     30.867578     30.867578     61.735156
     -2.987988     27.307946     27.307946     54.615893
     -2.977978     24.660550     24.660550     49.321100
     -2.967968     23.123097     23.123097     46.246194
     -2.957958     22.763008     22.763008     45.526016
     -2.947948     23.567364     23.567364     47.134728
     -2.937938     25.474696     25.474696     50.949391
     -2.927928     28.363823     28.363823     56.727646
     -2.917918     32.001840     32.001840     64.003681
     -2.907908     35.991225     35.991225     71.982449
     -2.897898     39.775340     39.775340     79.550679
     -2.887888     42.738526     42.738526     85.477052
     -2.877878     44.378839     44.378839     88.757677
     -2.867868     44.476204     44.476204     88.952409
     -2.857858     43.166602     43.166602     86.333203
     -2.847848     40.875870     40.875870     81.751741
     -2.837838     38.139972     38.139972     76.279944
     -2.827828     35.398188     35.398188     70.796376
     -2.817818     32.857835     32.857835     65.715671
     -2.807808     30.488473     30.488473     60.976947
     -2.797798     28.134197     28.134197     56.268394
     -2.787788     25.672559     25.672559     51.345118
     -2.777778     23.129384     23.129384     46.258768
     -2.767768     20.689329     20.689329     41.378657
     -2.757758     18.604723     18.604723     37.209447
     -2.747748     17.064590     17.064590     34.129180
     -2.737738     16.107513     16.107513     32.215027
     -2.727728     15.632695     15.632695     31.265389
     -2.717718     15.499777     15.499777     30.999553
     -2.707708     15.649006     15.649006     31.298013
     -2.697698     16.157444     16.157444     32.314887
     -2.687688     17.186886     17.186886     34.373772
     -2.677678     18.851330     18.851330     37.702661
     -2.667668     21.089487     21.089487     42.178974
     -2.657658     23.631158     23.631158     47.262316
     -2.647648     26.089563     26.089563     52.179125
     -2.637638     28.130012     28.130012     56.260023
     -2.627628     29.613617     29.613617     59.227233
     -2.617618     30.630005     30.630005     61.260010
     -2.607608     31.406136     31.406136     62.812271
     -2.597598     32.157182     32.157182     64.314365
     -2.587588     32.973264     32.973264     65.946528
     -2.577578     33.795801     33.795801     67.591603
     -2.567568     34.466877     34.466877     68.933754
     -2.557558     34.793380     34.793380     69.586761
     -2.547548     34.584373     34.584373     69.168746
     -2.537538     33.670037     33.670037     67.340073
     -2.527528     31.940325     31.940325     63.880649
     -2.517518     29.420514     29.420514     58.841029
     -2.507508     26.349555     26.349555     52.699111
     -2.497497     23.195693     23.195693     46.391386
     -2.487487     20.565263     20.565263     41.130526
     -2.477477     19.022475     19.022475     38.044951
     -2.467467     18.896407     18.896407     37.792814
     -2.457457     20.167293     20.167293     40.334587
     -2.447447     22.489166     22.489166     44.978333
     -2.437437     25.341087     25.341087     50.682175
     -2.427427     28.238037     28.238037     56.476075
     -2.417417     30.903617     30.903617     61.807234
     -2.407407     33.323654     33.323654     66.647307
     -2.397397     35.656111     35.656111     71.312222
     -2.387387     38.043075     38.043075     76.086149
     -2.377377     40.421390     40.421390     80.842780
     -2.367367     42.433976     42.433976     84.867952
     -2.357357     43.499349     43.499349     86.998697
     -2.347347     43.021670     43.021670     86.043340
     -2.337337     40.652919     40.652919     81.305838
     -2.327327     36.488424     36.488424     72.976848
     -2.317317     31.104969     31.104969     62.209937
     -2.307307     25.423873     25.423873     50.847746
     -2.297297     20.460014     20.460014     40.920028
     -2.287287     17.059289     17.059289     34.118577
     -2.277277     15.714765     15.714765     31.429531
     -2.267267     16.503279     16.503279     33.006559
     -2.257257     19.133241     19.133241     38.266481
     -2.247247     23.064219     23.064219     46.128438
     -2.237237     27.651192     27.651192     55.302383
     -2.227227     32.271471     32.271471     64.542943
     -2.217217     36.404369     36.404369     72.808738
     -2.207207     39.653748     39.653748     79.307495
     -2.197197     41.730300     41.730300     83.460600
     -2.187187     42.431436     42.431436     84.862872
     -2.177177     41.654742     41.654742     83.309485
     -2.167167     39.450114     39.450114     78.900228
     -2.157157     36.073169     36.073169     72.146338
     -2.147147     31.981370     31.981370     63.962739
     -2.137137     27.737643     27.737643     55.475286
     -2.127127     23.844910     23.844910     47.689820
     -2.117117     20.588596     20.588596     41.177193
     -2.107107     17.971197     17.971197     35.942393
     -2.097097     15.773924     15.773924     31.547848
     -2.087087     13.707680     13.707680     27.415361
     -2.077077     11.568441     11.568441     23.136883
     -2.067067      9.319798      9.319798     18.639595
     -2.057057      7.076881      7.076881     14.153762
     -2.047047      5.022686      5.022686     10.045373
     -2.037037      3.314695      3.314695      6.629389
     -2.027027      2.028132      2.028132      4.056264
     -2.017017      1.149693      1.149693      2.299385
     -2.007007      0.607084      0.607084      1.214168
     -1.996997      0.309583      0.309583      0.619166
     -1.986987      0.181156      0.181156      0.362312
     -1.976977      0.180028      0.180028      0.360055
     -1.966967      0.307303      0.307303      0.614605
     -1.956957      0.608769      0.608769      1.217538
     -1.946947      1.170342      1.170342      2.340684
     -1.936937      2.103237      2.103237      4.206475
     -1.926927      3.514517      3.514517      7.029034
     -1.916917      5.464355      5.464355     10.928710
     -1.906907      7.921312      7.921312     15.842625
     -1.896897     10.734746     10.734746     21.469491
     -1.886887     13.642055     13.642055     27.284109
     -1.876877     16.315939     16.315939     32.631878
     -1.866867     18.439497     18.439497     36.878994
     -1.856857     19.785214     19.785214     39.570427
     -1.846847     20.273151     20.273151     40.546301
     -1.836837     19.990856     19.990856     39.981711
     -1.826827     19.166535     19.166535     38.333070
     -1.816817     18.097146     18.097146     36.194293
     -1.806807     17.048102     17.048102     34.096204
     -1.796797     16.159736     16.159736     32.319472
     -1.786787     15.404637     15.404637     30.809273
     -1.776777     14.624511     14.624511     29.249022
     -1.766767     13.636139     13.636139     27.272278
     -1.756757     12.355449     12.355449     24.710897
     -1.746747     10.875079     10.875079     21.750158
     -1.736737      9.454830      9.454830     18.909659
     -1.726727      8.430293      8.430293     16.860587
     -1.716717      8.084242      8.084242     16.168484
     -1.706707      8.538296      8.538296     17.076593
     -1.696697      9.708396      9.708396     19.416792
     -1.686687     11.337937     11.337937     22.675873
     -1.676677     13.089965     13.089965     26.179930
     -1.666667     14.655266     14.655266     29.310533
     -1.656657     15.827260     15.827260     31.654521
     -1.646647     16.514130     16.514130     33.028261
     -1.636637     16.696836     16.696836     33.393672
     -1.626627     16.375632     16.375632     32.751264
