# EIG2DOS: Utility for SIESTA to obtain the electronic density of states
#  E. Artacho, Apr 1999, A. Garcia, Apr 2012
#  Nick R. Papior, Feb 2017
# ------------------------------------------
# Eigenvalues calculated from a non-polarized calculation
# Eigenvalues read from siesta.EIG
# Kpoint weights read from siesta.KP
# Using smearing parameter:   0.0500
# Using 1000 points in the energy range
# Selected bands: 1 to: 2981
# Emin, Emax in file for selected band(s):    -27.0848344    218.3494420
# Nbands, Nspin, Nk   =   2981     1     1
# E_F                 =    -4.2588 eV --> (shifted to ZERO)
# Broadening          =     0.0500 eV
#
#        E            N(up)  (=)   N(down)         Ntot
     -5.000000     33.878054     33.878054     67.756108
     -4.989990     37.640646     37.640646     75.281293
     -4.979980     40.964564     40.964564     81.929128
     -4.969970     43.293577     43.293577     86.587153
     -4.959960     44.211960     44.211960     88.423921
     -4.949950     43.561016     43.561016     87.122033
     -4.939940     41.490079     41.490079     82.980159
     -4.929930     38.433633     38.433633     76.867265
     -4.919920     35.037390     35.037390     70.074780
     -4.909910     32.063531     32.063531     64.127062
     -4.899900     30.286169     30.286169     60.572338
     -4.889890     30.363633     30.363633     60.727266
     -4.879880     32.674444     32.674444     65.348888
     -4.869870     37.141780     37.141780     74.283560
     -4.859860     43.123740     43.123740     86.247481
     -4.849850     49.465510     49.465510     98.931021
     -4.839840     54.759250     54.759250    109.518500
     -4.829830     57.751602     57.751602    115.503204
     -4.819820     57.740624     57.740624    115.481248
     -4.809810     54.784925     54.784925    109.569850
     -4.799800     49.631616     49.631616     99.263231
     -4.789790     43.409188     43.409188     86.818376
     -4.779780     37.239768     37.239768     74.479537
     -4.769770     31.939074     31.939074     63.878148
     -4.759760     27.896397     27.896397     55.792794
     -4.749750     25.122439     25.122439     50.244877
     -4.739740     23.385832     23.385832     46.771664
     -4.729730     22.354168     22.354168     44.708335
     -4.719720     21.691326     21.691326     43.382652
     -4.709710     21.104507     21.104507     42.209013
     -4.699700     20.360220     20.360220     40.720440
     -4.689690     19.295782     19.295782     38.591564
     -4.679680     17.845521     17.845521     35.691042
     -4.669670     16.083294     16.083294     32.166587
     -4.659660     14.262708     14.262708     28.525416
     -4.649650     12.824854     12.824854     25.649709
     -4.639640     12.347767     12.347767     24.695535
     -4.629630     13.429631     13.429631     26.859262
     -4.619620     16.520570     16.520570     33.041140
     -4.609610     21.740633     21.740633     43.481266
     -4.599600     28.742194     28.742194     57.484388
     -4.589590     36.685491     36.685491     73.370983
     -4.579580     44.379481     44.379481     88.758962
     -4.569570     50.585030     50.585030    101.170060
     -4.559560     54.397707     54.397707    108.795414
     -4.549550     55.565155     55.565155    111.130310
     -4.539540     54.594298     54.594298    109.188595
     -4.529530     52.579792     52.579792    105.159584
     -4.519520     50.804701     50.804701    101.609401
     -4.509510     50.267487     50.267487    100.534974
     -4.499499     51.324361     51.324361    102.648722
     -4.489489     53.586496     53.586496    107.172993
     -4.479479     56.101982     56.101982    112.203965
     -4.469469     57.733426     57.733426    115.466853
     -4.459459     57.567825     57.567825    115.135650
     -4.449449     55.197999     55.197999    110.395998
     -4.439439     50.789365     50.789365    101.578730
     -4.429429     44.950471     44.950471     89.900942
     -4.419419     38.504599     38.504599     77.009199
     -4.409409     32.274777     32.274777     64.549554
     -4.399399     26.948407     26.948407     53.896814
     -4.389389     23.020275     23.020275     46.040549
     -4.379379     20.771758     20.771758     41.543517
     -4.369369     20.251424     20.251424     40.502849
     -4.359359     21.260540     21.260540     42.521080
     -4.349349     23.377348     23.377348     46.754696
     -4.339339     26.048057     26.048057     52.096114
     -4.329329     28.734307     28.734307     57.468613
     -4.319319     31.066225     31.066225     62.132449
     -4.309309     32.937458     32.937458     65.874917
     -4.299299     34.501529     34.501529     69.003058
     -4.289289     36.070451     36.070451     72.140903
     -4.279279     37.952375     37.952375     75.904750
     -4.269269     40.282760     40.282760     80.565520
     -4.259259     42.906339     42.906339     85.812678
     -4.249249     45.359970     45.359970     90.719940
     -4.239239     46.984473     46.984473     93.968946
     -4.229229     47.148549     47.148549     94.297098
     -4.219219     45.508493     45.508493     91.016985
     -4.209209     42.187595     42.187595     84.375190
     -4.199199     37.777098     37.777098     75.554195
     -4.189189     33.142027     33.142027     66.284054
     -4.179179     29.117550     29.117550     58.235101
     -4.169169     26.239875     26.239875     52.479750
     -4.159159     24.632405     24.632405     49.264810
     -4.149149     24.080407     24.080407     48.160815
     -4.139139     24.232035     24.232035     48.464071
     -4.129129     24.811827     24.811827     49.623653
     -4.119119     25.741387     25.741387     51.482774
     -4.109109     27.115171     27.115171     54.230342
     -4.099099     29.049912     29.049912     58.099823
     -4.089089     31.489167     31.489167     62.978334
     -4.079079     34.075731     34.075731     68.151462
     -4.069069     36.183124     36.183124     72.366248
     -4.059059     37.120472     37.120472     74.240945
     -4.049049     36.425591     36.425591     72.851182
     -4.039039     34.098581     34.098581     68.197162
     -4.029029     30.649502     30.649502     61.299004
     -4.019019     26.932534     26.932534     53.865067
     -4.009009     23.854404     23.854404     47.708807
     -3.998999     22.103096     22.103096     44.206192
     -3.988989     22.011625     22.011625     44.023249
     -3.978979     23.580268     23.580268     47.160535
     -3.968969     26.594540     26.594540     53.189079
     -3.958959     30.747932     30.747932     61.495865
     -3.948949     35.713519     35.713519     71.427037
     -3.938939     41.167947     41.167947     82.335893
     -3.928929     46.805650     46.805650     93.611299
     -3.918919     52.368607     52.368607    104.737215
     -3.908909     57.677373     57.677373    115.354746
     -3.898899     62.623484     62.623484    125.246968
     -3.888889     67.098819     67.098819    134.197637
     -3.878879     70.885406     70.885406    141.770811
     -3.868869     73.573636     73.573636    147.147271
     -3.858859     74.582102     74.582102    149.164203
     -3.848849     73.308155     73.308155    146.616311
     -3.838839     69.366471     69.366471    138.732942
     -3.828829     62.814291     62.814291    125.628582
     -3.818819     54.252673     54.252673    108.505347
     -3.808809     44.742064     44.742064     89.484127
     -3.798799     35.552904     35.552904     71.105809
     -3.788789     27.843151     27.843151     55.686302
     -3.778779     22.378611     22.378611     44.757223
     -3.768769     19.383328     19.383328     38.766656
     -3.758759     18.549588     18.549588     37.099176
     -3.748749     19.183088     19.183088     38.366177
     -3.738739     20.427925     20.427925     40.855851
     -3.728729     21.508935     21.508935     43.017871
     -3.718719     21.935397     21.935397     43.870793
     -3.708709     21.621719     21.621719     43.243438
     -3.698699     20.895709     20.895709     41.791418
     -3.688689     20.386043     20.386043     40.772086
     -3.678679     20.809654     20.809654     41.619308
     -3.668669     22.713357     22.713357     45.426714
     -3.658659     26.250812     26.250812     52.501623
     -3.648649     31.078952     31.078952     62.157903
     -3.638639     36.424402     36.424402     72.848804
     -3.628629     41.304796     41.304796     82.609592
     -3.618619     44.820872     44.820872     89.641744
     -3.608609     46.402867     46.402867     92.805735
     -3.598599     45.921987     45.921987     91.843974
     -3.588589     43.648859     43.648859     87.297718
     -3.578579     40.109446     40.109446     80.218892
     -3.568569     35.914223     35.914223     71.828445
     -3.558559     31.615366     31.615366     63.230731
     -3.548549     27.610884     27.610884     55.221768
     -3.538539     24.096261     24.096261     48.192521
     -3.528529     21.066732     21.066732     42.133465
     -3.518519     18.375302     18.375302     36.750604
     -3.508509     15.835570     15.835570     31.671140
     -3.498498     13.332676     13.332676     26.665351
     -3.488488     10.894465     10.894465     21.788931
     -3.478478      8.692670      8.692670     17.385340
     -3.468468      6.979138      6.979138     13.958275
     -3.458458      5.990099      5.990099     11.980198
     -3.448448      5.856813      5.856813     11.713627
     -3.438438      6.549174      6.549174     13.098348
     -3.428428      7.865395      7.865395     15.730789
     -3.418418      9.473220      9.473220     18.946440
     -3.408408     11.000175     11.000175     22.000350
     -3.398398     12.154042     12.154042     24.308083
     -3.388388     12.833947     12.833947     25.667894
     -3.378378     13.183935     13.183935     26.367869
     -3.368368     13.558648     13.558648     27.117296
     -3.358358     14.409689     14.409689     28.819379
     -3.348348     16.137229     16.137229     32.274457
     -3.338338     18.960330     18.960330     37.920660
     -3.328328     22.838451     22.838451     45.676901
     -3.318318     27.447438     27.447438     54.894876
     -3.308308     32.202440     32.202440     64.404881
     -3.298298     36.331791     36.331791     72.663582
     -3.288288     39.016337     39.016337     78.032674
     -3.278278     39.589591     39.589591     79.179182
     -3.268268     37.746563     37.746563     75.493125
     -3.258258     33.671174     33.671174     67.342348
     -3.248248     28.006773     28.006773     56.013547
     -3.238238     21.665890     21.665890     43.331781
     -3.228228     15.559288     15.559288     31.118575
     -3.218218     10.362461     10.362461     20.724923
     -3.208208      6.406990      6.406990     12.813980
     -3.198198      3.712154      3.712154      7.424307
     -3.188188      2.109196      2.109196      4.218392
     -3.178178      1.388745      1.388745      2.777489
     -3.168168      1.417916      1.417916      2.835831
     -3.158158      2.202316      2.202316      4.404632
     -3.148148      3.887599      3.887599      7.775198
     -3.138138      6.701652      6.701652     13.403303
     -3.128128     10.843216     10.843216     21.686431
     -3.118118     16.338051     16.338051     32.676102
     -3.108108     22.909161     22.909161     45.818322
     -3.098098     29.926200     29.926200     59.852400
     -3.088088     36.488064     36.488064     72.976128
     -3.078078     41.642279     41.642279     83.284558
     -3.068068     44.673152     44.673152     89.346304
     -3.058058     45.338524     45.338524     90.677048
     -3.048048     43.940687     43.940687     87.881374
     -3.038038     41.188035     41.188035     82.376070
     -3.028028     37.906274     37.906274     75.812547
     -3.018018     34.734446     34.734446     69.468893
     -3.008008     31.946886     31.946886     63.893771
     -2.997998     29.473742     29.473742     58.947483
     -2.987988     27.089514     27.089514     54.179029
     -2.977978     24.658617     24.658617     49.317235
     -2.967968     22.309538     22.309538     44.619076
     -2.957958     20.455992     20.455992     40.911984
     -2.947948     19.661980     19.661980     39.323960
     -2.937938     20.415995     20.415995     40.831989
     -2.927928     22.910826     22.910826     45.821653
     -2.917918     26.916102     26.916102     53.832204
     -2.907908     31.792989     31.792989     63.585978
     -2.897898     36.650122     36.650122     73.300244
     -2.887888     40.590584     40.590584     81.181168
     -2.877878     42.965101     42.965101     85.930201
     -2.867868     43.539987     43.539987     87.079974
     -2.857858     42.517477     42.517477     85.034955
     -2.847848     40.404126     40.404126     80.808251
     -2.837838     37.786853     37.786853     75.573707
     -2.827828     35.115486     35.115486     70.230971
     -2.817818     32.584115     32.584115     65.168231
     -2.807808     30.152656     30.152656     60.305311
     -2.797798     27.679558     27.679558     55.359116
     -2.787788     25.083333     25.083333     50.166665
     -2.777778     22.442201     22.442201     44.884403
     -2.767768     19.981880     19.981880     39.963760
     -2.757758     17.968138     17.968138     35.936275
     -2.747748     16.575632     16.575632     33.151264
     -2.737738     15.815869     15.815869     31.631739
     -2.727728     15.567743     15.567743     31.135486
     -2.717718     15.687211     15.687211     31.374422
     -2.707708     16.119786     16.119786     32.239573
     -2.697698     16.935818     16.935818     33.871636
     -2.687688     18.259225     18.259225     36.518451
     -2.677678     20.134248     20.134248     40.268497
     -2.667668     22.422498     22.422498     44.844995
     -2.657658     24.809007     24.809007     49.618014
     -2.647648     26.926306     26.926306     53.852612
     -2.637638     28.525201     28.525201     57.050402
     -2.627628     29.586216     29.586216     59.172432
     -2.617618     30.302880     30.302880     60.605759
     -2.607608     30.951959     30.951959     61.903918
     -2.597598     31.735736     31.735736     63.471471
     -2.587588     32.687991     32.687991     65.375982
     -2.577578     33.679002     33.679002     67.358004
     -2.567568     34.485198     34.485198     68.970396
     -2.557558     34.861646     34.861646     69.723292
     -2.547548     34.584547     34.584547     69.169095
     -2.537538     33.479847     33.479847     66.959693
     -2.527528     31.472426     31.472426     62.944852
     -2.517518     28.660907     28.660907     57.321813
     -2.507508     25.376043     25.376043     50.752085
     -2.497497     22.163105     22.163105     44.326209
     -2.487487     19.661076     19.661076     39.322152
     -2.477477     18.412237     18.412237     36.824474
     -2.467467     18.682301     18.682301     37.364602
     -2.457457     20.374199     20.374199     40.748397
     -2.447447     23.077854     23.077854     46.155709
     -2.437437     26.236553     26.236553     52.473106
     -2.427427     29.357075     29.357075     58.714150
     -2.417417     32.169451     32.169451     64.338901
     -2.407407     34.663629     34.663629     69.327259
     -2.397397     36.987271     36.987271     73.974543
     -2.387387     39.256556     39.256556     78.513112
     -2.377377     41.377980     41.377980     82.755959
     -2.367367     42.979410     42.979410     85.958819
     -2.357357     43.499760     43.499760     86.999519
     -2.347347     42.409220     42.409220     84.818439
     -2.337337     39.463292     39.463292     78.926583
     -2.327327     34.871027     34.871027     69.742054
     -2.317317     29.296277     29.296277     58.592555
     -2.307307     23.690967     23.690967     47.381933
     -2.297297     19.035688     19.035688     38.071376
     -2.287287     16.093520     16.093520     32.187040
     -2.277277     15.258137     15.258137     30.516273
     -2.267267     16.522413     16.522413     33.044826
     -2.257257     19.545068     19.545068     39.090136
     -2.247247     23.770600     23.770600     47.541199
     -2.237237     28.558855     28.558855     57.117709
     -2.227227     33.292011     33.292011     66.584022
     -2.217217     37.440816     37.440816     74.881633
     -2.207207     40.588558     40.588558     81.177117
     -2.197197     42.429613     42.429613     84.859226
     -2.187187     42.771114     42.771114     85.542229
     -2.177177     41.559536     41.559536     83.119072
     -2.167167     38.926599     38.926599     77.853198
     -2.157157     35.216928     35.216928     70.433855
     -2.147147     30.950312     30.950312     61.900625
     -2.137137     26.700630     26.700630     53.401260
     -2.127127     22.928181     22.928181     45.856363
     -2.117117     19.843997     19.843997     39.687993
     -2.107107     17.378568     17.378568     34.757136
     -2.097097     15.272165     15.272165     30.544329
     -2.087087     13.235412     13.235412     26.470823
     -2.077077     11.093522     11.093522     22.187045
     -2.067067      8.846631      8.846631     17.693262
     -2.057057      6.634128      6.634128     13.268257
     -2.047047      4.643058      4.643058      9.286117
     -2.037037      3.018883      3.018883      6.037766
     -2.027027      1.818934      1.818934      3.637867
     -2.017017      1.015306      1.015306      2.030612
     -2.007007      0.528690      0.528690      1.057381
     -1.996997      0.268453      0.268453      0.536905
     -1.986987      0.162910      0.162910      0.325820
     -1.976977      0.176046      0.176046      0.352092
     -1.966967      0.314413      0.314413      0.628827
     -1.956957      0.628341      0.628341      1.256683
     -1.946947      1.207285      1.207285      2.414570
     -1.936937      2.164858      2.164858      4.329716
     -1.926927      3.608949      3.608949      7.217899
     -1.916917      5.598388      5.598388     11.196775
     -1.906907      8.097742      8.097742     16.195483
     -1.896897     10.949671     10.949671     21.899342
     -1.886887     13.882781     13.882781     27.765561
     -1.876877     16.560392     16.560392     33.120784
     -1.866867     18.658306     18.658306     37.316613
     -1.856857     19.947532     19.947532     39.895063
     -1.846847     20.356537     20.356537     40.713074
     -1.836837     19.994261     19.994261     39.988522
     -1.826827     19.124533     19.124533     38.249065
     -1.816817     18.093900     18.093900     36.187799
     -1.806807     17.230484     17.230484     34.460967
     -1.796797     16.748004     16.748004     33.496009
     -1.786787     16.693935     16.693935     33.387870
     -1.776777     16.962775     16.962775     33.925550
     -1.766767     17.360733     17.360733     34.721466
     -1.756757     17.680852     17.680852     35.361703
     -1.746747     17.750170     17.750170     35.500341
     -1.736737     17.441080     17.441080     34.882161
     -1.726727     16.670528     16.670528     33.341056
     -1.716717     15.415309     15.415309     30.830617
     -1.706707     13.746751     13.746751     27.493502
     -1.696697     11.857977     11.857977     23.715954
     -1.686687     10.049285     10.049285     20.098571
     -1.676677      8.658367      8.658367     17.316734
     -1.666667      7.954804      7.954804     15.909608
     -1.656657      8.040241      8.040241     16.080483
     -1.646647      8.796470      8.796470     17.592940
     -1.636637      9.907009      9.907009     19.814018
     -1.626627     10.952018     10.952018     21.904036
