# EIG2DOS: Utility for SIESTA to obtain the electronic density of states
#  E. Artacho, Apr 1999, A. Garcia, Apr 2012
#  Nick R. Papior, Feb 2017
# ------------------------------------------
# Eigenvalues calculated from a non-polarized calculation
# Eigenvalues read from siesta.EIG
# Kpoint weights read from siesta.KP
# Using smearing parameter:   0.0500
# Using 1000 points in the energy range
# Selected bands: 1 to: 2981
# Emin, Emax in file for selected band(s):    -27.0646229    218.3396760
# Nbands, Nspin, Nk   =   2981     1     1
# E_F                 =    -4.2675 eV --> (shifted to ZERO)
# Broadening          =     0.0500 eV
#
#        E            N(up)  (=)   N(down)         Ntot
     -5.000000     37.157207     37.157207     74.314414
     -4.989990     39.866060     39.866060     79.732119
     -4.979980     42.310146     42.310146     84.620292
     -4.969970     43.941087     43.941087     87.882175
     -4.959960     44.331625     44.331625     88.663250
     -4.949950     43.312593     43.312593     86.625185
     -4.939940     41.025204     41.025204     82.050409
     -4.929930     37.892173     37.892173     75.784346
     -4.919920     34.540608     34.540608     69.081216
     -4.909910     31.708862     31.708862     63.417724
     -4.899900     30.144193     30.144193     60.288386
     -4.889890     30.473630     30.473630     60.947259
     -4.879880     33.035728     33.035728     66.071455
     -4.869870     37.703809     37.703809     75.407618
     -4.859860     43.783974     43.783974     87.567947
     -4.849850     50.084292     50.084292    100.168584
     -4.839840     55.193356     55.193356    110.386712
     -4.829830     57.896381     57.896381    115.792763
     -4.819820     57.562814     57.562814    115.125629
     -4.809810     54.330505     54.330505    108.661011
     -4.799800     49.004985     49.004985     98.009970
     -4.789790     42.734158     42.734158     85.468317
     -4.779780     36.620396     36.620396     73.240792
     -4.769770     31.435438     31.435438     62.870876
     -4.759760     27.520549     27.520549     55.041098
     -4.749750     24.850138     24.850138     49.700276
     -4.739740     23.175331     23.175331     46.350662
     -4.729730     22.164286     22.164286     44.328573
     -4.719720     21.494220     21.494220     42.988440
     -4.709710     20.891289     20.891289     41.782578
     -4.699700     20.139514     20.139514     40.279028
     -4.689690     19.087029     19.087029     38.174057
     -4.679680     17.670476     17.670476     35.340952
     -4.669670     15.959738     15.959738     31.919476
     -4.659660     14.203176     14.203176     28.406351
     -4.649650     12.840464     12.840464     25.680929
     -4.639640     12.454240     12.454240     24.908479
     -4.629630     13.650595     13.650595     27.301190
     -4.619620     16.883409     16.883409     33.766818
     -4.609610     22.262830     22.262830     44.525660
     -4.599600     29.411094     29.411094     58.822188
     -4.589590     37.439502     37.439502     74.879004
     -4.579580     45.100587     45.100587     90.201175
     -4.569570     51.108328     51.108328    102.216656
     -4.559560     54.534784     54.534784    109.069569
     -4.549550     55.130787     55.130787    110.261574
     -4.539540     53.427234     53.427234    106.854468
     -4.529530     50.559467     50.559467    101.118933
     -4.519520     47.877585     47.877585     95.755170
     -4.509510     46.495639     46.495639     92.991279
     -4.499499     46.948100     46.948100     93.896199
     -4.489489     49.063990     49.063990     98.127979
     -4.479479     52.075790     52.075790    104.151581
     -4.469469     54.897929     54.897929    109.795859
     -4.459459     56.466927     56.466927    112.933854
     -4.449449     56.035756     56.035756    112.071513
     -4.439439     53.346805     53.346805    106.693610
     -4.429429     48.655365     48.655365     97.310730
     -4.419419     42.623709     42.623709     85.247417
     -4.409409     36.139130     36.139130     72.278259
     -4.399399     30.116579     30.116579     60.233157
     -4.389389     25.329278     25.329278     50.658556
     -4.379379     22.285908     22.285908     44.571816
     -4.369369     21.159795     21.159795     42.319589
     -4.359359     21.778172     21.778172     43.556343
     -4.349349     23.683422     23.683422     47.366844
     -4.339339     26.265979     26.265979     52.531958
     -4.329329     28.939573     28.939573     57.879147
     -4.319319     31.302844     31.302844     62.605688
     -4.309309     33.229060     33.229060     66.458120
     -4.299299     34.852848     34.852848     69.705697
     -4.289289     36.463220     36.463220     72.926440
     -4.279279     38.343517     38.343517     76.687034
     -4.269269     40.611188     40.611188     81.222376
     -4.259259     43.109122     43.109122     86.218245
     -4.249249     45.392556     45.392556     90.785112
     -4.239239     46.836648     46.836648     93.673296
     -4.229229     46.849470     46.849470     93.698939
     -4.219219     45.119076     45.119076     90.238152
     -4.209209     41.783748     41.783748     83.567496
     -4.199199     37.430127     37.430127     74.860254
     -4.189189     32.902404     32.902404     65.804808
     -4.179179     29.006055     29.006055     58.012110
     -4.169169     26.247409     26.247409     52.494818
     -4.159159     24.727526     24.727526     49.455052
     -4.149149     24.222164     24.222164     48.444327
     -4.139139     24.384689     24.384689     48.769378
     -4.129129     24.957198     24.957198     49.914396
     -4.119119     25.884094     25.884094     51.768188
     -4.109109     27.277134     27.277134     54.554268
     -4.099099     29.254356     29.254356     58.508711
     -4.089089     31.740324     31.740324     63.480647
     -4.079079     34.345149     34.345149     68.690297
     -4.069069     36.412567     36.412567     72.825134
     -4.059059     37.243292     37.243292     74.486584
     -4.049049     36.397170     36.397170     72.794340
     -4.039039     33.919528     33.919528     67.839056
     -4.029029     30.368334     30.368334     60.736668
     -4.019019     26.626304     26.626304     53.252609
     -4.009009     23.598377     23.598377     47.196754
     -3.998999     21.945724     21.945724     43.891447
     -3.988989     21.965943     21.965943     43.931886
     -3.978979     23.631888     23.631888     47.263776
     -3.968969     26.717477     26.717477     53.434954
     -3.958959     30.917888     30.917888     61.835775
     -3.948949     35.913298     35.913298     71.826595
     -3.938939     41.386432     41.386432     82.772864
     -3.928929     47.035045     47.035045     94.070090
     -3.918919     52.603097     52.603097    105.206195
     -3.908909     57.912570     57.912570    115.825140
     -3.898899     62.853996     62.853996    125.707993
     -3.888889     67.312842     67.312842    134.625685
     -3.878879     71.058936     71.058936    142.117871
     -3.868869     73.669382     73.669382    147.338765
     -3.858859     74.556963     74.556963    149.113927
     -3.848849     73.128424     73.128424    146.256848
     -3.838839     69.024682     69.024682    138.049363
     -3.828829     62.339360     62.339360    124.678719
     -3.818819     53.707458     53.707458    107.414915
     -3.808809     44.208374     44.208374     88.416748
     -3.798799     35.109715     35.109715     70.219429
     -3.788789     27.546169     27.546169     55.092339
     -3.778779     22.247747     22.247747     44.495494
     -3.768769     19.400785     19.400785     38.801570
     -3.758759     18.667717     18.667717     37.335434
     -3.748749     19.338989     19.338989     38.677979
     -3.738739     20.560935     20.560935     41.121870
     -3.728729     21.576895     21.576895     43.153789
     -3.718719     21.925775     21.925775     43.851550
     -3.708709     21.554518     21.554518     43.109035
     -3.698699     20.816816     20.816816     41.633632
     -3.688689     20.352211     20.352211     40.704421
     -3.678679     20.869043     20.869043     41.738087
     -3.668669     22.887714     22.887714     45.775429
     -3.658659     26.525749     26.525749     53.051498
     -3.648649     31.406581     31.406581     62.813162
     -3.638639     36.737912     36.737912     73.475825
     -3.628629     41.539361     41.539361     83.078723
     -3.618619     44.932430     44.932430     89.864860
     -3.608609     46.377731     46.377731     92.755462
     -3.598599     45.775242     45.775242     91.550484
     -3.588589     43.414775     43.414775     86.829549
     -3.578579     39.829472     39.829472     79.658945
     -3.568569     35.626856     35.626856     71.253713
     -3.558559     31.349329     31.349329     62.698658
     -3.548549     27.381356     27.381356     54.762712
     -3.538539     23.904102     23.904102     47.808203
     -3.528529     20.901343     20.901343     41.802686
     -3.518519     18.221160     18.221160     36.442321
     -3.508509     15.680609     15.680609     31.361219
     -3.498498     13.175096     13.175096     26.350192
     -3.488488     10.744961     10.744961     21.489923
     -3.478478      8.571266      8.571266     17.142532
     -3.468468      6.908247      6.908247     13.816493
     -3.458458      5.986518      5.986518     11.973037
     -3.448448      5.925037      5.925037     11.850073
     -3.438438      6.677653      6.677653     13.355306
     -3.428428      8.027000      8.027000     16.054001
     -3.418418      9.630775      9.630775     19.261550
     -3.408408     11.116697     11.116697     22.233393
     -3.398398     12.205140     12.205140     24.410281
     -3.388388     12.818005     12.818005     25.636009
     -3.378378     13.125837     13.125837     26.251675
     -3.368368     13.505328     13.505328     27.010657
     -3.358358     14.418922     14.418922     28.837844
     -3.348348     16.262920     16.262920     32.525841
     -3.338338     19.237314     19.237314     38.474628
     -3.328328     23.269009     23.269009     46.538018
     -3.318318     27.992292     27.992292     55.984585
     -3.308308     32.780610     32.780610     65.561220
     -3.298298     36.833855     36.833855     73.667710
     -3.288288     39.331490     39.331490     78.662979
     -3.278278     39.639227     39.639227     79.278455
     -3.268268     37.510879     37.510879     75.021758
     -3.258258     33.196014     33.196014     66.392028
     -3.248248     27.386802     27.386802     54.773603
     -3.238238     21.011979     21.011979     42.023957
     -3.228228     14.965019     14.965019     29.930039
     -3.218218      9.882711      9.882711     19.765423
     -3.208208      6.052793      6.052793     12.105586
     -3.198198      3.456702      3.456702      6.913405
     -3.188188      1.895110      1.895110      3.790220
     -3.178178      1.128238      1.128238      2.256476
     -3.168168      0.983697      0.983697      1.967394
     -3.158158      1.415582      1.415582      2.831165
     -3.148148      2.517810      2.517810      5.035621
     -3.138138      4.496929      4.496929      8.993858
     -3.128128      7.604433      7.604433     15.208866
     -3.118118     12.029666     12.029666     24.059331
     -3.108108     17.769358     17.769358     35.538715
     -3.098098     24.514217     24.514217     49.028434
     -3.088088     31.610322     31.610322     63.220645
     -3.078078     38.143552     38.143552     76.287103
     -3.068068     43.150394     43.150394     86.300788
     -3.058058     45.893489     45.893489     91.786977
     -3.048048     46.092140     46.092140     92.184279
     -3.038038     44.003598     44.003598     88.007197
     -3.028028     40.316874     40.316874     80.633747
     -3.018018     35.911842     35.911842     71.823683
     -3.008008     31.596568     31.596568     63.193136
     -2.997998     27.930219     27.930219     55.860437
     -2.987988     25.179639     25.179639     50.359277
     -2.977978     23.389158     23.389158     46.778316
     -2.967968     22.503635     22.503635     45.007270
     -2.957958     22.481050     22.481050     44.962100
     -2.947948     23.347662     23.347662     46.695324
     -2.937938     25.173226     25.173226     50.346453
     -2.927928     27.975429     27.975429     55.950857
     -2.917918     31.599433     31.599433     63.198866
     -2.907908     35.643606     35.643606     71.287212
     -2.897898     39.492779     39.492779     78.985557
     -2.887888     42.470027     42.470027     84.940055
     -2.877878     44.050850     44.050850     88.101700
     -2.867868     44.040816     44.040816     88.081633
     -2.857858     42.628195     42.628195     85.256390
     -2.847848     40.283365     40.283365     80.566730
     -2.837838     37.553642     37.553642     75.107283
     -2.827828     34.853189     34.853189     69.706378
     -2.817818     32.346039     32.346039     64.692079
     -2.807808     29.968109     29.968109     59.936219
     -2.797798     27.560478     27.560478     55.120955
     -2.787788     25.030699     25.030699     50.061397
     -2.777778     22.450664     22.450664     44.901327
     -2.767768     20.041597     20.041597     40.083194
     -2.757758     18.064624     18.064624     36.129247
     -2.747748     16.690009     16.690009     33.380019
     -2.737738     15.927830     15.927830     31.855660
     -2.727728     15.661434     15.661434     31.322869
     -2.717718     15.757422     15.757422     31.514844
     -2.707708     16.174370     16.174370     32.348740
     -2.697698     16.991784     16.991784     33.983568
     -2.687688     18.333761     18.333761     36.667521
     -2.677678     20.235640     20.235640     40.471281
     -2.667668     22.546693     22.546693     45.093386
     -2.657658     24.944339     24.944339     49.888679
     -2.647648     27.063570     27.063570     54.127139
     -2.637638     28.666348     28.666348     57.332697
     -2.627628     29.745433     29.745433     59.490865
     -2.617618     30.498646     30.498646     60.997291
     -2.607608     31.194665     31.194665     62.389329
     -2.597598     32.018295     32.018295     64.036589
     -2.587588     32.984603     32.984603     65.969206
     -2.577578     33.951733     33.951733     67.903466
     -2.567568     34.693698     34.693698     69.387396
     -2.557558     34.971302     34.971302     69.942603
     -2.547548     34.571850     34.571850     69.143700
     -2.537538     33.336915     33.336915     66.673831
     -2.527528     31.212203     31.212203     62.424406
     -2.517518     28.321095     28.321095     56.642190
     -2.507508     25.017123     25.017123     50.034246
     -2.497497     21.856991     21.856991     43.713983
     -2.487487     19.471925     19.471925     38.943849
     -2.477477     18.376188     18.376188     36.752377
     -2.467467     18.794874     18.794874     37.589748
     -2.457457     20.591316     20.591316     41.182631
     -2.447447     23.330643     23.330643     46.661286
     -2.437437     26.454111     26.454111     52.908221
     -2.427427     29.488215     29.488215     58.976430
     -2.417417     32.195438     32.195438     64.390877
     -2.407407     34.598277     34.598277     69.196554
     -2.397397     36.866033     36.866033     73.732065
     -2.387387     39.119864     39.119864     78.239729
     -2.377377     41.255084     41.255084     82.510168
     -2.367367     42.878043     42.878043     85.756086
     -2.357357     43.405034     43.405034     86.810067
     -2.347347     42.292240     42.292240     84.584480
     -2.337337     39.296185     39.296185     78.592371
     -2.327327     34.641736     34.641736     69.283472
     -2.317317     29.016057     29.016057     58.032114
     -2.307307     23.391110     23.391110     46.782219
     -2.297297     18.755794     18.755794     37.511588
     -2.287287     15.867828     15.867828     31.735656
     -2.277277     15.106497     15.106497     30.212995
     -2.267267     16.448920     16.448920     32.897840
     -2.257257     19.542926     19.542926     39.085852
     -2.247247     23.829133     23.829133     47.658266
     -2.237237     28.668486     28.668486     57.336972
     -2.227227     33.444916     33.444916     66.889833
     -2.217217     37.627608     37.627608     75.255216
     -2.207207     40.793637     40.793637     81.587275
     -2.197197     42.628918     42.628918     85.257835
     -2.187187     42.935079     42.935079     85.870159
     -2.177177     41.661263     41.661263     83.322525
     -2.167167     38.951742     38.951742     77.903484
     -2.157157     35.169831     35.169831     70.339662
     -2.147147     30.852222     30.852222     61.704444
     -2.137137     26.580115     26.580115     53.160229
     -2.127127     22.808615     22.808615     45.617231
     -2.117117     19.734865     19.734865     39.469730
     -2.107107     17.275010     17.275010     34.550021
     -2.097097     15.162106     15.162106     30.324212
     -2.087087     13.109328     13.109328     26.218656
     -2.077077     10.951069     10.951069     21.902137
     -2.067067      8.697114      8.697114     17.394228
     -2.057057      6.491834      6.491834     12.983669
     -2.047047      4.521002      4.521002      9.042005
     -2.037037      2.924447      2.924447      5.848895
     -2.027027      1.752891      1.752891      3.505782
     -2.017017      0.973602      0.973602      1.947204
     -2.007007      0.505346      0.505346      1.010692
     -1.996997      0.258193      0.258193      0.516386
     -1.986987      0.162943      0.162943      0.325886
     -1.976977      0.187093      0.187093      0.374186
     -1.966967      0.341249      0.341249      0.682498
     -1.956957      0.679748      0.679748      1.359495
     -1.946947      1.294875      1.294875      2.589749
     -1.936937      2.300084      2.300084      4.600168
     -1.926927      3.798215      3.798215      7.596431
     -1.916917      5.837471      5.837471     11.674943
     -1.906907      8.368083      8.368083     16.736166
     -1.896897     11.219357     11.219357     22.438714
     -1.886887     14.113519     14.113519     28.227039
     -1.876877     16.718803     16.718803     33.437606
     -1.866867     18.727137     18.727137     37.454274
     -1.856857     19.931607     19.931607     39.863215
     -1.846847     20.279797     20.279797     40.559594
     -1.836837     19.886991     19.886991     39.773982
     -1.826827     19.002464     19.002464     38.004929
     -1.816817     17.932974     17.932974     35.865948
     -1.806807     16.943671     16.943671     33.887342
     -1.796797     16.174111     16.174111     32.348222
     -1.786787     15.611180     15.611180     31.222360
     -1.776777     15.138206     15.138206     30.276411
     -1.766767     14.636205     14.636205     29.272409
     -1.756757     14.076800     14.076800     28.153601
     -1.746747     13.546643     13.546643     27.093287
     -1.736737     13.185794     13.185794     26.371587
     -1.726727     13.080739     13.080739     26.161478
     -1.716717     13.185780     13.185780     26.371560
     -1.706707     13.330008     13.330008     26.660016
     -1.696697     13.311115     13.311115     26.622229
     -1.686687     13.019110     13.019110     26.038219
     -1.676677     12.511204     12.511204     25.022407
     -1.666667     11.987592     11.987592     23.975184
     -1.656657     11.678062     11.678062     23.356125
     -1.646647     11.703529     11.703529     23.407057
     -1.636637     11.992462     11.992462     23.984923
     -1.626627     12.301793     12.301793     24.603587
