# EIG2DOS: Utility for SIESTA to obtain the electronic density of states
#  E. Artacho, Apr 1999, A. Garcia, Apr 2012
#  Nick R. Papior, Feb 2017
# ------------------------------------------
# Eigenvalues calculated from a non-polarized calculation
# Eigenvalues read from siesta.EIG
# Kpoint weights read from siesta.KP
# Using smearing parameter:   0.0500
# Using 1000 points in the energy range
# Selected bands: 1 to: 2981
# Emin, Emax in file for selected band(s):    -27.1055585    218.3539890
# Nbands, Nspin, Nk   =   2981     1     1
# E_F                 =    -4.2464 eV --> (shifted to ZERO)
# Broadening          =     0.0500 eV
#
#        E            N(up)  (=)   N(down)         Ntot
     -5.000000     36.005843     36.005843     72.011685
     -4.989990     39.498421     39.498421     78.996841
     -4.979980     42.138806     42.138806     84.277612
     -4.969970     43.531700     43.531700     87.063401
     -4.959960     43.474073     43.474073     86.948146
     -4.949950     42.012948     42.012948     84.025895
     -4.939940     39.443860     39.443860     78.887719
     -4.929930     36.264417     36.264417     72.528835
     -4.919920     33.109710     33.109710     66.219420
     -4.909910     30.683841     30.683841     61.367683
     -4.899900     29.676031     29.676031     59.352062
     -4.889890     30.635610     30.635610     61.271221
     -4.879880     33.800232     33.800232     67.600464
     -4.869870     38.923645     38.923645     77.847289
     -4.859860     45.198283     45.198283     90.396567
     -4.849850     51.365525     51.365525    102.731050
     -4.839840     56.031407     56.031407    112.062815
     -4.829830     58.090950     58.090950    116.181900
     -4.819820     57.083290     57.083290    114.166580
     -4.809810     53.314765     53.314765    106.629531
     -4.799800     47.698362     47.698362     95.396723
     -4.789790     41.398646     41.398646     82.797292
     -4.779780     35.454281     35.454281     70.908561
     -4.769770     30.531367     30.531367     61.062734
     -4.759760     26.867142     26.867142     53.734284
     -4.749750     24.364186     24.364186     48.728371
     -4.739740     22.746077     22.746077     45.492155
     -4.729730     21.694911     21.694911     43.389821
     -4.719720     20.931257     20.931257     41.862514
     -4.709710     20.236892     20.236892     40.473784
     -4.699700     19.445697     19.445697     38.891394
     -4.689690     18.436886     18.436886     36.873771
     -4.679680     17.156690     17.156690     34.313381
     -4.669670     15.671164     15.671164     31.342329
     -4.659660     14.223911     14.223911     28.447822
     -4.649650     13.255593     13.255593     26.511186
     -4.639640     13.348638     13.348638     26.697276
     -4.629630     15.087892     15.087892     30.175785
     -4.619620     18.863661     18.863661     37.727322
     -4.609610     24.675919     24.675919     49.351838
     -4.599600     32.018197     32.018197     64.036395
     -4.589590     39.914606     39.914606     79.829212
     -4.579580     47.140854     47.140854     94.281708
     -4.569570     52.582879     52.582879    105.165757
     -4.559560     55.606572     55.606572    111.213144
     -4.549550     56.279107     56.279107    112.558215
     -4.539540     55.329656     55.329656    110.659312
     -4.529530     53.851065     53.851065    107.702130
     -4.519520     52.866030     52.866030    105.732060
     -4.509510     52.944489     52.944489    105.888979
     -4.499499     54.029507     54.029507    108.059013
     -4.489489     55.525212     55.525212    111.050423
     -4.479479     56.579829     56.579829    113.159658
     -4.469469     56.421537     56.421537    112.843075
     -4.459459     54.606930     54.606930    109.213860
     -4.449449     51.108331     51.108331    102.216662
     -4.439439     46.252127     46.252127     92.504254
     -4.429429     40.578641     40.578641     81.157282
     -4.419419     34.702300     34.702300     69.404600
     -4.409409     29.217428     29.217428     58.434856
     -4.399399     24.648486     24.648486     49.296972
     -4.389389     21.414069     21.414069     42.828137
     -4.379379     19.777352     19.777352     39.554705
     -4.369369     19.785582     19.785582     39.571164
     -4.359359     21.233072     21.233072     42.466145
     -4.349349     23.689413     23.689413     47.378825
     -4.339339     26.607632     26.607632     53.215264
     -4.329329     29.481912     29.481912     58.963823
     -4.319319     31.991563     31.991563     63.983125
     -4.309309     34.070123     34.070123     68.140246
     -4.299299     35.873425     35.873425     71.746849
     -4.289289     37.664670     37.664670     75.329341
     -4.279279     39.662993     39.662993     79.325986
     -4.269269     41.907351     41.907351     83.814702
     -4.259259     44.180068     44.180068     88.360136
     -4.249249     46.023389     46.023389     92.046777
     -4.239239     46.863427     46.863427     93.726854
     -4.229229     46.218172     46.218172     92.436344
     -4.219219     43.916210     43.916210     87.832419
     -4.209209     40.222738     40.222738     80.445477
     -4.199199     35.794302     35.794302     71.588603
     -4.189189     31.464538     31.464538     62.929076
     -4.179179     27.955431     27.955431     55.910863
     -4.169169     25.651532     25.651532     51.303064
     -4.159159     24.539371     24.539371     49.078742
     -4.149149     24.324620     24.324620     48.649241
     -4.139139     24.650713     24.650713     49.301426
     -4.129129     25.300598     25.300598     50.601196
     -4.119119     26.280863     26.280863     52.561725
     -4.109109     27.748968     27.748968     55.497936
     -4.099099     29.822585     29.822585     59.645169
     -4.089089     32.374821     32.374821     64.749642
     -4.079079     34.939636     34.939636     69.879272
     -4.069069     36.807022     36.807022     73.614043
     -4.059059     37.287968     37.287968     74.575936
     -4.049049     36.025847     36.025847     72.051695
     -4.039039     33.190727     33.190727     66.381453
     -4.029029     29.450265     29.450265     58.900530
     -4.019019     25.733892     25.733892     51.467784
     -4.009009     22.917007     22.917007     45.834014
     -3.998999     21.579826     21.579826     43.159651
     -3.988989     21.931242     21.931242     43.862483
     -3.978979     23.883433     23.883433     47.766866
     -3.968969     27.189367     27.189367     54.378735
     -3.958959     31.552705     31.552705     63.105410
     -3.948949     36.673677     36.673677     73.347354
     -3.938939     42.254572     42.254572     84.509144
     -3.928929     48.008700     48.008700     96.017401
     -3.918919     53.689664     53.689664    107.379328
     -3.908909     59.115734     59.115734    118.231468
     -3.898899     64.149109     64.149109    128.298218
     -3.888889     68.617992     68.617992    137.235983
     -3.878879     72.219647     72.219647    144.439294
     -3.868869     74.475146     74.475146    148.950292
     -3.858859     74.793899     74.793899    149.587798
     -3.848849     72.651747     72.651747    145.303495
     -3.838839     67.820476     67.820476    135.640953
     -3.828829     60.547035     60.547035    121.094071
     -3.818819     51.591439     51.591439    103.182878
     -3.808809     42.089856     42.089856     84.179713
     -3.798799     33.284580     33.284580     66.569159
     -3.788789     26.216945     26.216945     52.433891
     -3.778779     21.487941     21.487941     42.975883
     -3.768769     19.156250     19.156250     38.312500
     -3.758759     18.788719     18.788719     37.577437
     -3.748749     19.630946     19.630946     39.261891
     -3.738739     20.840403     20.840403     41.680807
     -3.728729     21.720177     21.720177     43.440355
     -3.718719     21.899423     21.899423     43.798846
     -3.708709     21.420193     21.420193     42.840386
     -3.698699     20.708001     20.708001     41.416001
     -3.688689     20.427275     20.427275     40.854550
     -3.678679     21.253127     21.253127     42.506254
     -3.668669     23.622109     23.622109     47.244217
     -3.658659     27.544024     27.544024     55.088049
     -3.648649     32.548638     32.548638     65.097276
     -3.638639     37.797851     37.797851     75.595702
     -3.628629     42.327544     42.327544     84.655087
     -3.618619     45.325796     45.325796     90.651592
     -3.608609     46.340097     46.340097     92.680194
     -3.598599     45.346360     45.346360     90.692720
     -3.588589     42.681872     42.681872     85.363743
     -3.578579     38.898449     38.898449     77.796898
     -3.568569     34.602434     34.602434     69.204869
     -3.558559     30.323081     30.323081     60.646161
     -3.548549     26.422626     26.422626     52.845251
     -3.538539     23.052619     23.052619     46.105238
     -3.528529     20.165590     20.165590     40.331179
     -3.518519     17.586657     17.586657     35.173313
     -3.508509     15.126622     15.126622     30.253244
     -3.498498     12.692177     12.692177     25.384354
     -3.488488     10.344623     10.344623     20.689247
     -3.478478      8.283606      8.283606     16.567213
     -3.468468      6.769443      6.769443     13.538886
     -3.458458      6.021778      6.021778     12.043557
     -3.448448      6.132949      6.132949     12.265897
     -3.438438      7.020955      7.020955     14.041911
     -3.428428      8.433939      8.433939     16.867879
     -3.418418     10.009604     10.009604     20.019208
     -3.408408     11.381833     11.381833     22.763666
     -3.398398     12.307660     12.307660     24.615320
     -3.388388     12.769111     12.769111     25.538221
     -3.378378     13.003323     13.003323     26.006646
     -3.368368     13.439663     13.439663     26.879325
     -3.358358     14.563022     14.563022     29.126045
     -3.348348     16.753204     16.753204     33.506407
     -3.338338     20.152886     20.152886     40.305772
     -3.328328     24.595123     24.595123     49.190247
     -3.318318     29.597306     29.597306     59.194612
     -3.308308     34.420301     34.420301     68.840603
     -3.298298     38.195136     38.195136     76.390273
     -3.288288     40.113277     40.113277     80.226554
     -3.278278     39.646134     39.646134     79.292267
     -3.268268     36.720551     36.720551     73.441101
     -3.258258     31.767470     31.767470     63.534941
     -3.248248     25.604979     25.604979     51.209958
     -3.238238     19.196299     19.196299     38.392598
     -3.228228     13.386455     13.386455     26.772910
     -3.218218      8.725390      8.725390     17.450780
     -3.208208      5.430693      5.430693     10.861386
     -3.198198      3.469741      3.469741      6.939481
     -3.188188      2.693669      2.693669      5.387337
     -3.178178      2.952710      2.952710      5.905420
     -3.168168      4.152408      4.152408      8.304816
     -3.158158      6.248455      6.248455     12.496911
     -3.148148      9.204977      9.204977     18.409954
     -3.138138     12.948866     12.948866     25.897733
     -3.128128     17.342907     17.342907     34.685815
     -3.118118     22.181824     22.181824     44.363648
     -3.108108     27.201147     27.201147     54.402294
     -3.098098     32.089038     32.089038     64.178076
     -3.088088     36.503646     36.503646     73.007292
     -3.078078     40.107801     40.107801     80.215602
     -3.068068     42.624114     42.624114     85.248227
     -3.058058     43.890491     43.890491     87.780982
     -3.048048     43.881844     43.881844     87.763687
     -3.038038     42.679460     42.679460     85.358920
     -3.028028     40.408831     40.408831     80.817663
     -3.018018     37.196236     37.196236     74.392472
     -3.008008     33.183894     33.183894     66.367788
     -2.997998     28.597058     28.597058     57.194115
     -2.987988     23.811642     23.811642     47.623284
     -2.977978     19.364635     19.364635     38.729269
     -2.967968     15.884317     15.884317     31.768633
     -2.957958     13.962747     13.962747     27.925495
     -2.947948     14.016190     14.016190     28.032380
     -2.937938     16.173340     16.173340     32.346680
     -2.927928     20.214228     20.214228     40.428456
     -2.917918     25.573179     25.573179     51.146358
     -2.907908     31.417316     31.417316     62.834632
     -2.897898     36.803053     36.803053     73.606106
     -2.887888     40.886846     40.886846     81.773692
     -2.877878     43.132227     43.132227     86.264453
     -2.867868     43.436984     43.436984     86.873968
     -2.857858     42.122538     42.122538     84.245075
     -2.847848     39.781339     39.781339     79.562677
     -2.837838     37.042700     37.042700     74.085399
     -2.827828     34.357555     34.357555     68.715110
     -2.817818     31.893731     31.893731     63.787463
     -2.807808     29.577414     29.577414     59.154829
     -2.797798     27.242528     27.242528     54.485056
     -2.787788     24.797800     24.797800     49.595600
     -2.777778     22.319718     22.319718     44.639437
     -2.767768     20.028375     20.028375     40.056750
     -2.757758     18.173762     18.173762     36.347525
     -2.747748     16.911061     16.911061     33.822123
     -2.737738     16.244834     16.244834     32.489668
     -2.727728     16.073035     16.073035     32.146069
     -2.717718     16.293289     16.293289     32.586579
     -2.707708     16.890671     16.890671     33.781343
     -2.697698     17.938696     17.938696     35.877391
     -2.687688     19.507451     19.507451     39.014903
     -2.677678     21.543294     21.543294     43.086589
     -2.667668     23.812773     23.812773     47.625545
     -2.657658     25.965556     25.965556     51.931112
     -2.647648     27.689790     27.689790     55.379579
     -2.637638     28.865036     28.865036     57.730072
     -2.627628     29.613538     29.613538     59.227076
     -2.617618     30.215757     30.215757     60.431513
     -2.607608     30.944780     30.944780     61.889559
     -2.597598     31.921698     31.921698     63.843397
     -2.587588     33.068163     33.068163     66.136327
     -2.577578     34.158488     34.158488     68.316976
     -2.567568     34.913011     34.913011     69.826022
     -2.557558     35.071203     35.071203     70.142406
     -2.547548     34.428605     34.428605     68.857211
     -2.537538     32.866406     32.866406     65.732812
     -2.527528     30.403366     30.403366     60.806731
     -2.517518     27.259327     27.259327     54.518655
     -2.507508     23.879756     23.879756     47.759512
     -2.497497     20.872185     20.872185     41.744370
     -2.487487     18.851505     18.851505     37.703010
     -2.477477     18.248505     18.248505     36.497010
     -2.467467     19.165440     19.165440     38.330879
     -2.457457     21.346502     21.346502     42.693004
     -2.447447     24.280707     24.280707     48.561414
     -2.437437     27.396044     27.396044     54.792089
     -2.427427     30.262987     30.262987     60.525974
     -2.417417     32.719656     32.719656     65.439313
     -2.407407     34.863316     34.863316     69.726631
     -2.397397     36.911336     36.911336     73.822672
     -2.387387     38.995454     38.995454     77.990908
     -2.377377     40.989484     40.989484     81.978967
     -2.367367     42.463808     42.463808     84.927615
     -2.357357     42.807029     42.807029     85.614058
     -2.347347     41.474854     41.474854     82.949708
     -2.337337     38.256622     38.256622     76.513244
     -2.327327     33.432098     33.432098     66.864196
     -2.317317     27.741561     27.741561     55.483122
     -2.307307     22.184543     22.184543     44.369086
     -2.297297     17.741395     17.741395     35.482790
     -2.287287     15.132370     15.132370     30.264741
     -2.277277     14.688905     14.688905     29.377809
     -2.267267     16.347723     16.347723     32.695447
     -2.257257     19.731715     19.731715     39.463429
     -2.247247     24.268647     24.268647     48.537294
     -2.237237     29.309282     29.309282     58.618564
     -2.227227     34.222157     34.222157     68.444315
     -2.217217     38.455103     38.455103     76.910207
     -2.207207     41.565499     41.565499     83.130998
     -2.197197     43.233784     43.233784     86.467567
     -2.187187     43.281305     43.281305     86.562611
     -2.177177     41.704428     41.704428     83.408857
     -2.167167     38.711754     38.711754     77.423509
     -2.157157     34.726906     34.726906     69.453812
     -2.147147     30.319661     30.319661     60.639321
     -2.137137     26.063589     26.063589     52.127178
     -2.127127     22.370009     22.370009     44.740018
     -2.117117     19.377636     19.377636     38.755273
     -2.107107     16.957087     16.957087     33.914175
     -2.097097     14.827668     14.827668     29.655336
     -2.087087     12.721550     12.721550     25.443100
     -2.077077     10.509541     10.509541     21.019082
     -2.067067      8.234227      8.234227     16.468454
     -2.057057      6.054430      6.054430     12.108859
     -2.047047      4.149627      4.149627      8.299255
     -2.037037      2.640451      2.640451      5.280901
     -2.027027      1.556710      1.556710      3.113420
     -2.017017      0.851269      0.851269      1.702538
     -2.007007      0.437761      0.437761      0.875521
     -1.996997      0.228949      0.228949      0.457898
     -1.986987      0.163217      0.163217      0.326434
     -1.976977      0.218088      0.218088      0.436176
     -1.966967      0.415018      0.415018      0.830035
     -1.956957      0.818248      0.818248      1.636497
     -1.946947      1.525949      1.525949      3.051897
     -1.936937      2.648927      2.648927      5.297854
     -1.926927      4.274731      4.274731      8.549462
     -1.916917      6.423246      6.423246     12.846492
     -1.906907      9.009663      9.009663     18.019325
     -1.896897     11.834304     11.834304     23.668608
     -1.886887     14.611016     14.611016     29.222032
     -1.876877     17.029327     17.029327     34.058655
     -1.866867     18.830496     18.830496     37.660993
     -1.856857     19.873381     19.873381     39.746763
     -1.846847     20.172724     20.172724     40.345449
     -1.836837     19.901521     19.901521     39.803043
     -1.826827     19.354123     19.354123     38.708247
     -1.816817     18.870876     18.870876     37.741751
     -1.806807     18.736152     18.736152     37.472304
     -1.796797     19.078957     19.078957     38.157915
     -1.786787     19.815783     19.815783     39.631567
     -1.776777     20.665502     20.665502     41.331004
     -1.766767     21.236675     21.236675     42.473350
     -1.756757     21.155578     21.155578     42.311156
     -1.746747     20.187243     20.187243     40.374487
     -1.736737     18.308457     18.308457     36.616913
     -1.726727     15.713588     15.713588     31.427175
     -1.716717     12.759329     12.759329     25.518657
     -1.706707      9.873239      9.873239     19.746477
     -1.696697      7.458098      7.458098     14.916197
     -1.686687      5.817743      5.817743     11.635486
     -1.676677      5.114241      5.114241     10.228482
     -1.666667      5.351123      5.351123     10.702245
     -1.656657      6.373415      6.373415     12.746830
     -1.646647      7.884203      7.884203     15.768405
     -1.636637      9.488755      9.488755     18.977510
     -1.626627     10.776118     10.776118     21.552235
