# EIG2DOS: Utility for SIESTA to obtain the electronic density of states
#  E. Artacho, Apr 1999, A. Garcia, Apr 2012
#  Nick R. Papior, Feb 2017
# ------------------------------------------
# Eigenvalues calculated from a non-polarized calculation
# Eigenvalues read from siesta.EIG
# Kpoint weights read from siesta.KP
# Using smearing parameter:   0.0500
# Using 1000 points in the energy range
# Selected bands: 1 to: 2981
# Emin, Emax in file for selected band(s):    -27.0510784    218.3094320
# Nbands, Nspin, Nk   =   2981     1     1
# E_F                 =    -4.3060 eV --> (shifted to ZERO)
# Broadening          =     0.0500 eV
#
#        E            N(up)  (=)   N(down)         Ntot
     -5.000000     46.396901     46.396901     92.793802
     -4.989990     48.608046     48.608046     97.216092
     -4.979980     49.366671     49.366671     98.733342
     -4.969970     48.748448     48.748448     97.496897
     -4.959960     46.959496     46.959496     93.918991
     -4.949950     44.276659     44.276659     88.553318
     -4.939940     41.013883     41.013883     82.027766
     -4.929930     37.525014     37.525014     75.050029
     -4.919920     34.230624     34.230624     68.461248
     -4.909910     31.639468     31.639468     63.278936
     -4.899900     30.327220     30.327220     60.654440
     -4.889890     30.839887     30.839887     61.679774
     -4.879880     33.516028     33.516028     67.032055
     -4.869870     38.273611     38.273611     76.547223
     -4.859860     44.462588     44.462588     88.925176
     -4.849850     50.898548     50.898548    101.797095
     -4.839840     56.131534     56.131534    112.263069
     -4.829830     58.882305     58.882305    117.764611
     -4.819820     58.467072     58.467072    116.934144
     -4.809810     55.012402     55.012402    110.024804
     -4.799800     49.360763     49.360763     98.721527
     -4.789790     42.726558     42.726558     85.453116
     -4.779780     36.280016     36.280016     72.560032
     -4.769770     30.841956     30.841956     61.683912
     -4.759760     26.778846     26.778846     53.557691
     -4.749750     24.071072     24.071072     48.142144
     -4.739740     22.461834     22.461834     44.923668
     -4.729730     21.599492     21.599492     43.198984
     -4.719720     21.131049     21.131049     42.262098
     -4.709710     20.746809     20.746809     41.493617
     -4.699700     20.197033     20.197033     40.394065
     -4.689690     19.304336     19.304336     38.608672
     -4.679680     17.988541     17.988541     35.977082
     -4.669670     16.306679     16.306679     32.613358
     -4.659660     14.493121     14.493121     28.986243
     -4.649650     12.972270     12.972270     25.944539
     -4.639640     12.317435     12.317435     24.634871
     -4.629630     13.144257     13.144257     26.288514
     -4.619620     15.948278     15.948278     31.896556
     -4.609610     20.918864     20.918864     41.837727
     -4.599600     27.783955     27.783955     55.567910
     -4.589590     35.755529     35.755529     71.511058
     -4.579580     43.636689     43.636689     87.273377
     -4.569570     50.102435     50.102435    100.204870
     -4.559560     54.085738     54.085738    108.171476
     -4.549550     55.129045     55.129045    110.258091
     -4.539540     53.548838     53.548838    107.097676
     -4.529530     50.328428     50.328428    100.656857
     -4.519520     46.772791     46.772791     93.545582
     -4.509510     44.065409     44.065409     88.130818
     -4.499499     42.904420     42.904420     85.808840
     -4.489489     43.348566     43.348566     86.697131
     -4.479479     44.903438     44.903438     89.806876
     -4.469469     46.778796     46.778796     93.557592
     -4.459459     48.192833     48.192833     96.385667
     -4.449449     48.605060     48.605060     97.210119
     -4.439439     47.812165     47.812165     95.624329
     -4.429429     45.910570     45.910570     91.821140
     -4.419419     43.183279     43.183279     86.366557
     -4.409409     39.985128     39.985128     79.970257
     -4.399399     36.675751     36.675751     73.351502
     -4.389389     33.601363     33.601363     67.202726
     -4.379379     31.087638     31.087638     62.175275
     -4.369369     29.403894     29.403894     58.807788
     -4.359359     28.694378     28.694378     57.388757
     -4.349349     28.915924     28.915924     57.831848
     -4.339339     29.835190     29.835190     59.670380
     -4.329329     31.108622     31.108622     62.217244
     -4.319319     32.415916     32.415916     64.831832
     -4.309309     33.582372     33.582372     67.164745
     -4.299299     34.631332     34.631332     69.262664
     -4.289289     35.746084     35.746084     71.492168
     -4.279279     37.161781     37.161781     74.323562
     -4.269269     39.029724     39.029724     78.059447
     -4.259259     41.299449     41.299449     82.598898
     -4.249249     43.661016     43.661016     87.322031
     -4.239239     45.583395     45.583395     91.166789
     -4.229229     46.461871     46.461871     92.923742
     -4.219219     45.839156     45.839156     91.678312
     -4.209209     43.610694     43.610694     87.221388
     -4.199199     40.107127     40.107127     80.214253
     -4.189189     35.995486     35.995486     71.990972
     -4.179179     32.036573     32.036573     64.073146
     -4.169169     28.818027     28.818027     57.636054
     -4.159159     26.594139     26.594139     53.188279
     -4.149149     25.298268     25.298268     50.596536
     -4.139139     24.697481     24.697481     49.394962
     -4.129129     24.590495     24.590495     49.180989
     -4.119119     24.939657     24.939657     49.879314
     -4.109109     25.869487     25.869487     51.738975
     -4.099099     27.533134     27.533134     55.066268
     -4.089089     29.916935     29.916935     59.833870
     -4.079079     32.695137     32.695137     65.390274
     -4.069069     35.236315     35.236315     70.472630
     -4.059059     36.791807     36.791807     73.583614
     -4.049049     36.793113     36.793113     73.586226
     -4.039039     35.110630     35.110630     70.221259
     -4.029029     32.135172     32.135172     64.270345
     -4.019019     28.639071     28.639071     57.278143
     -4.009009     25.496107     25.496107     50.992214
     -3.998999     23.408653     23.408653     46.817306
     -3.988989     22.764346     22.764346     45.528693
     -3.978979     23.649795     23.649795     47.299590
     -3.968969     25.956358     25.956358     51.912716
     -3.958959     29.483318     29.483318     58.966636
     -3.948949     33.984349     33.984349     67.968698
     -3.938939     39.169950     39.169950     78.339901
     -3.928929     44.715171     44.715171     89.430341
     -3.918919     50.304223     50.304223    100.608446
     -3.908909     55.693875     55.693875    111.387749
     -3.898899     60.742080     60.742080    121.484161
     -3.888889     65.359161     65.359161    130.718322
     -3.878879     69.390839     69.390839    138.781679
     -3.868869     72.499916     72.499916    144.999832
     -3.858859     74.135747     74.135747    148.271493
     -3.848849     73.647722     73.647722    147.295444
     -3.838839     70.523328     70.523328    141.046657
     -3.828829     64.653593     64.653593    129.307186
     -3.818819     56.496072     56.496072    112.992144
     -3.808809     47.042636     47.042636     94.085271
     -3.798799     37.588841     37.588841     75.177683
     -3.788789     29.393006     29.393006     58.786012
     -3.778779     23.355775     23.355775     46.711551
     -3.768769     19.828535     19.828535     39.657070
     -3.758759     18.594859     18.594859     37.189718
     -3.748749     19.003994     19.003994     38.007988
     -3.738739     20.196962     20.196962     40.393925
     -3.728729     21.357382     21.357382     42.714764
     -3.718719     21.927896     21.927896     43.855793
     -3.708709     21.746795     21.746795     43.493590
     -3.698699     21.074350     21.074350     42.148701
     -3.688689     20.497797     20.497797     40.995594
     -3.678679     20.731262     20.731262     41.462524
     -3.668669     22.360237     22.360237     44.720474
     -3.658659     25.608888     25.608888     51.217775
     -3.648649     30.215706     30.215706     60.431411
     -3.638639     35.474425     35.474425     70.948849
     -3.628629     40.434633     40.434633     80.869266
     -3.618619     44.186103     44.186103     88.372205
     -3.608609     46.112441     46.112441     92.224881
     -3.598599     46.019765     46.019765     92.039530
     -3.588589     44.113660     44.113660     88.227321
     -3.578579     40.868320     40.868320     81.736641
     -3.568569     36.862232     36.862232     73.724465
     -3.558559     32.637232     32.637232     65.274464
     -3.548549     28.601668     28.601668     57.203335
     -3.538539     24.978032     24.978032     49.956064
     -3.528529     21.797516     21.797516     43.595031
     -3.518519     18.947916     18.947916     37.895833
     -3.508509     16.267678     16.267678     32.535355
     -3.498498     13.652970     13.652970     27.305940
     -3.488488     11.130879     11.130879     22.261758
     -3.478478      8.866203      8.866203     17.732407
     -3.468468      7.103328      7.103328     14.206657
     -3.458458      6.073615      6.073615     12.147229
     -3.448448      5.906272      5.906272     11.812545
     -3.438438      6.570445      6.570445     13.140889
     -3.428428      7.863025      7.863025     15.726049
     -3.418418      9.448525      9.448525     18.897050
     -3.408408     10.948890     10.948890     21.897779
     -3.398398     12.064607     12.064607     24.129215
     -3.388388     12.687594     12.687594     25.375189
     -3.378378     12.957353     12.957353     25.914707
     -3.368368     13.229029     13.229029     26.458058
     -3.358358     13.960701     13.960701     27.921402
     -3.348348     15.564082     15.564082     31.128165
     -3.338338     18.273229     18.273229     36.546458
     -3.328328     22.065585     22.065585     44.131169
     -3.318318     26.639021     26.639021     53.278043
     -3.308308     31.434482     31.434482     62.868964
     -3.298298     35.703954     35.703954     71.407907
     -3.288288     38.637104     38.637104     77.274207
     -3.278278     39.547674     39.547674     79.095348
     -3.268268     38.077936     38.077936     76.155873
     -3.258258     34.338338     34.338338     68.676676
     -3.248248     28.903609     28.903609     57.807219
     -3.238238     22.648325     22.648325     45.296651
     -3.228228     16.487649     16.487649     32.975298
     -3.218218     11.135716     11.135716     22.271432
     -3.208208      6.974816      6.974816     13.949632
     -3.198198      4.062318      4.062318      8.124637
     -3.188188      2.236802      2.236802      4.473604
     -3.178178      1.256553      1.256553      2.513106
     -3.168168      0.915702      0.915702      1.831405
     -3.158158      1.113624      1.113624      2.227249
     -3.148148      1.877424      1.877424      3.754848
     -3.138138      3.345360      3.345360      6.690720
     -3.128128      5.716447      5.716447     11.432895
     -3.118118      9.170224      9.170224     18.340449
     -3.108108     13.768568     13.768568     27.537135
     -3.098098     19.366310     19.366310     38.732621
     -3.088088     25.567983     25.567983     51.135966
     -3.078078     31.761506     31.761506     63.523013
     -3.068068     37.232295     37.232295     74.464590
     -3.058058     41.324216     41.324216     82.648432
     -3.048048     43.589031     43.589031     87.178063
     -3.038038     43.871058     43.871058     87.742116
     -3.028028     42.307735     42.307735     84.615471
     -3.018018     39.267763     39.267763     78.535527
     -3.008008     35.269184     35.269184     70.538369
     -2.997998     30.908929     30.908929     61.817858
     -2.987988     26.806723     26.806723     53.613447
     -2.977978     23.546648     23.546648     47.093296
     -2.967968     21.605106     21.605106     43.210212
     -2.957958     21.276338     21.276338     42.552676
     -2.947948     22.622313     22.622313     45.244626
     -2.937938     25.466775     25.466775     50.933549
     -2.927928     29.430242     29.430242     58.860485
     -2.917918     33.986085     33.986085     67.972169
     -2.907908     38.522652     38.522652     77.045304
     -2.897898     42.415104     42.415104     84.830208
     -2.887888     45.119365     45.119365     90.238731
     -2.877878     46.284194     46.284194     92.568388
     -2.867868     45.845893     45.845893     91.691786
     -2.857858     44.052838     44.052838     88.105677
     -2.847848     41.386124     41.386124     82.772248
     -2.837838     38.393096     38.393096     76.786192
     -2.827828     35.501513     35.501513     71.003027
     -2.817818     32.899210     32.899210     65.798420
     -2.807808     30.533848     30.533848     61.067697
     -2.797798     28.225445     28.225445     56.450890
     -2.787788     25.825749     25.825749     51.651497
     -2.777778     23.336394     23.336394     46.672788
     -2.767768     20.924516     20.924516     41.849031
     -2.757758     18.835178     18.835178     37.670356
     -2.747748     17.260027     17.260027     34.520053
     -2.737738     16.245870     16.245870     32.491740
     -2.727728     15.700065     15.700065     31.400130
     -2.717718     15.486782     15.486782     30.973564
     -2.707708     15.547917     15.547917     31.095833
     -2.697698     15.963814     15.963814     31.927628
     -2.687688     16.906261     16.906261     33.812522
     -2.677678     18.507415     18.507415     37.014830
     -2.667668     20.727732     20.727732     41.455464
     -2.657658     23.312935     23.312935     46.625869
     -2.647648     25.876914     25.876914     51.753829
     -2.637638     28.066725     28.066725     56.133450
     -2.627628     29.711202     29.711202     59.422404
     -2.617618     30.864989     30.864989     61.729979
     -2.607608     31.729128     31.729128     63.458255
     -2.597598     32.508563     32.508563     65.017125
     -2.587588     33.298578     33.298578     66.597156
     -2.577578     34.056262     34.056262     68.112524
     -2.567568     34.644073     34.644073     69.288145
     -2.557558     34.889356     34.889356     69.778712
     -2.547548     34.618158     34.618158     69.236317
     -2.537538     33.671018     33.671018     67.342037
     -2.527528     31.939292     31.939292     63.878583
     -2.517518     29.440553     29.440553     58.881107
     -2.507508     26.399798     26.399798     52.799597
     -2.497497     23.270016     23.270016     46.540032
     -2.487487     20.645856     20.645856     41.291712
     -2.477477     19.086202     19.086202     38.172404
     -2.467467     18.921228     18.921228     37.842456
     -2.457457     20.136780     20.136780     40.273561
     -2.447447     22.394410     22.394410     44.788819
     -2.437437     25.180424     25.180424     50.360848
     -2.427427     28.015747     28.015747     56.031494
     -2.417417     30.629065     30.629065     61.258130
     -2.407407     33.012065     33.012065     66.024131
     -2.397397     35.330911     35.330911     70.661822
     -2.387387     37.737844     37.737844     75.475688
     -2.377377     40.178263     40.178263     80.356527
     -2.367367     42.296181     42.296181     84.592362
     -2.357357     43.498822     43.498822     86.997644
     -2.347347     43.166467     43.166467     86.332933
     -2.337337     40.920709     40.920709     81.841419
     -2.327327     36.830136     36.830136     73.660272
     -2.317317     31.457629     31.457629     62.915257
     -2.307307     25.727169     25.727169     51.454338
     -2.297297     20.669867     20.669867     41.339734
     -2.287287     17.154152     17.154152     34.308303
     -2.277277     15.694386     15.694386     31.388773
     -2.267267     16.382700     16.382700     32.765400
     -2.257257     18.935672     18.935672     37.871344
     -2.247247     22.815640     22.815640     45.631280
     -2.237237     27.378007     27.378007     54.756014
     -2.227227     32.000901     32.000901     64.001803
     -2.217217     36.165708     36.165708     72.331416
     -2.207207     39.477825     39.477825     78.955650
     -2.197197     41.645229     41.645229     83.290457
     -2.187187     42.455134     42.455134     84.910268
     -2.177177     41.787430     41.787430     83.574861
     -2.167167     39.671136     39.671136     79.342273
     -2.157157     36.344944     36.344944     72.689887
     -2.147147     32.259809     32.259809     64.519619
     -2.137137     27.985040     27.985040     55.970079
     -2.127127     24.039964     24.039964     48.079929
     -2.117117     20.729677     20.729677     41.459354
     -2.107107     18.072135     18.072135     36.144270
     -2.097097     15.855003     15.855003     31.710006
     -2.087087     13.786242     13.786242     27.572484
     -2.077077     11.653039     11.653039     23.306077
     -2.067067      9.409500      9.409500     18.819000
     -2.057057      7.164683      7.164683     14.329365
     -2.047047      5.100376      5.100376     10.200753
     -2.037037      3.376643      3.376643      6.753286
     -2.027027      2.072765      2.072765      4.145529
     -2.017017      1.178905      1.178905      2.357810
     -2.007007      0.624676      0.624676      1.249351
     -1.996997      0.319796      0.319796      0.639591
     -1.986987      0.187900      0.187900      0.375799
     -1.976977      0.186838      0.186838      0.373677
     -1.966967      0.317720      0.317720      0.635441
     -1.956957      0.626678      0.626678      1.253357
     -1.946947      1.199794      1.199794      2.399588
     -1.936937      2.147408      2.147408      4.294816
     -1.926927      3.573817      3.573817      7.147635
     -1.916917      5.534338      5.534338     11.068675
     -1.906907      7.991622      7.991622     15.983245
     -1.896897     10.790469     10.790469     21.580939
     -1.886887     13.668007     13.668007     27.336014
     -1.876877     16.302825     16.302825     32.605649
     -1.866867     18.389364     18.389364     36.778727
     -1.856857     19.713267     19.713267     39.426534
     -1.846847     20.204340     20.204340     40.408681
     -1.836837     19.952028     19.952028     39.904056
     -1.826827     19.177031     19.177031     38.354063
     -1.816817     18.161344     18.161344     36.322689
     -1.806807     17.152312     17.152312     34.304625
     -1.796797     16.273692     16.273692     32.547385
     -1.786787     15.485360     15.485360     30.970721
     -1.776777     14.618427     14.618427     29.236854
     -1.766767     13.474960     13.474960     26.949921
     -1.756757     11.943869     11.943869     23.887738
     -1.746747     10.074585     10.074585     20.149169
     -1.736737      8.076576      8.076576     16.153152
     -1.726727      6.256180      6.256180     12.512361
     -1.716717      4.931648      4.931648      9.863296
     -1.706707      4.365156      4.365156      8.730311
     -1.696697      4.725010      4.725010      9.450021
     -1.686687      6.066219      6.066219     12.132438
     -1.676677      8.312176      8.312176     16.624351
     -1.666667     11.235205     11.235205     22.470410
     -1.656657     14.453684     14.453684     28.907367
     -1.646647     17.470282     17.470282     34.940563
     -1.636637     19.761873     19.761873     39.523746
     -1.626627     20.904609     20.904609     41.809218
