# EIG2DOS: Utility for SIESTA to obtain the electronic density of states
#  E. Artacho, Apr 1999, A. Garcia, Apr 2012
#  Nick R. Papior, Feb 2017
# ------------------------------------------
# Eigenvalues calculated from a non-polarized calculation
# Eigenvalues read from siesta.EIG
# Kpoint weights read from siesta.KP
# Using smearing parameter:   0.0500
# Using 1000 points in the energy range
# Selected bands: 1 to: 2981
# Emin, Emax in file for selected band(s):    -27.0850223    218.3530370
# Nbands, Nspin, Nk   =   2981     1     1
# E_F                 =    -4.2507 eV --> (shifted to ZERO)
# Broadening          =     0.0500 eV
#
#        E            N(up)  (=)   N(down)         Ntot
     -5.000000     34.501025     34.501025     69.002050
     -4.989990     38.249860     38.249860     76.499720
     -4.979980     41.385885     41.385885     82.771770
     -4.969970     43.413810     43.413810     86.827619
     -4.959960     43.996143     43.996143     87.992285
     -4.949950     43.051266     43.051266     86.102532
     -4.939940     40.786819     40.786819     81.573638
     -4.929930     37.667271     37.667271     75.334541
     -4.919920     34.341034     34.341034     68.682068
     -4.909910     31.553358     31.553358     63.106717
     -4.899900     30.048967     30.048967     60.097933
     -4.889890     30.446358     30.446358     60.892717
     -4.879880     33.072255     33.072255     66.144509
     -4.869870     37.787768     37.787768     75.575535
     -4.859860     43.889856     43.889856     87.779712
     -4.849850     50.183666     50.183666    100.367332
     -4.839840     55.262460     55.262460    110.524920
     -4.829830     57.922303     57.922303    115.844605
     -4.819820     57.545788     57.545788    115.091577
     -4.809810     54.281580     54.281580    108.563159
     -4.799800     48.940422     48.940422     97.880845
     -4.789790     42.669229     42.669229     85.338459
     -4.779780     36.564999     36.564999     73.129997
     -4.769770     31.392592     31.392592     62.785185
     -4.759760     27.487323     27.487323     54.974646
     -4.749750     24.819843     24.819843     49.639686
     -4.739740     23.140047     23.140047     46.280094
     -4.729730     22.117255     22.117255     44.234511
     -4.719720     21.431879     21.431879     42.863759
     -4.709710     20.814649     20.814649     41.629298
     -4.699700     20.054750     20.054750     40.109501
     -4.689690     19.005680     19.005680     38.011359
     -4.679680     17.609997     17.609997     35.219995
     -4.669670     15.944630     15.944630     31.889261
     -4.659660     14.265346     14.265346     28.530692
     -4.649650     13.015862     13.015862     26.031723
     -4.639640     12.772719     12.772719     25.545438
     -4.629630     14.118820     14.118820     28.237640
     -4.619620     17.466246     17.466246     34.932492
     -4.609610     22.874471     22.874471     45.748942
     -4.599600     29.928418     29.928418     59.856836
     -4.589590     37.743291     37.743291     75.486582
     -4.579580     45.136369     45.136369     90.272738
     -4.569570     50.945054     50.945054    101.890108
     -4.559560     54.395022     54.395022    108.790043
     -4.549550     55.373757     55.373757    110.747514
     -4.539540     54.480668     54.480668    108.961336
     -4.529530     52.809689     52.809689    105.619378
     -4.519520     51.536995     51.536995    103.073990
     -4.509510     51.477151     51.477151    102.954302
     -4.499499     52.789276     52.789276    105.578552
     -4.489489     54.949752     54.949752    109.899505
     -4.479479     56.989943     56.989943    113.979887
     -4.469469     57.883234     57.883234    115.766468
     -4.459459     56.911113     56.911113    113.822227
     -4.449449     53.867463     53.867463    107.734927
     -4.439439     49.052458     49.052458     98.104915
     -4.429429     43.108299     43.108299     86.216599
     -4.419419     36.804291     36.804291     73.608582
     -4.409409     30.866696     30.866696     61.733393
     -4.399399     25.889953     25.889953     51.779906
     -4.389389     22.305605     22.305605     44.611210
     -4.379379     20.362739     20.362739     40.725479
     -4.369369     20.096207     20.096207     40.192415
     -4.359359     21.300645     21.300645     42.601290
     -4.349349     23.551817     23.551817     47.103635
     -4.339339     26.301477     26.301477     52.602954
     -4.329329     29.028482     29.028482     58.056965
     -4.319319     31.389367     31.389367     62.778735
     -4.309309     33.303901     33.303901     66.607803
     -4.299299     34.939169     34.939169     69.878338
     -4.289289     36.599357     36.599357     73.198714
     -4.279279     38.562785     38.562785     77.125570
     -4.269269     40.921931     40.921931     81.843862
     -4.259259     43.481293     43.481293     86.962586
     -4.249249     45.758002     45.758002     91.516003
     -4.239239     47.106624     47.106624     94.213249
     -4.229229     46.944951     46.944951     93.889903
     -4.219219     45.001327     45.001327     90.002654
     -4.209209     41.470318     41.470318     82.940635
     -4.199199     36.987898     36.987898     73.975797
     -4.189189     32.421320     32.421320     64.842640
     -4.179179     28.567029     28.567029     57.134058
     -4.169169     25.899536     25.899536     51.799073
     -4.159159     24.482746     24.482746     48.965491
     -4.149149     24.065381     24.065381     48.130762
     -4.139139     24.290467     24.290467     48.580933
     -4.129129     24.903439     24.903439     49.806878
     -4.119119     25.857410     25.857410     51.714820
     -4.109109     27.270236     27.270236     54.540471
     -4.099099     29.259804     29.259804     58.519609
     -4.089089     31.745944     31.745944     63.491888
     -4.079079     34.334540     34.334540     68.669080
     -4.069069     36.370640     36.370640     72.741280
     -4.059059     37.163524     37.163524     74.327047
     -4.049049     36.286110     36.286110     72.572221
     -4.039039     33.795718     33.795718     67.591437
     -4.029029     30.256125     30.256125     60.512250
     -4.019019     26.547901     26.547901     53.095802
     -4.009009     23.567987     23.567987     47.135974
     -3.998999     21.967918     21.967918     43.935837
     -3.988989     22.037720     22.037720     44.075439
     -3.978979     23.746202     23.746202     47.492404
     -3.968969     26.866111     26.866111     53.732223
     -3.958959     31.092917     31.092917     62.185834
     -3.948949     36.107862     36.107862     72.215723
     -3.938939     41.595844     41.595844     83.191688
     -3.928929     47.258202     47.258202     94.516404
     -3.918919     52.842746     52.842746    105.685492
     -3.908909     58.172667     58.172667    116.345334
     -3.898899     63.133959     63.133959    126.267919
     -3.888889     67.601025     67.601025    135.202050
     -3.878879     71.329204     71.329204    142.658408
     -3.868869     73.883757     73.883757    147.767515
     -3.858859     74.674322     74.674322    149.348644
     -3.848849     73.116202     73.116202    146.232404
     -3.838839     68.869246     68.869246    137.738491
     -3.828829     62.051556     62.051556    124.103112
     -3.818819     53.321745     53.321745    106.643490
     -3.808809     43.775832     43.775832     87.551664
     -3.798799     34.686758     34.686758     69.373516
     -3.788789     27.181995     27.181995     54.363990
     -3.778779     21.974095     21.974095     43.948191
     -3.768769     19.226967     19.226967     38.453933
     -3.758759     18.582016     18.582016     37.164033
     -3.748749     19.315373     19.315373     38.630746
     -3.738739     20.568517     20.568517     41.137034
     -3.728729     21.589323     21.589323     43.178647
     -3.718719     21.928269     21.928269     43.856539
     -3.708709     21.547109     21.547109     43.094218
     -3.698699     20.813117     20.813117     41.626235
     -3.688689     20.373900     20.373900     40.747801
     -3.678679     20.937354     20.937354     41.874708
     -3.668669     23.014467     23.014467     46.028934
     -3.658659     26.707167     26.707167     53.414335
     -3.648649     31.622556     31.622556     63.245112
     -3.638639     36.957299     36.957299     73.914598
     -3.628629     41.729084     41.729084     83.458168
     -3.618619     45.066304     45.066304     90.132607
     -3.608609     46.441331     46.441331     92.882662
     -3.598599     45.765757     45.765757     91.531513
     -3.588589     43.337716     43.337716     86.675432
     -3.578579     39.695291     39.695291     79.390581
     -3.568569     35.449226     35.449226     70.898451
     -3.558559     31.144601     31.144601     62.289202
     -3.548549     27.167493     27.167493     54.334986
     -3.538539     23.698178     23.698178     47.396356
     -3.528529     20.716434     20.716434     41.432867
     -3.518519     18.064378     18.064378     36.128757
     -3.508509     15.553423     15.553423     31.106847
     -3.498498     13.075543     13.075543     26.151087
     -3.488488     10.670301     10.670301     21.340601
     -3.478478      8.519666      8.519666     17.039331
     -3.468468      6.878966      6.878966     13.757933
     -3.458458      5.978918      5.978918     11.957835
     -3.448448      5.937161      5.937161     11.874323
     -3.438438      6.705157      6.705157     13.410314
     -3.428428      8.062984      8.062984     16.125968
     -3.418418      9.666869      9.666869     19.333739
     -3.408408     11.145280     11.145280     22.290559
     -3.398398     12.222013     12.222013     24.444025
     -3.388388     12.824432     12.824432     25.648865
     -3.378378     13.128997     13.128997     26.257995
     -3.368368     13.516853     13.516853     27.033705
     -3.358358     14.452042     14.452042     28.904084
     -3.348348     16.329083     16.329083     32.658167
     -3.338338     19.342930     19.342930     38.685859
     -3.328328     23.412592     23.412592     46.825183
     -3.318318     28.162337     28.162337     56.324675
     -3.308308     32.955164     32.955164     65.910328
     -3.298298     36.983204     36.983204     73.966408
     -3.288288     39.424699     39.424699     78.849398
     -3.278278     39.653210     39.653210     79.306421
     -3.268268     37.438506     37.438506     74.877012
     -3.258258     33.049288     33.049288     66.098577
     -3.248248     27.193229     27.193229     54.386459
     -3.238238     20.805836     20.805836     41.611673
     -3.228228     14.778029     14.778029     29.556057
     -3.218218      9.739055      9.739055     19.478110
     -3.208208      5.971704      5.971704     11.943407
     -3.198198      3.463551      3.463551      6.927103
     -3.188188      2.040108      2.040108      4.080216
     -3.178178      1.510010      1.510010      3.020021
     -3.168168      1.771386      1.771386      3.542773
     -3.158158      2.857111      2.857111      5.714222
     -3.148148      4.916257      4.916257      9.832515
     -3.138138      8.138422      8.138422     16.276844
     -3.128128     12.636709     12.636709     25.273419
     -3.118118     18.320974     18.320974     36.641947
     -3.108108     24.810072     24.810072     49.620145
     -3.098098     31.434872     31.434872     62.869744
     -3.088088     37.359264     37.359264     74.718529
     -3.078078     41.796733     41.796733     83.593466
     -3.068068     44.246718     44.246718     88.493435
     -3.058058     44.649121     44.649121     89.298242
     -3.048048     43.378714     43.378714     86.757427
     -3.038038     41.070788     41.070788     82.141576
     -3.028028     38.353729     38.353729     76.707457
     -3.018018     35.616813     35.616813     71.233626
     -3.008008     32.927519     32.927519     65.855037
     -2.997998     30.133647     30.133647     60.267293
     -2.987988     27.085097     27.085097     54.170194
     -2.977978     23.848010     23.848010     47.696021
     -2.967968     20.795816     20.795816     41.591631
     -2.957958     18.534295     18.534295     37.068591
     -2.947948     17.701975     17.701975     35.403949
     -2.937938     18.736252     18.736252     37.472504
     -2.927928     21.695587     21.695587     43.391174
     -2.917918     26.195754     26.195754     52.391508
     -2.907908     31.477943     31.477943     62.955886
     -2.897898     36.590307     36.590307     73.180614
     -2.887888     40.633109     40.633109     81.266218
     -2.877878     42.993496     42.993496     85.986992
     -2.867868     43.490497     43.490497     86.980993
     -2.857858     42.375907     42.375907     84.751814
     -2.847848     40.190408     40.190408     80.380816
     -2.837838     37.535350     37.535350     75.070699
     -2.827828     34.858272     34.858272     69.716545
     -2.817818     32.342145     32.342145     64.684289
     -2.807808     29.935917     29.935917     59.871835
     -2.797798     27.493271     27.493271     54.986542
     -2.787788     24.934635     24.934635     49.869269
     -2.777778     22.342346     22.342346     44.684691
     -2.767768     19.942524     19.942524     39.885048
     -2.757758     17.994902     17.994902     35.989804
     -2.747748     16.664768     16.664768     33.329535
     -2.737738     15.958347     15.958347     31.916693
     -2.727728     15.759759     15.759759     31.519518
     -2.717718     15.940089     15.940089     31.880178
     -2.707708     16.460064     16.460064     32.920128
     -2.697698     17.390760     17.390760     34.781519
     -2.687688     18.832586     18.832586     37.665172
     -2.677678     20.786043     20.786043     41.572086
     -2.667668     23.067919     23.067919     46.135838
     -2.657658     25.342598     25.342598     50.685195
     -2.647648     27.262336     27.262336     54.524672
     -2.637638     28.633701     28.633701     57.267403
     -2.627628     29.504822     29.504822     59.009645
     -2.617618     30.118162     30.118162     60.236325
     -2.607608     30.761367     30.761367     61.522735
     -2.597598     31.610795     31.610795     63.221590
     -2.587588     32.655105     32.655105     65.310209
     -2.577578     33.720959     33.720959     67.441917
     -2.567568     34.555099     34.555099     69.110198
     -2.557558     34.899071     34.899071     69.798142
     -2.547548     34.529796     34.529796     69.059592
     -2.537538     33.288090     33.288090     66.576181
     -2.527528     31.129229     31.129229     62.258458
     -2.517518     28.194976     28.194976     56.389952
     -2.507508     24.860847     24.860847     49.721693
     -2.497497     21.701499     21.701499     43.402997
     -2.487487     19.355467     19.355467     38.710933
     -2.477477     18.331234     18.331234     36.662468
     -2.467467     18.837620     18.837620     37.675239
     -2.457457     20.717310     20.717310     41.434620
     -2.447447     23.517284     23.517284     47.034568
     -2.437437     26.668189     26.668189     53.336378
     -2.427427     29.695125     29.695125     59.390250
     -2.417417     32.366538     32.366538     64.733076
     -2.407407     34.714196     34.714196     69.428391
     -2.397397     36.915952     36.915952     73.831904
     -2.387387     39.098863     39.098863     78.197725
     -2.377377     41.162277     41.162277     82.324554
     -2.367367     42.717055     42.717055     85.434110
     -2.357357     43.186152     43.186152     86.372303
     -2.347347     42.033968     42.033968     84.067935
     -2.337337     39.024025     39.024025     78.048050
     -2.327327     34.383805     34.383805     68.767611
     -2.317317     28.797276     28.797276     57.594553
     -2.307307     23.228704     23.228704     46.457407
     -2.297297     18.658009     18.658009     37.316018
     -2.287287     15.835796     15.835796     31.671592
     -2.277277     15.137408     15.137408     30.274817
     -2.267267     16.538200     16.538200     33.076401
     -2.257257     19.684107     19.684107     39.368214
     -2.247247     24.011742     24.011742     48.023484
     -2.237237     28.875662     28.875662     57.751325
     -2.227227     33.652821     33.652821     67.305643
     -2.217217     37.807915     37.807915     75.615830
     -2.207207     40.918948     40.918948     81.837896
     -2.197197     42.679472     42.679472     85.358944
     -2.187187     42.904368     42.904368     85.808735
     -2.177177     41.558347     41.558347     83.116694
     -2.167167     38.799161     38.799161     77.598321
     -2.157157     34.997472     34.997472     69.994943
     -2.147147     30.689018     30.689018     61.378035
     -2.137137     26.446342     26.446342     52.892684
     -2.127127     22.711495     22.711495     45.422989
     -2.117117     19.668962     19.668962     39.337923
     -2.107107     17.226964     17.226964     34.453929
     -2.097097     15.117413     15.117413     30.234826
     -2.087087     13.058167     13.058167     26.116334
     -2.077077     10.890963     10.890963     21.781926
     -2.067067      8.631970      8.631970     17.263940
     -2.057057      6.428655      6.428655     12.857309
     -2.047047      4.466301      4.466301      8.932602
     -2.037037      2.881974      2.881974      5.763948
     -2.027027      1.723169      1.723169      3.446338
     -2.017017      0.954813      0.954813      1.909627
     -2.007007      0.494701      0.494701      0.989402
     -1.996997      0.253101      0.253101      0.506203
     -1.986987      0.161716      0.161716      0.323433
     -1.976977      0.189250      0.189250      0.378499
     -1.966967      0.347580      0.347580      0.695159
     -1.956957      0.692222      0.692222      1.384443
     -1.946947      1.316315      1.316315      2.632630
     -1.936937      2.333472      2.333472      4.666944
     -1.926927      3.845588      3.845588      7.691176
     -1.916917      5.898639      5.898639     11.797278
     -1.906907      8.439668      8.439668     16.879336
     -1.896897     11.294715     11.294715     22.589431
     -1.886887     14.183857     14.183857     28.367713
     -1.876877     16.775373     16.775373     33.550746
     -1.866867     18.764169     18.764169     37.528339
     -1.856857     19.949897     19.949897     39.899794
     -1.846847     20.291634     20.291634     40.583267
     -1.836837     19.923872     19.923872     39.847744
     -1.826827     19.126932     19.126932     38.253865
     -1.816817     18.253969     18.253969     36.507938
     -1.806807     17.630218     17.630218     35.260437
     -1.796797     17.455673     17.455673     34.911345
     -1.786787     17.748098     17.748098     35.496195
     -1.776777     18.348864     18.348864     36.697728
     -1.766767     18.984671     18.984671     37.969341
     -1.756757     19.353958     19.353958     38.707917
     -1.746747     19.204569     19.204569     38.409137
     -1.736737     18.386396     18.386396     36.772793
     -1.726727     16.880590     16.880590     33.761180
     -1.716717     14.810286     14.810286     29.620572
     -1.706707     12.429935     12.429935     24.859871
     -1.696697     10.085629     10.085629     20.171258
     -1.686687      8.146156      8.146156     16.292312
     -1.676677      6.918226      6.918226     13.836451
     -1.666667      6.567980      6.567980     13.135959
     -1.656657      7.070342      7.070342     14.140683
     -1.646647      8.202020      8.202020     16.404040
     -1.636637      9.587004      9.587004     19.174008
     -1.626627     10.792751     10.792751     21.585503
