# EIG2DOS: Utility for SIESTA to obtain the electronic density of states
#  E. Artacho, Apr 1999, A. Garcia, Apr 2012
#  Nick R. Papior, Feb 2017
# ------------------------------------------
# Eigenvalues calculated from a non-polarized calculation
# Eigenvalues read from siesta.EIG
# Kpoint weights read from siesta.KP
# Using smearing parameter:   0.0500
# Using 1000 points in the energy range
# Selected bands: 1 to: 2981
# Emin, Emax in file for selected band(s):    -27.2445334    218.3636910
# Nbands, Nspin, Nk   =   2981     1     1
# E_F                 =    -4.2378 eV --> (shifted to ZERO)
# Broadening          =     0.0500 eV
#
#        E            N(up)  (=)   N(down)         Ntot
     -5.000000     32.565020     32.565020     65.130040
     -4.989990     37.047214     37.047214     74.094428
     -4.979980     41.116450     41.116450     82.232900
     -4.969970     44.116592     44.116592     88.233185
     -4.959960     45.515151     45.515151     91.030301
     -4.949950     45.075620     45.075620     90.151241
     -4.939940     42.941274     42.941274     85.882549
     -4.929930     39.610439     39.610439     79.220878
     -4.919920     35.832733     35.832733     71.665466
     -4.909910     32.474032     32.474032     64.948065
     -4.899900     30.378917     30.378917     60.757834
     -4.889890     30.227882     30.227882     60.455765
     -4.879880     32.378865     32.378865     64.757730
     -4.869870     36.713982     36.713982     73.427964
     -4.859860     42.559188     42.559188     85.118375
     -4.849850     48.759240     48.759240     97.518481
     -4.839840     53.941332     53.941332    107.882665
     -4.829830     56.904106     56.904106    113.808211
     -4.819820     56.984190     56.984190    113.968380
     -4.809810     54.241501     54.241501    108.483002
     -4.799800     49.384014     49.384014     98.768027
     -4.789790     43.478107     43.478107     86.956214
     -4.779780     37.585993     37.585993     75.171986
     -4.769770     32.483595     32.483595     64.967191
     -4.759760     28.544760     28.544760     57.089521
     -4.749750     25.783666     25.783666     51.567332
     -4.739740     23.984336     23.984336     47.968672
     -4.729730     22.837861     22.837861     45.675723
     -4.719720     22.038882     22.038882     44.077765
     -4.709710     21.332851     21.332851     42.665701
     -4.699700     20.533341     20.533341     41.066683
     -4.689690     19.537228     19.537228     39.074455
     -4.679680     18.355623     18.355623     36.711246
     -4.669670     17.155722     17.155722     34.311445
     -4.659660     16.285511     16.285511     32.571022
     -4.649650     16.245810     16.245810     32.491620
     -4.639640     17.590300     17.590300     35.180601
     -4.629630     20.766187     20.766187     41.532373
     -4.619620     25.938345     25.938345     51.876691
     -4.609610     32.854436     32.854436     65.708871
     -4.599600     40.805017     40.805017     81.610035
     -4.589590     48.714038     48.714038     97.428076
     -4.579580     55.362084     55.362084    110.724168
     -4.569570     59.698751     59.698751    119.397501
     -4.559560     61.153119     61.153119    122.306238
     -4.549550     59.827629     59.827629    119.655258
     -4.539540     56.484923     56.484923    112.969845
     -4.529530     52.311128     52.311128    104.622255
     -4.519520     48.532512     48.532512     97.065024
     -4.509510     46.028394     46.028394     92.056788
     -4.499499     45.086110     45.086110     90.172219
     -4.489489     45.381391     45.381391     90.762781
     -4.479479     46.171118     46.171118     92.342235
     -4.469469     46.601907     46.601907     93.203814
     -4.459459     46.004558     46.004558     92.009116
     -4.449449     44.070954     44.070954     88.141909
     -4.439439     40.876936     40.876936     81.753872
     -4.429429     36.785286     36.785286     73.570572
     -4.419419     32.302949     32.302949     64.605898
     -4.409409     27.960737     27.960737     55.921474
     -4.399399     24.243199     24.243199     48.486398
     -4.389389     21.551725     21.551725     43.103450
     -4.379379     20.166402     20.166402     40.332805
     -4.369369     20.191539     20.191539     40.383077
     -4.359359     21.507127     21.507127     43.014254
     -4.349349     23.770311     23.770311     47.540621
     -4.339339     26.495950     26.495950     52.991900
     -4.329329     29.201776     29.201776     58.403551
     -4.319319     31.561933     31.561933     63.123865
     -4.309309     33.501490     33.501490     67.002981
     -4.299299     35.189459     35.189459     70.378917
     -4.289289     36.931299     36.931299     73.862597
     -4.279279     39.000245     39.000245     78.000490
     -4.269269     41.467654     41.467654     82.935309
     -4.259259     44.096660     44.096660     88.193320
     -4.249249     46.351988     46.351988     92.703976
     -4.239239     47.546702     47.546702     95.093403
     -4.229229     47.091794     47.091794     94.183589
     -4.219219     44.754698     44.754698     89.509397
     -4.209209     40.805672     40.805672     81.611343
     -4.199199     35.967783     35.967783     71.935566
     -4.189189     31.179044     31.179044     62.358089
     -4.179179     27.272786     27.272786     54.545571
     -4.169169     24.723803     24.723803     49.447606
     -4.159159     23.567984     23.567984     47.135968
     -4.149149     23.509823     23.509823     47.019647
     -4.139139     24.142198     24.142198     48.284396
     -4.129129     25.160881     25.160881     50.321761
     -4.119119     26.472859     26.472859     52.945717
     -4.109109     28.155053     28.155053     56.310105
     -4.099099     30.292055     30.292055     60.584109
     -4.089089     32.782593     32.782593     65.565187
     -4.079079     35.229494     35.229494     70.458988
     -4.069069     36.996895     36.996895     73.993790
     -4.059059     37.434287     37.434287     74.868574
     -4.049049     36.168678     36.168678     72.337356
     -4.039039     33.314579     33.314579     66.629157
     -4.029029     29.486529     29.486529     58.973059
     -4.019019     25.604297     25.604297     51.208594
     -4.009009     22.590660     22.590660     45.181319
     -3.998999     21.107339     21.107339     42.214677
     -3.988989     21.433943     21.433943     42.867886
     -3.978979     23.503521     23.503521     47.007042
     -3.968969     27.029424     27.029424     54.058847
     -3.958959     31.636309     31.636309     63.272618
     -3.948949     36.943070     36.943070     73.886139
     -3.938939     42.599306     42.599306     85.198612
     -3.928929     48.305967     48.305967     96.611934
     -3.918919     53.838447     53.838447    107.676895
     -3.908909     59.057364     59.057364    118.114729
     -3.898899     63.875924     63.875924    127.751848
     -3.888889     68.174061     68.174061    136.348122
     -3.878879     71.694857     71.694857    143.389714
     -3.868869     73.991456     73.991456    147.982913
     -3.858859     74.483177     74.483177    148.966354
     -3.848849     72.627427     72.627427    145.254855
     -3.838839     68.148521     68.148521    136.297043
     -3.828829     61.224008     61.224008    122.448017
     -3.818819     52.537986     52.537986    105.075973
     -3.808809     43.165153     43.165153     86.330307
     -3.798799     34.320678     34.320678     68.641356
     -3.788789     27.063579     27.063579     54.127159
     -3.778779     22.052657     22.052657     44.105314
     -3.768769     19.425506     19.425506     38.851012
     -3.758759     18.822871     18.822871     37.645742
     -3.748749     19.536014     19.536014     39.072028
     -3.738739     20.727420     20.727420     41.454841
     -3.728729     21.665983     21.665983     43.331967
     -3.718719     21.921057     21.921057     43.842115
     -3.708709     21.470377     21.470377     42.940753
     -3.698699     20.693310     20.693310     41.386619
     -3.688689     20.244311     20.244311     40.488622
     -3.678679     20.831819     20.831819     41.663638
     -3.668669     22.960812     22.960812     45.921623
     -3.658659     26.721304     26.721304     53.442607
     -3.648649     31.704113     31.704113     63.408226
     -3.638639     37.087910     37.087910     74.175820
     -3.628629     41.874735     41.874735     83.749471
     -3.618619     45.184657     45.184657     90.369314
     -3.608609     46.493198     46.493198     92.986396
     -3.598599     45.727397     45.727397     91.454793
     -3.588589     43.209026     43.209026     86.418052
     -3.578579     39.499871     39.499871     78.999743
     -3.568569     35.225819     35.225819     70.451637
     -3.558559     30.933658     30.933658     61.867315
     -3.548549     26.998893     26.998893     53.997787
     -3.538539     23.584970     23.584970     47.169939
     -3.528529     20.655791     20.655791     41.311582
     -3.518519     18.043359     18.043359     36.086718
     -3.508509     15.555590     15.555590     31.111180
     -3.498498     13.085506     13.085506     26.171011
     -3.488488     10.675382     10.675382     21.350764
     -3.478478      8.509711      8.509711     17.019422
     -3.468468      6.845970      6.845970     13.691940
     -3.458458      5.917747      5.917747     11.835495
     -3.448448      5.847653      5.847653     11.695305
     -3.438438      6.594691      6.594691     13.189383
     -3.428428      7.947867      7.947867     15.895735
     -3.418418      9.570865      9.570865     19.141731
     -3.408408     11.094807     11.094807     22.189614
     -3.398398     12.239308     12.239308     24.478617
     -3.388388     12.921449     12.921449     25.842898
     -3.378378     13.305003     13.305003     26.610006
     -3.368368     13.761730     13.761730     27.523460
     -3.358358     14.756060     14.756060     29.512120
     -3.348348     16.699278     16.699278     33.398557
     -3.338338     19.825749     19.825749     39.651498
     -3.328328     24.120650     24.120650     48.241300
     -3.318318     29.298744     29.298744     58.597488
     -3.308308     34.822848     34.822848     69.645697
     -3.298298     39.962765     39.962765     79.925530
     -3.288288     43.908053     43.908053     87.816106
     -3.278278     45.935387     45.935387     91.870775
     -3.268268     45.593627     45.593627     91.187254
     -3.258258     42.837763     42.837763     85.675527
     -3.248248     38.049920     38.049920     76.099840
     -3.238238     31.934285     31.934285     63.868570
     -3.228228     25.331529     25.331529     50.663058
     -3.218218     19.028618     19.028618     38.057236
     -3.208208     13.628009     13.628009     27.256017
     -3.198198      9.501646      9.501646     19.003292
     -3.188188      6.816285      6.816285     13.632570
     -3.178178      5.594926      5.594926     11.189852
     -3.168168      5.777665      5.777665     11.555329
     -3.158158      7.258589      7.258589     14.517178
     -3.148148      9.894532      9.894532     19.789064
     -3.138138     13.496799     13.496799     26.993598
     -3.128128     17.820889     17.820889     35.641779
     -3.118118     22.562257     22.562257     45.124514
     -3.108108     27.357806     27.357806     54.715612
     -3.098098     31.793766     31.793766     63.587532
     -3.088088     35.430399     35.430399     70.860798
     -3.078078     37.858637     37.858637     75.717273
     -3.068068     38.788779     38.788779     77.577559
     -3.058058     38.140877     38.140877     76.281754
     -3.048048     36.085409     36.085409     72.170818
     -3.038038     32.997105     32.997105     65.994211
     -3.028028     29.333301     29.333301     58.666602
     -3.018018     25.498185     25.498185     50.996370
     -3.008008     21.766144     21.766144     43.532289
     -2.997998     18.299391     18.299391     36.598783
     -2.987988     15.234644     15.234644     30.469289
     -2.977978     12.773875     12.773875     25.547750
     -2.967968     11.218619     11.218619     22.437237
     -2.957958     10.925008     10.925008     21.850016
     -2.947948     12.197711     12.197711     24.395421
     -2.937938     15.163932     15.163932     30.327864
     -2.927928     19.672236     19.672236     39.344471
     -2.917918     25.254331     25.254331     50.508662
     -2.907908     31.175384     31.175384     62.350767
     -2.897898     36.576186     36.576186     73.152372
     -2.887888     40.677264     40.677264     81.354528
     -2.877878     42.981518     42.981518     85.963036
     -2.867868     43.398387     43.398387     86.796774
     -2.857858     42.234135     42.234135     84.468270
     -2.847848     40.046376     40.046376     80.092752
     -2.837838     37.422468     37.422468     74.844936
     -2.827828     34.778388     34.778388     69.556775
     -2.817818     32.264821     32.264821     64.529643
     -2.807808     29.812940     29.812940     59.625880
     -2.797798     27.281230     27.281230     54.562459
     -2.787788     24.615271     24.615271     49.230542
     -2.777778     21.931679     21.931679     43.863358
     -2.767768     19.485540     19.485540     38.971080
     -2.757758     17.549815     17.549815     35.099631
     -2.747748     16.285412     16.285412     32.570825
     -2.737738     15.682635     15.682635     31.365269
     -2.727728     15.607210     15.607210     31.214421
     -2.717718     15.915685     15.915685     31.831371
     -2.707708     16.558753     16.558753     33.117506
     -2.697698     17.598362     17.598362     35.196724
     -2.687688     19.123219     19.123219     38.246438
     -2.677678     21.120254     21.120254     42.240509
     -2.667668     23.396492     23.396492     46.792983
     -2.657658     25.617582     25.617582     51.235164
     -2.647648     27.451458     27.451458     54.902916
     -2.637638     28.730817     28.730817     57.461634
     -2.627628     29.530462     29.530462     59.060924
     -2.617618     30.109796     30.109796     60.219591
     -2.607608     30.758742     30.758742     61.517485
     -2.597598     31.643361     31.643361     63.286722
     -2.587588     32.735325     32.735325     65.470649
     -2.577578     33.842699     33.842699     67.685398
     -2.567568     34.694454     34.694454     69.388908
     -2.557558     35.017016     35.017016     70.034032
     -2.547548     34.578785     34.578785     69.157570
     -2.537538     33.224263     33.224263     66.448527
     -2.527528     30.927760     30.927760     61.855520
     -2.517518     27.861925     27.861925     55.723851
     -2.507508     24.435001     24.435001     48.870002
     -2.497497     21.244773     21.244773     42.489546
     -2.487487     18.936837     18.936837     37.873673
     -2.477477     18.012108     18.012108     36.024215
     -2.467467     18.664233     18.664233     37.328467
     -2.457457     20.720408     20.720408     41.440815
     -2.447447     23.715055     23.715055     47.430110
     -2.437437     27.067744     27.067744     54.135488
     -2.427427     30.290263     30.290263     60.580526
     -2.417417     33.132806     33.132806     66.265612
     -2.407407     35.604018     35.604018     71.208036
     -2.397397     37.856494     37.856494     75.712988
     -2.387387     39.994453     39.994453     79.988906
     -2.377377     41.902926     41.902926     83.805851
     -2.367367     43.194478     43.194478     86.388957
     -2.357357     43.316874     43.316874     86.633749
     -2.347347     41.784641     41.784641     83.569281
     -2.337337     38.429330     38.429330     76.858659
     -2.327327     33.546648     33.546648     67.093296
     -2.317317     27.867033     27.867033     55.734067
     -2.307307     22.363440     22.363440     44.726880
     -2.297297     17.984661     17.984661     35.969322
     -2.287287     15.423160     15.423160     30.846320
     -2.277277     14.990444     14.990444     29.980889
     -2.267267     16.612750     16.612750     33.225500
     -2.257257     19.913304     19.913304     39.826607
     -2.247247     24.331912     24.331912     48.663825
     -2.237237     29.241070     29.241070     58.482140
     -2.227227     34.034692     34.034692     68.069383
     -2.217217     38.181600     38.181600     76.363200
     -2.207207     41.249713     41.249713     82.499426
     -2.197197     42.918116     42.918116     85.836232
     -2.187187     42.997632     42.997632     85.995265
     -2.177177     41.469431     41.469431     82.938862
     -2.167167     38.526684     38.526684     77.053367
     -2.157157     34.581341     34.581341     69.162683
     -2.147147     30.198710     30.198710     60.397419
     -2.137137     25.956741     25.956741     51.913483
     -2.127127     22.278051     22.278051     44.556103
     -2.117117     19.313743     19.313743     38.627486
     -2.107107     16.940733     16.940733     33.881465
     -2.097097     14.874177     14.874177     29.748354
     -2.087087     12.832944     12.832944     25.665889
     -2.077077     10.671658     10.671658     21.343315
     -2.067067      8.421312      8.421312     16.842625
     -2.057057      6.238215      6.238215     12.476430
     -2.047047      4.308002      4.308002      8.616004
     -2.037037      2.762033      2.762033      5.524066
     -2.027027      1.640478      1.640478      3.280957
     -2.017017      0.902856      0.902856      1.805711
     -2.007007      0.464797      0.464797      0.929594
     -1.996997      0.237178      0.237178      0.474355
     -1.986987      0.154023      0.154023      0.308046
     -1.976977      0.187717      0.187717      0.375434
     -1.966967      0.356495      0.356495      0.712990
     -1.956957      0.728616      0.728616      1.457232
     -1.946947      1.422661      1.422661      2.845322
     -1.936937      2.598162      2.598162      5.196324
     -1.926927      4.428958      4.428958      8.857915
     -1.916917      7.055601      7.055601     14.111202
     -1.906907     10.522459     10.522459     21.044918
     -1.896897     14.716267     14.716267     29.432534
     -1.886887     19.330517     19.330517     38.661035
     -1.876877     23.879567     23.879567     47.759135
     -1.866867     27.775661     27.775661     55.551323
     -1.856857     30.461742     30.461742     60.923485
     -1.846847     31.566866     31.566866     63.133732
     -1.836837     31.028899     31.028899     62.057799
     -1.826827     29.126155     29.126155     58.252311
     -1.816817     26.387904     26.387904     52.775808
     -1.806807     23.408448     23.408448     46.816897
     -1.796797     20.642893     20.642893     41.285785
     -1.786787     18.278852     18.278852     36.557705
     -1.776777     16.240506     16.240506     32.481011
     -1.766767     14.309623     14.309623     28.619245
     -1.756757     12.287806     12.287806     24.575612
     -1.746747     10.112645     10.112645     20.225291
     -1.736737      7.880436      7.880436     15.760871
     -1.726727      5.787838      5.787838     11.575676
     -1.716717      4.044578      4.044578      8.089155
     -1.706707      2.809366      2.809366      5.618732
     -1.696697      2.171145      2.171145      4.342289
     -1.686687      2.163047      2.163047      4.326093
     -1.676677      2.778980      2.778980      5.557960
     -1.666667      3.969110      3.969110      7.938221
     -1.656657      5.613041      5.613041     11.226081
     -1.646647      7.493165      7.493165     14.986330
     -1.636637      9.300613      9.300613     18.601225
     -1.626627     10.694361     10.694361     21.388722
