# EIG2DOS: Utility for SIESTA to obtain the electronic density of states
#  E. Artacho, Apr 1999, A. Garcia, Apr 2012
#  Nick R. Papior, Feb 2017
# ------------------------------------------
# Eigenvalues calculated from a non-polarized calculation
# Eigenvalues read from siesta.EIG
# Kpoint weights read from siesta.KP
# Using smearing parameter:   0.0500
# Using 1000 points in the energy range
# Selected bands: 1 to: 2981
# Emin, Emax in file for selected band(s):    -27.0550907    218.3169390
# Nbands, Nspin, Nk   =   2981     1     1
# E_F                 =    -4.2890 eV --> (shifted to ZERO)
# Broadening          =     0.0500 eV
#
#        E            N(up)  (=)   N(down)         Ntot
     -5.000000     47.404687     47.404687     94.809373
     -4.989990     50.083260     50.083260    100.166520
     -4.979980     51.061807     51.061807    102.123615
     -4.969970     50.362405     50.362405    100.724810
     -4.959960     48.230873     48.230873     96.461745
     -4.949950     45.054316     45.054316     90.108632
     -4.939940     41.282374     41.282374     82.564747
     -4.929930     37.387140     37.387140     74.774280
     -4.919920     33.865345     33.865345     67.730690
     -4.909910     31.254164     31.254164     62.508328
     -4.899900     30.113686     30.113686     60.227371
     -4.889890     30.934456     30.934456     61.868911
     -4.879880     33.964130     33.964130     67.928259
     -4.869870     39.007179     39.007179     78.014358
     -4.859860     45.305649     45.305649     90.611299
     -4.849850     51.611683     51.611683    103.223366
     -4.839840     56.487863     56.487863    112.975726
     -4.829830     58.746938     58.746938    117.493875
     -4.819820     57.844344     57.844344    115.688687
     -4.809810     54.038812     54.038812    108.077623
     -4.799800     48.248935     48.248935     96.497871
     -4.789790     41.688969     41.688969     83.377938
     -4.779780     35.466281     35.466281     70.932562
     -4.769770     30.310026     30.310026     60.620052
     -4.759760     26.500644     26.500644     53.001289
     -4.749750     23.960110     23.960110     47.920221
     -4.739740     22.408473     22.408473     44.816945
     -4.729730     21.503904     21.503904     43.007808
     -4.719720     20.927941     20.927941     41.855881
     -4.709710     20.417784     20.417784     40.835568
     -4.699700     19.768756     19.768756     39.537511
     -4.689690     18.835222     18.835222     37.670443
     -4.679680     17.551659     17.551659     35.103318
     -4.669670     15.977784     15.977784     31.955568
     -4.659660     14.348344     14.348344     28.696688
     -4.649650     13.092265     13.092265     26.184531
     -4.639640     12.788251     12.788251     25.576502
     -4.629630     14.044097     14.044097     28.088195
     -4.619620     17.315558     17.315558     34.631116
     -4.609610     22.709163     22.709163     45.418327
     -4.599600     29.836510     29.836510     59.673019
     -4.589590     37.795188     37.795188     75.590376
     -4.579580     45.327467     45.327467     90.654934
     -4.569570     51.144216     51.144216    102.288431
     -4.559560     54.318360     54.318360    108.636719
     -4.549550     54.595837     54.595837    109.191674
     -4.539540     52.485903     52.485903    104.971806
     -4.529530     49.081011     49.081011     98.162021
     -4.519520     45.675638     45.675638     91.351277
     -4.509510     43.339313     43.339313     86.678627
     -4.499499     42.608742     42.608742     85.217484
     -4.489489     43.399436     43.399436     86.798872
     -4.479479     45.137718     45.137718     90.275436
     -4.469469     47.029089     47.029089     94.058178
     -4.459459     48.342255     48.342255     96.684509
     -4.449449     48.606077     48.606077     97.212154
     -4.439439     47.672252     47.672252     95.344505
     -4.429429     45.660818     45.660818     91.321636
     -4.419419     42.850269     42.850269     85.700538
     -4.409409     39.580606     39.580606     79.161212
     -4.399399     36.206034     36.206034     72.412069
     -4.389389     33.085762     33.085762     66.171523
     -4.379379     30.570004     30.570004     61.140008
     -4.369369     28.947352     28.947352     57.894703
     -4.359359     28.362144     28.362144     56.724288
     -4.349349     28.751541     28.751541     57.503082
     -4.339339     29.855617     29.855617     59.711233
     -4.329329     31.313666     31.313666     62.627332
     -4.319319     32.805345     32.805345     65.610690
     -4.309309     34.166692     34.166692     68.333385
     -4.299299     35.426846     35.426846     70.853691
     -4.289289     36.755061     36.755061     73.510122
     -4.279279     38.347076     38.347076     76.694151
     -4.269269     40.295844     40.295844     80.591688
     -4.259259     42.489906     42.489906     84.979811
     -4.249249     44.577637     44.577637     89.155274
     -4.239239     46.027864     46.027864     92.055728
     -4.229229     46.291619     46.291619     92.583237
     -4.219219     45.019930     45.019930     90.039860
     -4.209209     42.242760     42.242760     84.485520
     -4.199199     38.408371     38.408371     76.816741
     -4.189189     34.243003     34.243003     68.486006
     -4.179179     30.488978     30.488978     60.977955
     -4.169169     27.650480     27.650480     55.300959
     -4.159159     25.870905     25.870905     51.741811
     -4.149149     24.988653     24.988653     49.977306
     -4.139139     24.721551     24.721551     49.443102
     -4.129129     24.869931     24.869931     49.739862
     -4.119119     25.429250     25.429250     50.858500
     -4.109109     26.554874     26.554874     53.109748
     -4.099099     28.397252     28.397252     56.794504
     -4.089089     30.895490     30.895490     61.790979
     -4.079079     33.651114     33.651114     67.302227
     -4.069069     35.976873     35.976873     71.953746
     -4.059059     37.127853     37.127853     74.255706
     -4.049049     36.614735     36.614735     73.229471
     -4.039039     34.438535     34.438535     68.877070
     -4.029029     31.119745     31.119745     62.239490
     -4.019019     27.508074     27.508074     55.016149
     -4.009009     24.479690     24.479690     48.959381
     -3.998999     22.678353     22.678353     45.356707
     -3.988989     22.408325     22.408325     44.816650
     -3.978979     23.682524     23.682524     47.365048
     -3.968969     26.344553     26.344553     52.689107
     -3.958959     30.169696     30.169696     60.339393
     -3.948949     34.902099     34.902099     69.804199
     -3.938939     40.251829     40.251829     80.503657
     -3.928929     45.902949     45.902949     91.805897
     -3.918919     51.557386     51.557386    103.114772
     -3.908909     56.989193     56.989193    113.978386
     -3.898899     62.056565     62.056565    124.113131
     -3.888889     66.639600     66.639600    133.279200
     -3.878879     70.526506     70.526506    141.053011
     -3.868869     73.320386     73.320386    146.640772
     -3.858859     74.446474     74.446474    148.892948
     -3.848849     73.295580     73.295580    146.591161
     -3.838839     69.464757     69.464757    138.929515
     -3.828829     62.992293     62.992293    125.984586
     -3.818819     54.469985     54.469985    108.939969
     -3.808809     44.963858     44.963858     89.927716
     -3.798799     35.760917     35.760917     71.521834
     -3.788789     28.036705     28.036705     56.073409
     -3.778779     22.566094     22.566094     45.132187
     -3.768769     19.570124     19.570124     39.140247
     -3.758759     18.729838     18.729838     37.459676
     -3.748749     19.339721     19.339721     38.679441
     -3.738739     20.540569     20.540569     41.081138
     -3.728729     21.565367     21.565367     43.130735
     -3.718719     21.940702     21.940702     43.881404
     -3.708709     21.600465     21.600465     43.200930
     -3.698699     20.885262     20.885262     41.770523
     -3.688689     20.422696     20.422696     40.845393
     -3.678679     20.912551     20.912551     41.825103
     -3.668669     22.873159     22.873159     45.746318
     -3.658659     26.429363     26.429363     52.858725
     -3.648649     31.222048     31.222048     62.444096
     -3.638639     36.483315     36.483315     72.966630
     -3.628629     41.256866     41.256866     82.513732
     -3.618619     44.679043     44.679043     89.358086
     -3.608609     46.209596     46.209596     92.419191
     -3.598599     45.731385     45.731385     91.462769
     -3.588589     43.506681     43.506681     87.013362
     -3.578579     40.040041     40.040041     80.080083
     -3.568569     35.917874     35.917874     71.835749
     -3.558559     31.673335     31.673335     63.346671
     -3.548549     27.693116     27.693116     55.386233
     -3.538539     24.168600     24.168600     48.337199
     -3.528529     21.097632     21.097632     42.195263
     -3.518519     18.343024     18.343024     36.686048
     -3.508509     15.735244     15.735244     31.470487
     -3.498498     13.180489     13.180489     26.360979
     -3.488488     10.726205     10.726205     21.452410
     -3.478478      8.555988      8.555988     17.111977
     -3.468468      6.921530      6.921530     13.843059
     -3.458458      6.045738      6.045738     12.091475
     -3.448448      6.035180      6.035180     12.070360
     -3.438438      6.828100      6.828100     13.656199
     -3.428428      8.191312      8.191312     16.382625
     -3.418418      9.771010      9.771010     19.542020
     -3.408408     11.192419     11.192419     22.384837
     -3.398398     12.185057     12.185057     24.370114
     -3.388388     12.690419     12.690419     25.380839
     -3.378378     12.904192     12.904192     25.808385
     -3.368368     13.226976     13.226976     26.453951
     -3.358358     14.137484     14.137484     28.274969
     -3.348348     16.035938     16.035938     32.071876
     -3.338338     19.111481     19.111481     38.222962
     -3.328328     23.266247     23.266247     46.532493
     -3.318318     28.101333     28.101333     56.202666
     -3.308308     32.958859     32.958859     65.917717
     -3.298298     37.021122     37.021122     74.042244
     -3.288288     39.471252     39.471252     78.942503
     -3.278278     39.698116     39.698116     79.396232
     -3.268268     37.487275     37.487275     74.974551
     -3.258258     33.114530     33.114530     66.229059
     -3.248248     27.283194     27.283194     54.566387
     -3.238238     20.917325     20.917325     41.834650
     -3.228228     14.896455     14.896455     29.792909
     -3.218218      9.842690      9.842690     19.685380
     -3.208208      6.033943      6.033943     12.067887
     -3.198198      3.447617      3.447617      6.895234
     -3.188188      1.883843      1.883843      3.767687
     -3.178178      1.102972      1.102972      2.205945
     -3.168168      0.932237      0.932237      1.864474
     -3.158158      1.326329      1.326329      2.652657
     -3.148148      2.384458      2.384458      4.768915
     -3.138138      4.327198      4.327198      8.654396
     -3.128128      7.429682      7.429682     14.859363
     -3.118118     11.908508     11.908508     23.817016
     -3.108108     17.777474     17.777474     35.554949
     -3.098098     24.717409     24.717409     49.434819
     -3.088088     32.028418     32.028418     64.056835
     -3.078078     38.723291     38.723291     77.446582
     -3.068068     43.767119     43.767119     87.534239
     -3.058058     46.389338     46.389338     92.778677
     -3.048048     46.337554     46.337554     92.675108
     -3.038038     43.952575     43.952575     87.905149
     -3.028028     40.026767     40.026767     80.053534
     -3.018018     35.516599     35.516599     71.033197
     -3.008008     31.246760     31.246760     62.493520
     -2.997998     27.729111     27.729111     55.458222
     -2.987988     25.143741     25.143741     50.287481
     -2.977978     23.447272     23.447272     46.894544
     -2.967968     22.530174     22.530174     45.060349
     -2.957958     22.346530     22.346530     44.693060
     -2.947948     22.965903     22.965903     45.931806
     -2.937938     24.529675     24.529675     49.059351
     -2.927928     27.129987     27.129987     54.259973
     -2.917918     30.666128     30.666128     61.332256
     -2.907908     34.755700     34.755700     69.511399
     -2.897898     38.764772     38.764772     77.529545
     -2.887888     41.967804     41.967804     83.935607
     -2.877878     43.778424     43.778424     87.556847
     -2.867868     43.947270     43.947270     87.894541
     -2.857858     42.632178     42.632178     85.264356
     -2.847848     40.306612     40.306612     80.613223
     -2.837838     37.551454     37.551454     75.102907
     -2.827828     34.830421     34.830421     69.660842
     -2.817818     32.352318     32.352318     64.704635
     -2.807808     30.074265     30.074265     60.148530
     -2.797798     27.826162     27.826162     55.652325
     -2.787788     25.477018     25.477018     50.954035
     -2.777778     23.049086     23.049086     46.098173
     -2.767768     20.722435     20.722435     41.444871
     -2.757758     18.739147     18.739147     37.478295
     -2.747748     17.274824     17.274824     34.549649
     -2.737738     16.361201     16.361201     32.722402
     -2.727728     15.907577     15.907577     31.815154
     -2.717718     15.802183     15.802183     31.604366
     -2.707708     16.019776     16.019776     32.039553
     -2.697698     16.655512     16.655512     33.311023
     -2.687688     17.854003     17.854003     35.708006
     -2.677678     19.675865     19.675865     39.351730
     -2.667668     21.992577     21.992577     43.985154
     -2.657658     24.488777     24.488777     48.977555
     -2.647648     26.783260     26.783260     53.566521
     -2.637638     28.599964     28.599964     57.199928
     -2.627628     29.883855     29.883855     59.767710
     -2.617618     30.791411     30.791411     61.582823
     -2.607608     31.568145     31.568145     63.136290
     -2.597598     32.396489     32.396489     64.792977
     -2.587588     33.305363     33.305363     66.610725
     -2.577578     34.176636     34.176636     68.353273
     -2.567568     34.813184     34.813184     69.626368
     -2.557558     35.005770     35.005770     70.011540
     -2.547548     34.566858     34.566858     69.133716
     -2.537538     33.350731     33.350731     66.701462
     -2.527528     31.297832     31.297832     62.595665
     -2.517518     28.509224     28.509224     57.018449
     -2.507508     25.306886     25.306886     50.613772
     -2.497497     22.217258     22.217258     44.434515
     -2.487487     19.850218     19.850218     39.700437
     -2.477477     18.709632     18.709632     37.419263
     -2.467467     19.019122     19.019122     38.038243
     -2.457457     20.647044     20.647044     41.294087
     -2.447447     23.169380     23.169380     46.338761
     -2.437437     26.044717     26.044717     52.089434
     -2.427427     28.823525     28.823525     57.647049
     -2.417417     31.297701     31.297701     62.595401
     -2.407407     33.522580     33.522580     67.045159
     -2.397397     35.701370     35.701370     71.402739
     -2.387387     37.986352     37.986352     75.972705
     -2.377377     40.293699     40.293699     80.587398
     -2.367367     42.229156     42.229156     84.458313
     -2.357357     43.176505     43.176505     86.353011
     -2.347347     42.525665     42.525665     85.051330
     -2.337337     39.945647     39.945647     79.891294
     -2.327327     35.577493     35.577493     71.154986
     -2.317317     30.055249     30.055249     60.110498
     -2.307307     24.344722     24.344722     48.689444
     -2.297297     19.473852     19.473852     38.947703
     -2.287287     16.267166     16.267166     32.534331
     -2.277277     15.174823     15.174823     30.349645
     -2.267267     16.229060     16.229060     32.458119
     -2.257257     19.107397     19.107397     38.214794
     -2.247247     23.256360     23.256360     46.512721
     -2.237237     28.029103     28.029103     56.058206
     -2.227227     32.800845     32.800845     65.601690
     -2.217217     37.039700     37.039700     74.079400
     -2.207207     40.328632     40.328632     80.657265
     -2.197197     42.356674     42.356674     84.713349
     -2.187187     42.913340     42.913340     85.826679
     -2.177177     41.914156     41.914156     83.828313
     -2.167167     39.454033     39.454033     78.908066
     -2.157157     35.847477     35.847477     71.694954
     -2.147147     31.601773     31.601773     63.203547
     -2.137137     27.299550     27.299550     54.599099
     -2.127127     23.426189     23.426189     46.852377
     -2.117117     20.223771     20.223771     40.447541
     -2.107107     17.649197     17.649197     35.298393
     -2.097097     15.457960     15.457960     30.915920
     -2.087087     13.363858     13.363858     26.727717
     -2.077077     11.186829     11.186829     22.373658
     -2.067067      8.918566      8.918566     17.837132
     -2.057057      6.691155      6.691155     13.382311
     -2.047047      4.687452      4.687452      9.374904
     -2.037037      3.051667      3.051667      6.103333
     -2.027027      1.841569      1.841569      3.683137
     -2.017017      1.030172      1.030172      2.060345
     -2.007007      0.539030      0.539030      1.078060
     -1.996997      0.278524      0.278524      0.557048
     -1.986987      0.178820      0.178820      0.357639
     -1.976977      0.207281      0.207281      0.414562
     -1.966967      0.375524      0.375524      0.751048
     -1.956957      0.739504      0.739504      1.479007
     -1.946947      1.391946      1.391946      2.783891
     -1.936937      2.442943      2.442943      4.885885
     -1.926927      3.985916      3.985916      7.971832
     -1.916917      6.053610      6.053610     12.107219
     -1.906907      8.578682      8.578682     17.157363
     -1.896897     11.378429     11.378429     22.756859
     -1.886887     14.177082     14.177082     28.354165
     -1.876877     16.663220     16.663220     33.326440
     -1.866867     18.563656     18.563656     37.127311
     -1.856857     19.708932     19.708932     39.417865
     -1.846847     20.071264     20.071264     40.142527
     -1.836837     19.765925     19.765925     39.531850
     -1.826827     19.014418     19.014418     38.028836
     -1.816817     18.073872     18.073872     36.147744
     -1.806807     17.148767     17.148767     34.297534
     -1.796797     16.316906     16.316906     32.633811
     -1.786787     15.507567     15.507567     31.015134
     -1.776777     14.551789     14.551789     29.103578
     -1.766767     13.286798     13.286798     26.573596
     -1.756757     11.663356     11.663356     23.326713
     -1.746747      9.801628      9.801628     19.603256
     -1.736737      7.971209      7.971209     15.942417
     -1.726727      6.511911      6.511911     13.023822
     -1.716717      5.735714      5.735714     11.471427
     -1.706707      5.846432      5.846432     11.692864
     -1.696697      6.893915      6.893915     13.787829
     -1.686687      8.762967      8.762967     17.525933
     -1.676677     11.192195     11.192195     22.384391
     -1.666667     13.818666     13.818666     27.637331
     -1.656657     16.241704     16.241704     32.483407
     -1.646647     18.092902     18.092902     36.185803
     -1.636637     19.096801     19.096801     38.193603
     -1.626627     19.112639     19.112639     38.225279
