# EIG2DOS: Utility for SIESTA to obtain the electronic density of states
#  E. Artacho, Apr 1999, A. Garcia, Apr 2012
#  Nick R. Papior, Feb 2017
# ------------------------------------------
# Eigenvalues calculated from a non-polarized calculation
# Eigenvalues read from siesta.EIG
# Kpoint weights read from siesta.KP
# Using smearing parameter:   0.0500
# Using 1000 points in the energy range
# Selected bands: 1 to: 2981
# Emin, Emax in file for selected band(s):    -27.0316213    218.3153370
# Nbands, Nspin, Nk   =   2981     1     1
# E_F                 =    -4.2932 eV --> (shifted to ZERO)
# Broadening          =     0.0500 eV
#
#        E            N(up)  (=)   N(down)         Ntot
     -5.000000     44.790304     44.790304     89.580607
     -4.989990     46.909649     46.909649     93.819297
     -4.979980     47.933388     47.933388     95.866777
     -4.969970     47.845874     47.845874     95.691747
     -4.959960     46.683879     46.683879     93.367758
     -4.949950     44.549356     44.549356     89.098711
     -4.939940     41.638272     41.638272     83.276544
     -4.929930     38.268273     38.268273     76.536545
     -4.919920     34.891057     34.891057     69.782114
     -4.909910     32.079129     32.079129     64.158258
     -4.899900     30.472976     30.472976     60.945953
     -4.889890     30.669940     30.669940     61.339881
     -4.879880     33.048754     33.048754     66.097507
     -4.869870     37.565626     37.565626     75.131253
     -4.859860     43.611036     43.611036     87.222073
     -4.849850     50.036075     50.036075    100.072150
     -4.839840     55.405213     55.405213    110.810425
     -4.829830     58.418462     58.418462    116.836924
     -4.819820     58.335621     58.335621    116.671243
     -4.809810     55.208307     55.208307    110.416615
     -4.799800     49.812662     49.812662     99.625323
     -4.789790     43.327975     43.327975     86.655950
     -4.779780     36.927029     36.927029     73.854058
     -4.769770     31.460274     31.460274     62.920548
     -4.759760     27.332236     27.332236     54.664473
     -4.749750     24.554161     24.554161     49.108321
     -4.739740     22.886076     22.886076     45.772152
     -4.729730     21.980003     21.980003     43.960005
     -4.719720     21.477710     21.477710     42.955419
     -4.709710     21.059997     21.059997     42.119994
     -4.699700     20.467568     20.467568     40.935137
     -4.689690     19.517168     19.517168     39.034336
     -4.679680     18.128795     18.128795     36.257589
     -4.669670     16.365297     16.365297     32.730593
     -4.659660     14.469076     14.469076     28.938152
     -4.649650     12.870117     12.870117     25.740234
     -4.639640     12.141939     12.141939     24.283878
     -4.629630     12.896057     12.896057     25.792113
     -4.619620     15.624473     15.624473     31.248946
     -4.609610     20.519790     20.519790     41.039579
     -4.599600     27.323572     27.323572     54.647143
     -4.589590     35.269795     35.269795     70.539591
     -4.579580     43.184030     43.184030     86.368059
     -4.569570     49.753608     49.753608     99.507217
     -4.559560     53.905880     53.905880    107.811760
     -4.549550     55.159302     55.159302    110.318603
     -4.539540     53.795653     53.795653    107.591305
     -4.529530     50.764339     50.764339    101.528678
     -4.519520     47.346047     47.346047     94.692095
     -4.509510     44.711389     44.711389     89.422779
     -4.499499     43.552847     43.552847     87.105693
     -4.489489     43.926057     43.926057     87.852115
     -4.479479     45.336545     45.336545     90.673090
     -4.469469     47.003573     47.003573     94.007146
     -4.459459     48.171968     48.171968     96.343936
     -4.449449     48.345943     48.345943     96.691886
     -4.439439     47.374896     47.374896     94.749792
     -4.429429     45.397670     45.397670     90.795341
     -4.419419     42.711905     42.711905     85.423809
     -4.409409     39.652358     39.652358     79.304717
     -4.399399     36.531787     36.531787     73.063574
     -4.389389     33.641456     33.641456     67.282913
     -4.379379     31.263883     31.263883     62.527767
     -4.369369     29.648768     29.648768     59.297536
     -4.359359     28.944138     28.944138     57.888276
     -4.349349     29.124898     29.124898     58.249795
     -4.339339     29.978607     29.978607     59.957214
     -4.329329     31.177807     31.177807     62.355615
     -4.319319     32.412403     32.412403     64.824805
     -4.309309     33.516119     33.516119     67.032239
     -4.299299     34.523882     34.523882     69.047763
     -4.289289     35.634497     35.634497     71.268993
     -4.279279     37.096528     37.096528     74.193057
     -4.269269     39.061839     39.061839     78.123677
     -4.259259     41.458978     41.458978     82.917955
     -4.249249     43.936438     43.936438     87.872875
     -4.239239     45.914507     45.914507     91.829014
     -4.229229     46.753387     46.753387     93.506774
     -4.219219     45.991334     45.991334     91.982667
     -4.209209     43.553659     43.553659     87.107319
     -4.199199     39.823667     39.823667     79.647333
     -4.189189     35.523845     35.523845     71.047690
     -4.179179     31.455242     31.455242     62.910484
     -4.169169     28.221868     28.221868     56.443736
     -4.159159     26.072008     26.072008     52.144016
     -4.149149     24.917903     24.917903     49.835805
     -4.139139     24.498023     24.498023     48.996046
     -4.129129     24.580121     24.580121     49.160242
     -4.119119     25.096340     25.096340     50.192679
     -4.109109     26.145131     26.145131     52.290262
     -4.099099     27.862533     27.862533     55.725065
     -4.089089     30.231522     30.231522     60.463044
     -4.079079     32.938192     32.938192     65.876385
     -4.069069     35.373895     35.373895     70.747791
     -4.059059     36.814835     36.814835     73.629670
     -4.049049     36.710786     36.710786     73.421572
     -4.039039     34.940579     34.940579     69.881158
     -4.029029     31.897513     31.897513     63.795026
     -4.019019     28.357868     28.357868     56.715736
     -4.009009     25.205235     25.205235     50.410470
     -3.998999     23.154570     23.154570     46.309140
     -3.988989     22.599750     22.599750     45.199500
     -3.978979     23.618720     23.618720     47.237440
     -3.968969     26.078058     26.078058     52.156117
     -3.958959     29.744058     29.744058     59.488117
     -3.948949     34.341705     34.341705     68.683411
     -3.938939     39.566979     39.566979     79.133959
     -3.928929     45.097017     45.097017     90.194034
     -3.918919     50.630058     50.630058    101.260116
     -3.908909     55.941123     55.941123    111.882245
     -3.898899     60.904260     60.904260    121.808520
     -3.888889     65.440865     65.440865    130.881731
     -3.878879     69.403104     69.403104    138.806208
     -3.868869     72.457607     72.457607    144.915213
     -3.858859     74.056747     74.056747    148.113494
     -3.848849     73.552441     73.552441    147.104882
     -3.838839     70.432858     70.432858    140.865717
     -3.828829     64.585948     64.585948    129.171896
     -3.818819     56.461699     56.461699    112.923398
     -3.808809     47.041564     47.041564     94.083129
     -3.798799     37.611415     37.611415     75.222830
     -3.788789     29.424268     29.424268     58.848536
     -3.778779     23.381588     23.381588     46.763176
     -3.768769     19.840632     19.840632     39.681263
     -3.758759     18.592765     18.592765     37.185530
     -3.748749     18.993389     18.993389     37.986779
     -3.738739     20.185605     20.185605     40.371210
     -3.728729     21.350486     21.350486     42.700972
     -3.718719     21.924780     21.924780     43.849559
     -3.708709     21.739994     21.739994     43.479988
     -3.698699     21.051597     21.051597     42.103194
     -3.688689     20.446452     20.446452     40.892904
     -3.678679     20.643986     20.643986     41.287972
     -3.668669     22.239922     22.239922     44.479844
     -3.658659     25.470535     25.470535     50.941070
     -3.648649     30.083586     30.083586     60.167171
     -3.638639     35.374759     35.374759     70.749518
     -3.628629     40.386483     40.386483     80.772967
     -3.618619     44.194634     44.194634     88.389268
     -3.608609     46.167919     46.167919     92.335837
     -3.598599     46.102687     46.102687     92.205374
     -3.588589     44.203110     44.203110     88.406220
     -3.578579     40.949196     40.949196     81.898393
     -3.568569     36.928295     36.928295     73.856589
     -3.558559     32.689794     32.689794     65.379588
     -3.548549     28.646054     28.646054     57.292108
     -3.538539     25.020232     25.020232     50.040464
     -3.528529     21.842190     21.842190     43.684380
     -3.518519     18.997460     18.997460     37.994921
     -3.508509     16.321602     16.321602     32.643204
     -3.498498     13.707346     13.707346     27.414692
     -3.488488     11.178234     11.178234     22.356467
     -3.478478      8.896406      8.896406     17.792812
     -3.468468      7.105674      7.105674     14.211348
     -3.458458      6.039893      6.039893     12.079786
     -3.448448      5.834249      5.834249     11.668499
     -3.438438      6.466804      6.466804     12.933608
     -3.428428      7.744429      7.744429     15.488857
     -3.418418      9.339491      9.339491     18.678982
     -3.408408     10.876088     10.876088     21.752177
     -3.398398     12.048867     12.048867     24.097735
     -3.388388     12.736353     12.736353     25.472705
     -3.378378     13.060457     13.060457     26.120914
     -3.368368     13.359462     13.359462     26.718925
     -3.358358     14.079965     14.079965     28.159931
     -3.348348     15.630805     15.630805     31.261610
     -3.338338     18.253433     18.253433     36.506867
     -3.328328     21.942999     21.942999     43.885998
     -3.318318     26.423008     26.423008     52.846015
     -3.308308     31.162116     31.162116     62.324231
     -3.298298     35.433219     35.433219     70.866439
     -3.288288     38.431282     38.431282     76.862564
     -3.278278     39.455748     39.455748     78.911496
     -3.268268     38.119072     38.119072     76.238145
     -3.258258     34.497398     34.497398     68.994796
     -3.248248     29.139370     29.139370     58.278739
     -3.238238     22.909798     22.909798     45.819596
     -3.228228     16.730613     16.730613     33.461226
     -3.218218     11.332931     11.332931     22.665861
     -3.208208      7.117808      7.117808     14.235616
     -3.198198      4.156964      4.156964      8.313929
     -3.188188      2.296838      2.296838      4.593676
     -3.178178      1.298404      1.298404      2.596809
     -3.168168      0.955856      0.955856      1.911712
     -3.158158      1.167555      1.167555      2.335110
     -3.148148      1.957524      1.957524      3.915048
     -3.138138      3.454658      3.454658      6.909316
     -3.128128      5.835470      5.835470     11.670940
     -3.118118      9.236926      9.236926     18.473853
     -3.108108     13.656460     13.656460     27.312921
     -3.098098     18.873004     18.873004     37.746008
     -3.088088     24.431777     24.431777     48.863555
     -3.078078     29.721361     29.721361     59.442723
     -3.068068     34.131044     34.131044     68.262088
     -3.058058     37.227339     37.227339     74.454678
     -3.048048     38.864032     38.864032     77.728065
     -3.038038     39.166293     39.166293     78.332585
     -3.028028     38.400619     38.400619     76.801239
     -3.018018     36.815551     36.815551     73.631102
     -3.008008     34.559338     34.559338     69.118675
     -2.997998     31.728406     31.728406     63.456813
     -2.987988     28.507534     28.507534     57.015069
     -2.977978     25.295099     25.295099     50.590199
     -2.967968     22.712074     22.712074     45.424148
     -2.957958     21.464503     21.464503     42.929006
     -2.947948     22.114621     22.114621     44.229241
     -2.937938     24.862828     24.862828     49.725655
     -2.927928     29.433200     29.433200     58.866400
     -2.917918     35.106662     35.106662     70.213325
     -2.907908     40.889134     40.889134     81.778269
     -2.897898     45.759137     45.759137     91.518274
     -2.887888     48.919174     48.919174     97.838348
     -2.877878     49.977814     49.977814     99.955629
     -2.867868     49.011545     49.011545     98.023090
     -2.857858     46.491559     46.491559     92.983119
     -2.847848     43.102235     43.102235     86.204470
     -2.837838     39.513737     39.513737     79.027475
     -2.827828     36.188293     36.188293     72.376585
     -2.817818     33.288420     33.288420     66.576841
     -2.807808     30.715336     30.715336     61.430672
     -2.797798     28.250290     28.250290     56.500580
     -2.787788     25.725698     25.725698     51.451396
     -2.777778     23.140932     23.140932     46.281864
     -2.767768     20.668823     20.668823     41.337646
     -2.757758     18.559143     18.559143     37.118286
     -2.747748     17.002378     17.002378     34.004757
     -2.737738     16.038040     16.038040     32.076081
     -2.727728     15.562664     15.562664     31.125328
     -2.717718     15.429169     15.429169     30.858338
     -2.707708     15.569639     15.569639     31.139278
     -2.697698     16.056254     16.056254     32.112507
     -2.687688     17.053483     17.053483     34.106966
     -2.677678     18.686453     18.686453     37.372906
     -2.667668     20.909548     20.909548     41.819096
     -2.657658     23.465422     23.465422     46.930843
     -2.647648     25.970297     25.970297     51.940593
     -2.637638     28.080086     28.080086     56.160172
     -2.627628     29.637747     29.637747     59.275494
     -2.617618     30.713874     30.713874     61.427748
     -2.607608     31.523151     31.523151     63.046301
     -2.597598     32.278699     32.278699     64.557398
     -2.587588     33.077187     33.077187     66.154375
     -2.577578     33.870719     33.870719     67.741438
     -2.567568     34.512037     34.512037     69.024074
     -2.557558     34.816448     34.816448     69.632895
     -2.547548     34.598329     34.598329     69.196659
     -2.537538     33.689279     33.689279     67.378558
     -2.527528     31.975746     31.975746     63.951492
     -2.517518     29.474515     29.474515     58.949029
     -2.507508     26.413252     26.413252     52.826504
     -2.497497     23.250527     23.250527     46.501054
     -2.487487     20.589336     20.589336     41.178672
     -2.477477     18.999406     18.999406     37.998812
     -2.467467     18.822908     18.822908     37.645816
     -2.457457     20.055965     20.055965     40.111930
     -2.447447     22.365073     22.365073     44.730146
     -2.437437     25.233473     25.233473     50.466947
     -2.427427     28.170723     28.170723     56.341447
     -2.417417     30.888126     30.888126     61.776252
     -2.407407     33.357672     33.357672     66.715343
     -2.397397     35.727253     35.727253     71.454506
     -2.387387     38.135542     38.135542     76.271084
     -2.377377     40.522174     40.522174     81.044348
     -2.367367     42.536120     42.536120     85.072240
     -2.357357     43.601622     43.601622     87.203243
     -2.347347     43.125744     43.125744     86.251488
     -2.337337     40.759977     40.759977     81.519954
     -2.327327     36.596905     36.596905     73.193811
     -2.317317     31.210195     31.210195     62.420389
     -2.307307     25.519172     25.519172     51.038344
     -2.297297     20.538295     20.538295     41.076591
     -2.287287     17.114100     17.114100     34.228201
     -2.277277     15.740617     15.740617     31.481233
     -2.267267     16.495807     16.495807     32.991614
     -2.257257     19.090033     19.090033     38.180066
     -2.247247     22.986545     22.986545     45.973089
     -2.237237     27.545917     27.545917     55.091834
     -2.227227     32.151823     32.151823     64.303647
     -2.217217     36.288438     36.288438     72.576875
     -2.207207     39.560655     39.560655     79.121310
     -2.197197     41.675186     41.675186     83.350372
     -2.187187     42.421110     42.421110     84.842220
     -2.177177     41.685684     41.685684     83.371367
     -2.167167     39.509633     39.509633     79.019266
     -2.157157     36.143427     36.143427     72.286855
     -2.147147     32.044969     32.044969     64.089937
     -2.137137     27.782932     27.782932     55.565863
     -2.127127     23.869160     23.869160     47.738319
     -2.117117     20.597878     20.597878     41.195756
     -2.107107     17.977038     17.977038     35.954076
     -2.097097     15.788177     15.788177     31.576354
     -2.087087     13.737805     13.737805     27.475610
     -2.077077     11.615149     11.615149     23.230299
     -2.067067      9.377745      9.377745     18.755489
     -2.057057      7.137605      7.137605     14.275209
     -2.047047      5.078090      5.078090     10.156180
     -2.037037      3.359496      3.359496      6.718993
     -2.027027      2.060589      2.060589      4.121179
     -2.017017      1.170876      1.170876      2.341752
     -2.007007      0.619490      0.619490      1.238981
     -1.996997      0.315827      0.315827      0.631654
     -1.986987      0.183101      0.183101      0.366202
     -1.976977      0.178361      0.178361      0.356723
     -1.966967      0.301404      0.301404      0.602808
     -1.956957      0.596788      0.596788      1.193576
     -1.946947      1.149549      1.149549      2.299098
     -1.936937      2.070802      2.070802      4.141604
     -1.926927      3.468753      3.468753      6.937506
     -1.916917      5.406165      5.406165     10.812331
     -1.906907      7.855212      7.855212     15.710424
     -1.896897     10.668710     10.668710     21.337421
     -1.886887     13.585813     13.585813     27.171626
     -1.876877     16.278059     16.278059     32.556117
     -1.866867     18.424362     18.424362     36.848724
     -1.856857     19.791208     19.791208     39.582415
     -1.846847     20.292908     20.292908     40.585815
     -1.836837     20.013556     20.013556     40.027111
     -1.826827     19.181413     19.181413     38.362826
     -1.816817     18.096880     18.096880     36.193761
     -1.806807     17.030554     17.030554     34.061108
     -1.796797     16.126451     16.126451     32.252902
     -1.786787     15.354626     15.354626     30.709252
     -1.776777     14.542323     14.542323     29.084646
     -1.766767     13.474346     13.474346     26.948692
     -1.756757     12.013931     12.013931     24.027862
     -1.746747     10.183458     10.183458     20.366916
     -1.736737      8.169896      8.169896     16.339792
     -1.726727      6.264732      6.264732     12.529464
     -1.716717      4.780444      4.780444      9.560889
     -1.706707      3.985413      3.985413      7.970827
     -1.696697      4.072200      4.072200      8.144401
     -1.686687      5.144337      5.144337     10.288673
     -1.676677      7.196699      7.196699     14.393399
     -1.666667     10.080018     10.080018     20.160035
     -1.656657     13.468034     13.468034     26.936067
     -1.646647     16.864373     16.864373     33.728747
     -1.636637     19.678693     19.678693     39.357386
     -1.626627     21.368494     21.368494     42.736988
