# EIG2DOS: Utility for SIESTA to obtain the electronic density of states
#  E. Artacho, Apr 1999, A. Garcia, Apr 2012
#  Nick R. Papior, Feb 2017
# ------------------------------------------
# Eigenvalues calculated from a non-polarized calculation
# Eigenvalues read from siesta.EIG
# Kpoint weights read from siesta.KP
# Using smearing parameter:   0.0500
# Using 1000 points in the energy range
# Selected bands: 1 to: 2981
# Emin, Emax in file for selected band(s):    -27.3286176    218.3950740
# Nbands, Nspin, Nk   =   2981     1     1
# E_F                 =    -4.1988 eV --> (shifted to ZERO)
# Broadening          =     0.0500 eV
#
#        E            N(up)  (=)   N(down)         Ntot
     -5.000000     30.250259     30.250259     60.500518
     -4.989990     35.421808     35.421808     70.843615
     -4.979980     40.549159     40.549159     81.098319
     -4.969970     44.768036     44.768036     89.536072
     -4.959960     47.275242     47.275242     94.550484
     -4.949950     47.593071     47.593071     95.186143
     -4.939940     45.735093     45.735093     91.470186
     -4.929930     42.216774     42.216774     84.433548
     -4.919920     37.926837     37.926837     75.853674
     -4.909910     33.922917     33.922917     67.845835
     -4.899900     31.214804     31.214804     62.429608
     -4.889890     30.567417     30.567417     61.134835
     -4.879880     32.333329     32.333329     64.666658
     -4.869870     36.334737     36.334737     72.669475
     -4.859860     41.841744     41.841744     83.683488
     -4.849850     47.697320     47.697320     95.394639
     -4.839840     52.594566     52.594566    105.189132
     -4.829830     55.435861     55.435861    110.871722
     -4.819820     55.645817     55.645817    111.291635
     -4.809810     53.314678     53.314678    106.629356
     -4.799800     49.120051     49.120051     98.240101
     -4.789790     44.072868     44.072868     88.145736
     -4.779780     39.201806     39.201806     78.403612
     -4.769770     35.294485     35.294485     70.588970
     -4.759760     32.762033     32.762033     65.524066
     -4.749750     31.626850     31.626850     63.253701
     -4.739740     31.592535     31.592535     63.185070
     -4.729730     32.152386     32.152386     64.304773
     -4.719720     32.711402     32.711402     65.422805
     -4.709710     32.710906     32.710906     65.421812
     -4.699700     31.744670     31.744670     63.489340
     -4.689690     29.648584     29.648584     59.297168
     -4.679680     26.545260     26.545260     53.090521
     -4.669670     22.834453     22.834453     45.668906
     -4.659660     19.133693     19.133693     38.267385
     -4.649650     16.182190     16.182190     32.364380
     -4.639640     14.720820     14.720820     29.441639
     -4.629630     15.355614     15.355614     30.711227
     -4.619620     18.411844     18.411844     36.823687
     -4.609610     23.799495     23.799495     47.598991
     -4.599600     30.935735     30.935735     61.871470
     -4.589590     38.785383     38.785383     77.570766
     -4.579580     46.059845     46.059845     92.119689
     -4.569570     51.550508     51.550508    103.101017
     -4.559560     54.492267     54.492267    108.984535
     -4.549550     54.808467     54.808467    109.616934
     -4.539540     53.119272     53.119272    106.238543
     -4.529530     50.494545     50.494545    100.989089
     -4.519520     48.048525     48.048525     96.097051
     -4.509510     46.544101     46.544101     93.088201
     -4.499499     46.164310     46.164310     92.328620
     -4.489489     46.527540     46.527540     93.055081
     -4.479479     46.914342     46.914342     93.828683
     -4.469469     46.589804     46.589804     93.179608
     -4.459459     45.080994     45.080994     90.161987
     -4.449449     42.308609     42.308609     84.617219
     -4.439439     38.550715     38.550715     77.101430
     -4.429429     34.293229     34.293229     68.586457
     -4.419419     30.059898     30.059898     60.119797
     -4.409409     26.298763     26.298763     52.597527
     -4.399399     23.347680     23.347680     46.695360
     -4.389389     21.445752     21.445752     42.891504
     -4.379379     20.737317     20.737317     41.474634
     -4.369369     21.241273     21.241273     42.482547
     -4.359359     22.806936     22.806936     45.613872
     -4.349349     25.107674     25.107674     50.215347
     -4.339339     27.709975     27.709975     55.419949
     -4.329329     30.207823     30.207823     60.415647
     -4.319319     32.365341     32.365341     64.730682
     -4.309309     34.196531     34.196531     68.393062
     -4.299299     35.936576     35.936576     71.873152
     -4.289289     37.906921     37.906921     75.813842
     -4.279279     40.322348     40.322348     80.644696
     -4.269269     43.116635     43.116635     86.233269
     -4.259259     45.867043     45.867043     91.734086
     -4.249249     47.871569     47.871569     95.743139
     -4.239239     48.375630     48.375630     96.751260
     -4.229229     46.872006     46.872006     93.744012
     -4.219219     43.345669     43.345669     86.691337
     -4.209209     38.342351     38.342351     76.684701
     -4.199199     32.815345     32.815345     65.630689
     -4.189189     27.812426     27.812426     55.624852
     -4.179179     24.142142     24.142142     48.284283
     -4.169169     22.161822     22.161822     44.323645
     -4.159159     21.761640     21.761640     43.523280
     -4.149149     22.523413     22.523413     45.046825
     -4.139139     23.960398     23.960398     47.920795
     -4.129129     25.722910     25.722910     51.445821
     -4.119119     27.682936     27.682936     55.365872
     -4.109109     29.870693     29.870693     59.741387
     -4.099099     32.305065     32.305065     64.610130
     -4.089089     34.814295     34.814295     69.628590
     -4.079079     36.957795     36.957795     73.915589
     -4.069069     38.117190     38.117190     76.234380
     -4.059059     37.735261     37.735261     75.470522
     -4.049049     35.591075     35.591075     71.182150
     -4.039039     31.966520     31.966520     63.933039
     -4.029029     27.611041     27.611041     55.222082
     -4.019019     23.518376     23.518376     47.036752
     -4.009009     20.623883     20.623883     41.247766
     -3.998999     19.557448     19.557448     39.114895
     -3.988989     20.538372     20.538372     41.076744
     -3.978979     23.416145     23.416145     46.832290
     -3.968969     27.797879     27.797879     55.595757
     -3.958959     33.189123     33.189123     66.378246
     -3.948949     39.102461     39.102461     78.204922
     -3.938939     45.126278     45.126278     90.252557
     -3.928929     50.964512     50.964512    101.929025
     -3.918919     56.449900     56.449900    112.899799
     -3.908909     61.517064     61.517064    123.034128
     -3.898899     66.123903     66.123903    132.247807
     -3.888889     70.138625     70.138625    140.277249
     -3.878879     73.246085     73.246085    146.492171
     -3.868869     74.938757     74.938757    149.877515
     -3.858859     74.627186     74.627186    149.254373
     -3.848849     71.844919     71.844919    143.689837
     -3.838839     66.468068     66.468068    132.936137
     -3.828829     58.852555     58.852555    117.705110
     -3.818819     49.822566     49.822566     99.645131
     -3.808809     40.505163     40.505163     81.010325
     -3.798799     32.066673     32.066673     64.133345
     -3.788789     25.439250     25.439250     50.878500
     -3.778779     21.121223     21.121223     42.242446
     -3.768769     19.101846     19.101846     38.203693
     -3.758759     18.918753     18.918753     37.837505
     -3.748749     19.821103     19.821103     39.642207
     -3.738739     20.990504     20.990504     41.981009
     -3.728729     21.764563     21.764563     43.529126
     -3.718719     21.810931     21.810931     43.621862
     -3.708709     21.210089     21.210089     42.420178
     -3.698699     20.422365     20.422365     40.844730
     -3.688689     20.139176     20.139176     40.278352
     -3.678679     21.049525     21.049525     42.099050
     -3.668669     23.584950     23.584950     47.169900
     -3.658659     27.727135     27.727135     55.454269
     -3.648649     32.955807     32.955807     65.911614
     -3.638639     38.370935     38.370935     76.741869
     -3.628629     42.953072     42.953072     85.906145
     -3.618619     45.862445     45.862445     91.724890
     -3.608609     46.659520     46.659520     93.319039
     -3.598599     45.372004     45.372004     90.744008
     -3.588589     42.409962     42.409962     84.819925
     -3.578579     38.393265     38.393265     76.786530
     -3.568569     33.969873     33.969873     67.939746
     -3.558559     29.675473     29.675473     59.350947
     -3.548549     25.849272     25.849272     51.698544
     -3.538539     22.604945     22.604945     45.209891
     -3.528529     19.857555     19.857555     39.715110
     -3.518519     17.405048     17.405048     34.810095
     -3.508509     15.044751     15.044751     30.089502
     -3.498498     12.683378     12.683378     25.366755
     -3.488488     10.396109     10.396109     20.792217
     -3.478478      8.413982      8.413982     16.827963
     -3.468468      7.052776      7.052776     14.105552
     -3.458458      6.616677      6.616677     13.233354
     -3.448448      7.307014      7.307014     14.614028
     -3.438438      9.152211      9.152211     18.304422
     -3.428428     11.967934     11.967934     23.935869
     -3.418418     15.361235     15.361235     30.722470
     -3.408408     18.796268     18.796268     37.592537
     -3.398398     21.725155     21.725155     43.450310
     -3.388388     23.754546     23.754546     47.509092
     -3.378378     24.786383     24.786383     49.572765
     -3.368368     25.067088     25.067088     50.134175
     -3.358358     25.113183     25.113183     50.226366
     -3.348348     25.535476     25.535476     51.070953
     -3.338338     26.825583     26.825583     53.651167
     -3.328328     29.176148     29.176148     58.352297
     -3.318318     32.385492     32.385492     64.770983
     -3.308308     35.870910     35.870910     71.741821
     -3.298298     38.795315     38.795315     77.590631
     -3.288288     40.290938     40.290938     80.581876
     -3.278278     39.729198     39.729198     79.458396
     -3.268268     36.947709     36.947709     73.895418
     -3.258258     32.337244     32.337244     64.674489
     -3.248248     26.737832     26.737832     53.475663
     -3.238238     21.177611     21.177611     42.355222
     -3.228228     16.560101     16.560101     33.120202
     -3.218218     13.421041     13.421041     26.842081
     -3.208208     11.832804     11.832804     23.665608
     -3.198198     11.467044     11.467044     22.934089
     -3.188188     11.772374     11.772374     23.544748
     -3.178178     12.198407     12.198407     24.396813
     -3.168168     12.394910     12.394910     24.789820
     -3.158158     12.326999     12.326999     24.653998
     -3.148148     12.272219     12.272219     24.544437
     -3.138138     12.701246     12.701246     25.402492
     -3.128128     14.082030     14.082030     28.164060
     -3.118118     16.674031     16.674031     33.348061
     -3.108108     20.384978     20.384978     40.769957
     -3.098098     24.745055     24.745055     49.490109
     -3.088088     29.016113     29.016113     58.032227
     -3.078078     32.404745     32.404745     64.809491
     -3.068068     34.303034     34.303034     68.606068
     -3.058058     34.461817     34.461817     68.923634
     -3.048048     33.025542     33.025542     66.051084
     -3.038038     30.421398     30.421398     60.842797
     -3.028028     27.167012     27.167012     54.334025
     -3.018018     23.698003     23.698003     47.396006
     -3.008008     20.295246     20.295246     40.590493
     -2.997998     17.126235     17.126235     34.252470
     -2.987988     14.348919     14.348919     28.697837
     -2.977978     12.200003     12.200003     24.400005
     -2.967968     11.011516     11.011516     22.023033
     -2.957958     11.145920     11.145920     22.291841
     -2.947948     12.879263     12.879263     25.758526
     -2.937938     16.278204     16.278204     32.556408
     -2.927928     21.114546     21.114546     42.229093
     -2.917918     26.850812     26.850812     53.701623
     -2.907908     32.715271     32.715271     65.430542
     -2.897898     37.860930     37.860930     75.721860
     -2.887888     41.570636     41.570636     83.141271
     -2.877878     43.441964     43.441964     86.883927
     -2.867868     43.479747     43.479747     86.959494
     -2.857858     42.052777     42.052777     84.105554
     -2.847848     39.727229     39.727229     79.454457
     -2.837838     37.046856     37.046856     74.093712
     -2.827828     34.357146     34.357146     68.714291
     -2.817818     31.749184     31.749184     63.498369
     -2.807808     29.137274     29.137274     58.274548
     -2.797798     26.415110     26.415110     52.830220
     -2.787788     23.597328     23.597328     47.194655
     -2.777778     20.867832     20.867832     41.735663
     -2.767768     18.514434     18.514434     37.028867
     -2.757758     16.796669     16.796669     33.593337
     -2.747748     15.830876     15.830876     31.661752
     -2.737738     15.562034     15.562034     31.124068
     -2.727728     15.834313     15.834313     31.668626
     -2.717718     16.507357     16.507357     33.014715
     -2.707708     17.534954     17.534954     35.069907
     -2.697698     18.949162     18.949162     37.898324
     -2.687688     20.761301     20.761301     41.522602
     -2.677678     22.855451     22.855451     45.710901
     -2.667668     24.962997     24.962997     49.925993
     -2.657658     26.754290     26.754290     53.508581
     -2.647648     27.999637     27.999637     55.999275
     -2.637638     28.696761     28.696761     57.393521
     -2.627628     29.077960     29.077960     58.155921
     -2.617618     29.487780     29.487780     58.975560
     -2.607608     30.204941     30.204941     60.409881
     -2.597598     31.311040     31.311040     62.622079
     -2.587588     32.666575     32.666575     65.333150
     -2.577578     33.980404     33.980404     67.960809
     -2.567568     34.910606     34.910606     69.821212
     -2.557558     35.143365     35.143365     70.286729
     -2.547548     34.441730     34.441730     68.883460
     -2.537538     32.690096     32.690096     65.380192
     -2.527528     29.952319     29.952319     59.904638
     -2.517518     26.523815     26.523815     53.047630
     -2.507508     22.930562     22.930562     45.861123
     -2.497497     19.839874     19.839874     39.679748
     -2.487487     17.893266     17.893266     35.786532
     -2.477477     17.518689     17.518689     35.037379
     -2.467467     18.797926     18.797926     37.595851
     -2.457457     21.446247     21.446247     42.892494
     -2.447447     24.917007     24.917007     49.834014
     -2.437437     28.593029     28.593029     57.186059
     -2.427427     31.988814     31.988814     63.977627
     -2.417417     34.878642     34.878642     69.757284
     -2.407407     37.293627     37.293627     74.587254
     -2.397397     39.388838     39.388838     78.777675
     -2.387387     41.246207     41.246207     82.492414
     -2.377377     42.717694     42.717694     85.435389
     -2.367367     43.401644     43.401644     86.803288
     -2.357357     42.782059     42.782059     85.564119
     -2.347347     40.473935     40.473935     80.947869
     -2.337337     36.455195     36.455195     72.910390
     -2.327327     31.166729     31.166729     62.333457
     -2.317317     25.429163     25.429163     50.858326
     -2.307307     20.218123     20.218123     40.436247
     -2.297297     16.401991     16.401991     32.803982
     -2.287287     14.545462     14.545462     29.090925
     -2.277277     14.830946     14.830946     29.661892
     -2.267267     17.088790     17.088790     34.177580
     -2.257257     20.891445     20.891445     41.782890
     -2.247247     25.663905     25.663905     51.327810
     -2.237237     30.779591     30.779591     61.559181
     -2.227227     35.630165     35.630165     71.260330
     -2.217217     39.671559     39.671559     79.343117
     -2.207207     42.456472     42.456472     84.912944
     -2.197197     43.666731     43.666731     87.333462
     -2.187187     43.154693     43.154693     86.309387
     -2.177177     40.988854     40.988854     81.977708
     -2.167167     37.479164     37.479164     74.958328
     -2.157157     33.146685     33.146685     66.293370
     -2.147147     28.616364     28.616364     57.232728
     -2.137137     24.452150     24.452150     48.904299
     -2.127127     20.997758     20.997758     41.995517
     -2.117117     18.299900     18.299900     36.599801
     -2.107107     16.156212     16.156212     32.312424
     -2.097097     14.264861     14.264861     28.529723
     -2.087087     12.398914     12.398914     24.797829
     -2.077077     10.520605     10.520605     21.041210
     -2.067067      8.789916      8.789916     17.579832
     -2.057057      7.478548      7.478548     14.957096
     -2.047047      6.839420      6.839420     13.678839
     -2.037037      6.988444      6.988444     13.976888
     -2.027027      7.838737      7.838737     15.677474
     -2.017017      9.104954      9.104954     18.209908
     -2.007007     10.375866     10.375866     20.751732
     -1.996997     11.235004     11.235004     22.470008
     -1.986987     11.391588     11.391588     22.783177
     -1.976977     10.775205     10.775205     21.550411
     -1.966967      9.558303      9.558303     19.116607
     -1.956957      8.100176      8.100176     16.200353
     -1.946947      6.838787      6.838787     13.677574
     -1.936937      6.172991      6.172991     12.345983
     -1.926927      6.370576      6.370576     12.741151
     -1.916917      7.517507      7.517507     15.035013
     -1.906907      9.507561      9.507561     19.015122
     -1.896897     12.066562     12.066562     24.133124
     -1.886887     14.806616     14.806616     29.613232
     -1.876877     17.304102     17.304102     34.608203
     -1.866867     19.188580     19.188580     38.377159
     -1.856857     20.223385     20.223385     40.446770
     -1.846847     20.357444     20.357444     40.714888
     -1.836837     19.731995     19.731995     39.463990
     -1.826827     18.634004     18.634004     37.268009
     -1.816817     17.401550     17.401550     34.803099
     -1.806807     16.306268     16.306268     32.612536
     -1.796797     15.456725     15.456725     30.913450
     -1.786787     14.768465     14.768465     29.536931
     -1.776777     14.020853     14.020853     28.041707
     -1.766767     12.976568     12.976568     25.953136
     -1.756757     11.504223     11.504223     23.008446
     -1.746747      9.643570      9.643570     19.287141
     -1.736737      7.587968      7.587968     15.175936
     -1.726727      5.606022      5.606022     11.212043
     -1.716717      3.952195      3.952195      7.904389
     -1.706707      2.810006      2.810006      5.620012
     -1.696697      2.281049      2.281049      4.562098
     -1.686687      2.401983      2.401983      4.803966
     -1.676677      3.159120      3.159120      6.318240
     -1.666667      4.480804      4.480804      8.961608
     -1.656657      6.212113      6.212113     12.424226
     -1.646647      8.098233      8.098233     16.196467
     -1.636637      9.807560      9.807560     19.615121
     -1.626627     11.007759     11.007759     22.015519
