# EIG2DOS: Utility for SIESTA to obtain the electronic density of states
#  E. Artacho, Apr 1999, A. Garcia, Apr 2012
#  Nick R. Papior, Feb 2017
# ------------------------------------------
# Eigenvalues calculated from a non-polarized calculation
# Eigenvalues read from siesta.EIG
# Kpoint weights read from siesta.KP
# Using smearing parameter:   0.0500
# Using 1000 points in the energy range
# Selected bands: 1 to: 2981
# Emin, Emax in file for selected band(s):    -27.3889274    218.4038550
# Nbands, Nspin, Nk   =   2981     1     1
# E_F                 =    -4.1958 eV --> (shifted to ZERO)
# Broadening          =     0.0500 eV
#
#        E            N(up)  (=)   N(down)         Ntot
     -5.000000     35.294827     35.294827     70.589654
     -4.989990     39.867791     39.867791     79.735582
     -4.979980     43.590140     43.590140     87.180280
     -4.969970     45.805233     45.805233     91.610465
     -4.959960     46.119146     46.119146     92.238291
     -4.949950     44.532100     44.532100     89.064200
     -4.939940     41.444526     41.444526     82.889052
     -4.929930     37.557849     37.557849     75.115697
     -4.919920     33.728715     33.728715     67.457430
     -4.909910     30.827371     30.827371     61.654742
     -4.899900     29.612514     29.612514     59.225029
     -4.889890     30.605806     30.605806     61.211611
     -4.879880     33.958907     33.958907     67.917815
     -4.869870     39.347668     39.347668     78.695336
     -4.859860     45.961813     45.961813     91.923626
     -4.849850     52.644299     52.644299    105.288597
     -4.839840     58.168166     58.168166    116.336333
     -4.829830     61.559965     61.559965    123.119931
     -4.819820     62.342326     62.342326    124.684652
     -4.809810     60.602185     60.602185    121.204369
     -4.799800     56.875385     56.875385    113.750771
     -4.789790     51.920301     51.920301    103.840602
     -4.779780     46.486315     46.486315     92.972630
     -4.769770     41.158130     41.158130     82.316260
     -4.759760     36.301360     36.301360     72.602721
     -4.749750     32.086740     32.086740     64.173480
     -4.739740     28.550163     28.550163     57.100325
     -4.729730     25.650715     25.650715     51.301430
     -4.719720     23.305506     23.305506     46.611012
     -4.709710     21.399570     21.399570     42.799141
     -4.699700     19.787156     19.787156     39.574311
     -4.689690     18.310588     18.310588     36.621175
     -4.679680     16.855177     16.855177     33.710354
     -4.669670     15.432342     15.432342     30.864685
     -4.659660     14.252845     14.252845     28.505691
     -4.649650     13.739401     13.739401     27.478801
     -4.639640     14.444360     14.444360     28.888721
     -4.629630     16.876717     16.876717     33.753434
     -4.619620     21.285716     21.285716     42.571433
     -4.609610     27.479161     27.479161     54.958322
     -4.599600     34.760488     34.760488     69.520976
     -4.589590     42.040629     42.040629     84.081259
     -4.579580     48.117940     48.117940     96.235880
     -4.569570     52.041621     52.041621    104.083241
     -4.559560     53.420195     53.420195    106.840390
     -4.549550     52.543837     52.543837    105.087674
     -4.539540     50.263080     50.263080    100.526160
     -4.529530     47.671356     47.671356     95.342711
     -4.519520     45.720538     45.720538     91.441077
     -4.509510     44.918639     44.918639     89.837279
     -4.499499     45.213976     45.213976     90.427951
     -4.489489     46.087793     46.087793     92.175586
     -4.479479     46.795997     46.795997     93.591994
     -4.469469     46.652278     46.652278     93.304556
     -4.459459     45.244832     45.244832     90.489664
     -4.449449     42.522141     42.522141     85.044283
     -4.439439     38.747287     38.747287     77.494573
     -4.429429     34.374140     34.374140     68.748280
     -4.419419     29.917341     29.917341     59.834683
     -4.409409     25.865427     25.865427     51.730854
     -4.399399     22.641225     22.641225     45.282450
     -4.389389     20.578231     20.578231     41.156461
     -4.379379     19.880930     19.880930     39.761861
     -4.369369     20.568978     20.568978     41.137956
     -4.359359     22.441344     22.441344     44.882688
     -4.349349     25.104605     25.104605     50.209209
     -4.339339     28.079132     28.079132     56.158264
     -4.329329     30.948618     30.948618     61.897236
     -4.319319     33.486598     33.486598     66.973196
     -4.309309     35.700236     35.700236     71.400471
     -4.299299     37.770755     37.770755     75.541510
     -4.289289     39.916354     39.916354     79.832708
     -4.279279     42.233819     42.233819     84.467637
     -4.269269     44.581956     44.581956     89.163912
     -4.259259     46.558088     46.558088     93.116176
     -4.249249     47.592327     47.592327     95.184653
     -4.239239     47.143332     47.143332     94.286664
     -4.229229     44.930362     44.930362     89.860724
     -4.219219     41.102456     41.102456     82.204912
     -4.209209     36.255367     36.255367     72.510734
     -4.199199     31.269280     31.269280     62.538561
     -4.189189     27.027784     27.027784     54.055568
     -4.179179     24.140375     24.140375     48.280749
     -4.169169     22.789139     22.789139     45.578279
     -4.159159     22.756874     22.756874     45.513747
     -4.149149     23.606395     23.606395     47.212790
     -4.139139     24.914758     24.914758     49.829516
     -4.129129     26.448759     26.448759     52.897519
     -4.119119     28.201297     28.201297     56.402594
     -4.109109     30.275908     30.275908     60.551816
     -4.099099     32.683606     32.683606     65.367212
     -4.089089     35.169518     35.169518     70.339036
     -4.079079     37.184765     37.184765     74.369531
     -4.069069     38.049582     38.049582     76.099164
     -4.059059     37.244972     37.244972     74.489944
     -4.049049     34.685705     34.685705     69.371411
     -4.039039     30.825799     30.825799     61.651598
     -4.029029     26.536230     26.536230     53.072460
     -4.019019     22.818258     22.818258     45.636516
     -4.009009     20.495642     20.495642     40.991284
     -3.998999     20.020415     20.020415     40.040830
     -3.988989     21.446813     21.446813     42.893627
     -3.978979     24.535638     24.535638     49.071276
     -3.968969     28.902555     28.902555     57.805109
     -3.958959     34.136218     34.136218     68.272435
     -3.948949     39.861056     39.861056     79.722112
     -3.938939     45.762231     45.762231     91.524461
     -3.928929     51.597818     51.597818    103.195637
     -3.918919     57.200789     57.200789    114.401578
     -3.908909     62.451683     62.451683    124.903367
     -3.898899     67.209838     67.209838    134.419677
     -3.888889     71.225180     71.225180    142.450360
     -3.878879     74.084764     74.084764    148.169528
     -3.868869     75.247432     75.247432    150.494864
     -3.858859     74.180350     74.180350    148.360699
     -3.848849     70.555942     70.555942    141.111884
     -3.838839     64.430025     64.430025    128.860051
     -3.828829     56.322214     56.322214    112.644429
     -3.818819     47.156153     47.156153     94.312305
     -3.808809     38.070809     38.070809     76.141619
     -3.798799     30.161236     30.161236     60.322471
     -3.788789     24.229755     24.229755     48.459510
     -3.778779     20.620844     20.620844     41.241687
     -3.768769     19.181832     19.181832     38.363663
     -3.758759     19.351660     19.351660     38.703320
     -3.748749     20.345572     20.345572     40.691145
     -3.738739     21.383121     21.383121     42.766243
     -3.728729     21.901346     21.901346     43.802693
     -3.718719     21.701479     21.701479     43.402957
     -3.708709     20.992531     20.992531     41.985062
     -3.698699     20.316829     20.316829     40.633658
     -3.688689     20.370177     20.370177     40.740354
     -3.678679     21.760434     21.760434     43.520868
     -3.668669     24.775158     24.775158     49.550316
     -3.658659     29.238555     29.238555     58.477111
     -3.648649     34.517595     34.517595     69.035190
     -3.638639     39.685592     39.685592     79.371184
     -3.628629     43.787097     43.787097     87.574194
     -3.618619     46.103551     46.103551     92.207103
     -3.608609     46.322311     46.322311     92.644623
     -3.598599     44.562203     44.562203     89.124405
     -3.588589     41.275225     41.275225     82.550450
     -3.578579     37.086223     37.086223     74.172446
     -3.568569     32.632506     32.632506     65.265011
     -3.558559     28.439194     28.439194     56.878389
     -3.548549     24.842948     24.842948     49.685896
     -3.538539     21.970205     21.970205     43.940410
     -3.528529     19.774497     19.774497     39.548994
     -3.518519     18.122982     18.122982     36.245965
     -3.508509     16.896495     16.896495     33.792990
     -3.498498     16.052889     16.052889     32.105779
     -3.488488     15.621028     15.621028     31.242057
     -3.478478     15.636293     15.636293     31.272586
     -3.468468     16.066211     16.066211     32.132422
     -3.458458     16.777004     16.777004     33.554009
     -3.448448     17.558196     17.558196     35.116391
     -3.438438     18.182460     18.182460     36.364921
     -3.428428     18.463804     18.463804     36.927607
     -3.418418     18.294625     18.294625     36.589250
     -3.408408     17.668191     17.668191     35.336383
     -3.398398     16.699998     16.699998     33.399997
     -3.388388     15.645025     15.645025     31.290051
     -3.378378     14.888698     14.888698     29.777396
     -3.368368     14.890535     14.890535     29.781070
     -3.358358     16.082708     16.082708     32.165415
     -3.348348     18.751234     18.751234     37.502469
     -3.338338     22.935172     22.935172     45.870344
     -3.328328     28.368092     28.368092     56.736184
     -3.318318     34.472602     34.472602     68.945205
     -3.308308     40.415677     40.415677     80.831353
     -3.298298     45.234077     45.234077     90.468154
     -3.288288     48.026632     48.026632     96.053264
     -3.278278     48.176414     48.176414     96.352827
     -3.268268     45.530005     45.530005     91.060011
     -3.258258     40.456040     40.456040     80.912080
     -3.248248     33.747029     33.747029     67.494059
     -3.238238     26.397647     26.397647     52.795294
     -3.228228     19.346939     19.346939     38.693879
     -3.218218     13.279575     13.279575     26.559149
     -3.208208      8.542971      8.542971     17.085943
     -3.198198      5.181095      5.181095     10.362190
     -3.188188      3.043682      3.043682      6.087363
     -3.178178      1.916723      1.916723      3.833446
     -3.168168      1.630964      1.630964      3.261927
     -3.158158      2.124565      2.124565      4.249130
     -3.148148      3.451414      3.451414      6.902829
     -3.138138      5.735405      5.735405     11.470811
     -3.128128      9.079301      9.079301     18.158603
     -3.118118     13.450825     13.450825     26.901651
     -3.108108     18.586595     18.586595     37.173189
     -3.098098     23.963980     23.963980     47.927960
     -3.088088     28.876534     28.876534     57.753069
     -3.078078     32.606134     32.606134     65.212267
     -3.068068     34.631586     34.631586     69.263172
     -3.058058     34.782138     34.782138     69.564276
     -3.048048     33.262003     33.262003     66.524006
     -3.038038     30.536219     30.536219     61.072439
     -3.028028     27.142185     27.142185     54.284370
     -3.018018     23.527394     23.527394     47.054788
     -3.008008     19.988478     19.988478     39.976957
     -2.997998     16.718813     16.718813     33.437625
     -2.987988     13.908728     13.908728     27.817456
     -2.977978     11.822361     11.822361     23.644722
     -2.967968     10.801789     10.801789     21.603579
     -2.957958     11.195191     11.195191     22.390381
     -2.947948     13.240788     13.240788     26.481576
     -2.937938     16.950685     16.950685     33.901370
     -2.927928     22.035518     22.035518     44.071037
     -2.917918     27.901782     27.901782     55.803563
     -2.907908     33.739254     33.739254     67.478508
     -2.897898     38.691080     38.691080     77.382160
     -2.887888     42.065168     42.065168     84.130336
     -2.877878     43.516805     43.516805     87.033611
     -2.867868     43.128780     43.128780     86.257559
     -2.857858     41.348025     41.348025     82.696049
     -2.847848     38.797977     38.797977     77.595954
     -2.837838     36.044941     36.044941     72.089882
     -2.827828     33.421460     33.421460     66.842919
     -2.817818     30.982132     30.982132     61.964265
     -2.807808     28.599040     28.599040     57.198081
     -2.797798     26.131877     26.131877     52.263755
     -2.787788     23.573020     23.573020     47.146040
     -2.777778     21.089887     21.089887     42.179775
     -2.767768     18.952031     18.952031     37.904063
     -2.757758     17.399003     17.399003     34.798006
     -2.747748     16.535985     16.535985     33.071971
     -2.737738     16.319414     16.319414     32.638828
     -2.727728     16.630823     16.630823     33.261645
     -2.717718     17.376196     17.376196     34.752392
     -2.707708     18.532116     18.532116     37.064232
     -2.697698     20.101947     20.101947     40.203894
     -2.687688     22.017233     22.017233     44.034466
     -2.677678     24.068848     24.068848     48.137697
     -2.667668     25.939265     25.939265     51.878530
     -2.657658     27.336277     27.336277     54.672555
     -2.647648     28.149610     28.149610     56.299220
     -2.637638     28.524989     28.524989     57.049978
     -2.627628     28.798792     28.798792     57.597585
     -2.617618     29.326822     29.326822     58.653644
     -2.607608     30.307266     30.307266     60.614532
     -2.597598     31.693666     31.693666     63.387333
     -2.587588     33.227208     33.227208     66.454415
     -2.577578     34.543557     34.543557     69.087115
     -2.567568     35.282277     35.282277     70.564553
     -2.557558     35.157008     35.157008     70.314015
     -2.547548     33.994968     33.994968     67.989937
     -2.537538     31.776546     31.776546     63.553092
     -2.527528     28.683984     28.683984     57.367969
     -2.517518     25.128940     25.128940     50.257879
     -2.507508     21.713205     21.713205     43.426409
     -2.497497     19.103022     19.103022     38.206045
     -2.487487     17.847196     17.847196     35.694392
     -2.477477     18.207742     18.207742     36.415485
     -2.467467     20.075361     20.075361     40.150722
     -2.457457     23.010096     23.010096     46.020192
     -2.447447     26.396914     26.396914     52.793828
     -2.437437     29.658033     29.658033     59.316066
     -2.427427     32.437443     32.437443     64.874886
     -2.417417     34.680063     34.680063     69.360126
     -2.407407     36.568890     36.568890     73.137779
     -2.397397     38.344934     38.344934     76.689869
     -2.387387     40.092113     40.092113     80.184226
     -2.377377     41.595244     41.595244     83.190489
     -2.367367     42.355370     42.355370     84.710739
     -2.357357     41.775001     41.775001     83.550002
     -2.347347     39.436938     39.436938     78.873877
     -2.337337     35.343323     35.343323     70.686647
     -2.327327     29.995479     29.995479     59.990957
     -2.317317     24.276547     24.276547     48.553095
     -2.307307     19.198290     19.198290     38.396579
     -2.297297     15.629336     15.629336     31.258672
     -2.287287     14.107517     14.107517     28.215034
     -2.277277     14.776746     14.776746     29.553492
     -2.267267     17.427443     17.427443     34.854886
     -2.257257     21.591899     21.591899     43.183799
     -2.247247     26.652296     26.652296     53.304592
     -2.237237     31.938588     31.938588     63.877175
     -2.227227     36.808233     36.808233     73.616467
     -2.217217     40.706485     40.706485     81.412969
     -2.207207     43.210382     43.210382     86.420765
     -2.197197     44.064676     44.064676     88.129351
     -2.187187     43.218311     43.218311     86.436621
     -2.177177     40.858891     40.858891     81.717783
     -2.167167     37.422261     37.422261     74.844521
     -2.157157     33.541684     33.541684     67.083367
     -2.147147     29.915288     29.915288     59.830577
     -2.137137     27.113428     27.113428     54.226856
     -2.127127     25.395405     25.395405     50.790809
     -2.117117     24.621637     24.621637     49.243274
     -2.107107     24.313586     24.313586     48.627172
     -2.097097     23.844533     23.844533     47.689066
     -2.087087     22.679857     22.679857     45.359715
     -2.077077     20.563587     20.563587     41.127174
     -2.067067     17.579356     17.579356     35.158713
     -2.057057     14.077642     14.077642     28.155284
     -2.047047     10.520503     10.520503     21.041006
     -2.037037      7.320683      7.320683     14.641365
     -2.027027      4.737187      4.737187      9.474375
     -2.017017      2.850369      2.850369      5.700737
     -2.007007      1.601185      1.601185      3.202370
     -1.996997      0.859895      0.859895      1.719790
     -1.986987      0.491837      0.491837      0.983675
     -1.976977      0.402691      0.402691      0.805382
     -1.966967      0.560077      0.560077      1.120154
     -1.956957      0.995173      0.995173      1.990347
     -1.946947      1.787502      1.787502      3.575004
     -1.936937      3.033768      3.033768      6.067536
     -1.926927      4.803327      4.803327      9.606653
     -1.916917      7.089945      7.089945     14.179890
     -1.906907      9.777293      9.777293     19.554585
     -1.896897     12.636336     12.636336     25.272672
     -1.886887     15.362431     15.362431     30.724862
     -1.876877     17.642822     17.642822     35.285643
     -1.866867     19.232103     19.232103     38.464207
     -1.856857     20.011556     20.011556     40.023113
     -1.846847     20.015966     20.015966     40.031931
     -1.836837     19.420567     19.420567     38.841134
     -1.826827     18.487499     18.487499     36.974998
     -1.816817     17.480367     17.480367     34.960735
     -1.806807     16.571271     16.571271     33.142542
     -1.796797     15.779057     15.779057     31.558115
     -1.786787     14.973979     14.973979     29.947958
     -1.776777     13.954392     13.954392     27.908784
     -1.766767     12.560129     12.560129     25.120259
     -1.756757     10.763726     10.763726     21.527451
     -1.746747      8.693825      8.693825     17.387650
     -1.736737      6.586439      6.586439     13.172879
     -1.726727      4.699938      4.699938      9.399877
     -1.716717      3.242477      3.242477      6.484955
     -1.706707      2.341980      2.341980      4.683960
     -1.696697      2.056187      2.056187      4.112375
     -1.686687      2.396398      2.396398      4.792796
     -1.676677      3.336144      3.336144      6.672289
     -1.666667      4.793293      4.793293      9.586586
     -1.656657      6.598966      6.598966     13.197932
     -1.646647      8.484044      8.484044     16.968089
     -1.636637     10.112249     10.112249     20.224497
     -1.626627     11.166072     11.166072     22.332144
