# EIG2DOS: Utility for SIESTA to obtain the electronic density of states
#  E. Artacho, Apr 1999, A. Garcia, Apr 2012
#  Nick R. Papior, Feb 2017
# ------------------------------------------
# Eigenvalues calculated from a non-polarized calculation
# Eigenvalues read from siesta.EIG
# Kpoint weights read from siesta.KP
# Using smearing parameter:   0.0500
# Using 1000 points in the energy range
# Selected bands: 1 to: 2981
# Emin, Emax in file for selected band(s):    -27.1051298    218.3418580
# Nbands, Nspin, Nk   =   2981     1     1
# E_F                 =    -4.2697 eV --> (shifted to ZERO)
# Broadening          =     0.0500 eV
#
#        E            N(up)  (=)   N(down)         Ntot
     -5.000000     35.659698     35.659698     71.319395
     -4.989990     38.697748     38.697748     77.395495
     -4.979980     41.405385     41.405385     82.810770
     -4.969970     43.244239     43.244239     86.488478
     -4.959960     43.814848     43.814848     87.629696
     -4.949950     42.967297     42.967297     85.934594
     -4.939940     40.842853     40.842853     81.685705
     -4.929930     37.849030     37.849030     75.698059
     -4.919920     34.593292     34.593292     69.186584
     -4.909910     31.800152     31.800152     63.600303
     -4.899900     30.215215     30.215215     60.430430
     -4.889890     30.478501     30.478501     60.957001
     -4.879880     32.955020     32.955020     65.910040
     -4.869870     37.552497     37.552497     75.104995
     -4.859860     43.609207     43.609207     87.218415
     -4.849850     49.950910     49.950910     99.901819
     -4.839840     55.160715     55.160715    110.321430
     -4.829830     57.995674     57.995674    115.991349
     -4.819820     57.785200     57.785200    115.570400
     -4.809810     54.631414     54.631414    109.262828
     -4.799800     49.321735     49.321735     98.643469
     -4.789790     43.007847     43.007847     86.015694
     -4.779780     36.812568     36.812568     73.625136
     -4.769770     31.534528     31.534528     63.069056
     -4.759760     27.538810     27.538810     55.077619
     -4.749750     24.815053     24.815053     49.630106
     -4.739740     23.119707     23.119707     46.239413
     -4.729730     22.117763     22.117763     44.235525
     -4.719720     21.477621     21.477621     42.955242
     -4.709710     20.914361     20.914361     41.828721
     -4.699700     20.201727     20.201727     40.403455
     -4.689690     19.180091     19.180091     38.360182
     -4.679680     17.780646     17.780646     35.561291
     -4.669670     16.068643     16.068643     32.137286
     -4.659660     14.287351     14.287351     28.574703
     -4.649650     12.871291     12.871291     25.742581
     -4.639640     12.400465     12.400465     24.800931
     -4.629630     13.484906     13.484906     26.969813
     -4.619620     16.592679     16.592679     33.185357
     -4.609610     21.859226     21.859226     43.718452
     -4.599600     28.939034     28.939034     57.878069
     -4.589590     36.973236     36.973236     73.946473
     -4.579580     44.730411     44.730411     89.460822
     -4.569570     50.919716     50.919716    101.839432
     -4.559560     54.590601     54.590601    109.181203
     -4.549550     55.467298     55.467298    110.934596
     -4.539540     54.067202     54.067202    108.134405
     -4.529530     51.532870     51.532870    103.065740
     -4.519520     49.230404     49.230404     98.460809
     -4.509510     48.268733     48.268733     96.537467
     -4.499499     49.124806     49.124806     98.249611
     -4.489489     51.509883     51.509883    103.019766
     -4.479479     54.511064     54.511064    109.022127
     -4.469469     56.936287     56.936287    113.872575
     -4.459459     57.722072     57.722072    115.444145
     -4.449449     56.254501     56.254501    112.509003
     -4.439439     52.504821     52.504821    105.009643
     -4.429429     46.966281     46.966281     93.932562
     -4.419419     40.457590     40.457590     80.915180
     -4.409409     33.893120     33.893120     67.786239
     -4.399399     28.099211     28.099211     56.198422
     -4.389389     23.702793     23.702793     47.405586
     -4.379379     21.074131     21.074131     42.148262
     -4.369369     20.297929     20.297929     40.595858
     -4.359359     21.170413     21.170413     42.340825
     -4.349349     23.243382     23.243382     46.486764
     -4.339339     25.931991     25.931991     51.863983
     -4.329329     28.670875     28.670875     57.341750
     -4.319319     31.068385     31.068385     62.136770
     -4.309309     32.999148     32.999148     65.998296
     -4.299299     34.598592     34.598592     69.197184
     -4.289289     36.163323     36.163323     72.326646
     -4.279279     37.994414     37.994414     75.988828
     -4.269269     40.235245     40.235245     80.470491
     -4.259259     42.756156     42.756156     85.512311
     -4.249249     45.131790     45.131790     90.263581
     -4.239239     46.739417     46.739417     93.478834
     -4.229229     46.967028     46.967028     93.934056
     -4.219219     45.463357     45.463357     90.926715
     -4.209209     42.319306     42.319306     84.638612
     -4.199199     38.081512     38.081512     76.163025
     -4.189189     33.574437     33.574437     67.148873
     -4.179179     29.608644     29.608644     59.217287
     -4.169169     26.715248     26.715248     53.430495
     -4.159159     25.028425     25.028425     50.056850
     -4.149149     24.353463     24.353463     48.706926
     -4.139139     24.362003     24.362003     48.724005
     -4.129129     24.801990     24.801990     49.603981
     -4.119119     25.616169     25.616169     51.232338
     -4.109109     26.915443     26.915443     53.830885
     -4.099099     28.825097     28.825097     57.650195
     -4.089089     31.286589     31.286589     62.573178
     -4.079079     33.929960     33.929960     67.859920
     -4.069069     36.109559     36.109559     72.219119
     -4.059059     37.116193     37.116193     74.232387
     -4.049049     36.476801     36.476801     72.953602
     -4.039039     34.189991     34.189991     68.379983
     -4.029029     30.769800     30.769800     61.539600
     -4.019019     27.072972     27.072972     54.145944
     -4.009009     24.002708     24.002708     48.005416
     -3.998999     22.238580     22.238580     44.477159
     -3.988989     22.106742     22.106742     44.213485
     -3.978979     23.609170     23.609170     47.218340
     -3.968969     26.543895     26.543895     53.087789
     -3.958959     30.623266     30.623266     61.246532
     -3.948949     35.537005     35.537005     71.074010
     -3.938939     40.968918     40.968918     81.937836
     -3.928929     46.609310     46.609310     93.218621
     -3.918919     52.188778     52.188778    104.377557
     -3.908909     57.515902     57.515902    115.031804
     -3.898899     62.474805     62.474805    124.949609
     -3.888889     66.955913     66.955913    133.911825
     -3.878879     70.744086     70.744086    141.488172
     -3.868869     73.434347     73.434347    146.868694
     -3.858859     74.450153     74.450153    148.900306
     -3.848849     73.193260     73.193260    146.386519
     -3.838839     69.281345     69.281345    138.562691
     -3.828829     62.771577     62.771577    125.543153
     -3.818819     54.260439     54.260439    108.520878
     -3.808809     44.799781     44.799781     89.599563
     -3.798799     35.650257     35.650257     71.300513
     -3.788789     27.962655     27.962655     55.925309
     -3.778779     22.500800     22.500800     45.001600
     -3.768769     19.491930     19.491930     38.983859
     -3.758759     18.634616     18.634616     37.269233
     -3.748749     19.241333     19.241333     38.482665
     -3.738739     20.461669     20.461669     40.923339
     -3.728729     21.524067     21.524067     43.048135
     -3.718719     21.939603     21.939603     43.879206
     -3.708709     21.622880     21.622880     43.245761
     -3.698699     20.900391     20.900391     41.800782
     -3.688689     20.398109     20.398109     40.796217
     -3.678679     20.829293     20.829293     41.658586
     -3.668669     22.736955     22.736955     45.473910
     -3.658659     26.271955     26.271955     52.543911
     -3.648649     31.090477     31.090477     62.180954
     -3.638639     36.420909     36.420909     72.841818
     -3.628629     41.284758     41.284758     82.569516
     -3.618619     44.787570     44.787570     89.575140
     -3.608609     46.363861     46.363861     92.727722
     -3.598599     45.887393     45.887393     91.774786
     -3.588589     43.628993     43.628993     87.257986
     -3.578579     40.112360     40.112360     80.224720
     -3.568569     35.943525     35.943525     71.887051
     -3.558559     31.668729     31.668729     63.337458
     -3.548549     27.679772     27.679772     55.359544
     -3.538539     24.167395     24.167395     48.334790
     -3.528529     21.125372     21.125372     42.250744
     -3.518519     18.409573     18.409573     36.819147
     -3.508509     15.840387     15.840387     31.680774
     -3.498498     13.311696     13.311696     26.623392
     -3.488488     10.859299     10.859299     21.718597
     -3.478478      8.659669      8.659669     17.319339
     -3.468468      6.964923      6.964923     13.929846
     -3.458458      6.007056      6.007056     12.014112
     -3.448448      5.909449      5.909449     11.818898
     -3.438438      6.631949      6.631949     13.263899
     -3.428428      7.962698      7.962698     15.925397
     -3.418418      9.562125      9.562125     19.124250
     -3.408408     11.055994     11.055994     22.111988
     -3.398398     12.157434     12.157434     24.314868
     -3.388388     12.777244     12.777244     25.554488
     -3.378378     13.074348     13.074348     26.148697
     -3.368368     13.417257     13.417257     26.834513
     -3.358358     14.266717     14.266717     28.533434
     -3.348348     16.025099     16.025099     32.050198
     -3.338338     18.906016     18.906016     37.812033
     -3.328328     22.856432     22.856432     45.712864
     -3.318318     27.534812     27.534812     55.069623
     -3.308308     32.338135     32.338135     64.676269
     -3.298298     36.481343     36.481343     72.962687
     -3.288288     39.141717     39.141717     78.283434
     -3.278278     39.660857     39.660857     79.321714
     -3.268268     37.750630     37.750630     75.501260
     -3.258258     33.614034     33.614034     67.228068
     -3.248248     27.908736     27.908736     55.817473
     -3.238238     21.552843     21.552843     43.105687
     -3.228228     15.454520     15.454520     30.909040
     -3.218218     10.282706     10.282706     20.565412
     -3.208208      6.364048      6.364048     12.728096
     -3.198198      3.719281      3.719281      7.438561
     -3.188188      2.190059      2.190059      4.380117
     -3.178178      1.585711      1.585711      3.171422
     -3.168168      1.795062      1.795062      3.590125
     -3.158158      2.837287      2.837287      5.674574
     -3.148148      4.847571      4.847571      9.695143
     -3.138138      8.004782      8.004782     16.009563
     -3.128128     12.417905     12.417905     24.835809
     -3.118118     18.002714     18.002714     36.005429
     -3.108108     24.395572     24.395572     48.791145
     -3.098098     30.953552     30.953552     61.907104
     -3.088088     36.867099     36.867099     73.734199
     -3.078078     41.365165     41.365165     82.730330
     -3.068068     43.942638     43.942638     87.885277
     -3.058058     44.514163     44.514163     89.028326
     -3.048048     43.417724     43.417724     86.835448
     -3.038038     41.254924     41.254924     82.509848
     -3.028028     38.635459     38.635459     77.270918
     -3.018018     35.947711     35.947711     71.895422
     -3.008008     33.269414     33.269414     66.538828
     -2.997998     30.459316     30.459316     60.918632
     -2.987988     27.371679     27.371679     54.743359
     -2.977978     24.069971     24.069971     48.139941
     -2.967968     20.922930     20.922930     41.845860
     -2.957958     18.536061     18.536061     37.072121
     -2.947948     17.556257     17.556257     35.112514
     -2.937938     18.438554     18.438554     36.877108
     -2.927928     21.265476     21.265476     42.530952
     -2.917918     25.677753     25.677753     51.355507
     -2.907908     30.935328     30.935328     61.870657
     -2.897898     36.092212     36.092212     72.184424
     -2.887888     40.238109     40.238109     80.476218
     -2.877878     42.735243     42.735243     85.470486
     -2.867868     43.371292     43.371292     86.742585
     -2.857858     42.371446     42.371446     84.742893
     -2.847848     40.264024     40.264024     80.528047
     -2.837838     37.655349     37.655349     75.310699
     -2.827828     35.010024     35.010024     70.020048
     -2.817818     32.529011     32.529011     65.058023
     -2.807808     30.169004     30.169004     60.338009
     -2.797798     27.776160     27.776160     55.552319
     -2.787788     25.252152     25.252152     50.504303
     -2.777778     22.660037     22.660037     45.320073
     -2.767768     20.217061     20.217061     40.434123
     -2.757758     18.188900     18.188900     36.377801
     -2.747748     16.756578     16.756578     33.513157
     -2.737738     15.940479     15.940479     31.880957
     -2.727728     15.627262     15.627262     31.254524
     -2.717718     15.678075     15.678075     31.356150
     -2.707708     16.042174     16.042174     32.084348
     -2.697698     16.794868     16.794868     33.589735
     -2.687688     18.068400     18.068400     36.136801
     -2.677678     19.918386     19.918386     39.836773
     -2.667668     22.217425     22.217425     44.434850
     -2.657658     24.655905     24.655905     49.311810
     -2.647648     26.861842     26.861842     53.723684
     -2.637638     28.571133     28.571133     57.142266
     -2.627628     29.742898     29.742898     59.485795
     -2.617618     30.549283     30.549283     61.098566
     -2.607608     31.251687     31.251687     62.503373
     -2.597598     32.046160     32.046160     64.092320
     -2.587588     32.969295     32.969295     65.938590
     -2.577578     33.901061     33.901061     67.802122
     -2.567568     34.631547     34.631547     69.263094
     -2.557558     34.930452     34.930452     69.860904
     -2.547548     34.586732     34.586732     69.173465
     -2.537538     33.434932     33.434932     66.869864
     -2.527528     31.403261     31.403261     62.806522
     -2.517518     28.588715     28.588715     57.177431
     -2.507508     25.316844     25.316844     50.633688
     -2.497497     22.125753     22.125753     44.251506
     -2.487487     19.646605     19.646605     39.293210
     -2.477477     18.414163     18.414163     36.828326
     -2.467467     18.687869     18.687869     37.375738
     -2.457457     20.366722     20.366722     40.733444
     -2.447447     23.040044     23.040044     46.080088
     -2.437437     26.154270     26.154270     52.308541
     -2.427427     29.222753     29.222753     58.445505
     -2.417417     31.984692     31.984692     63.969383
     -2.407407     34.440827     34.440827     68.881655
     -2.397397     36.749925     36.749925     73.499849
     -2.387387     39.037290     39.037290     78.074579
     -2.377377     41.213061     41.213061     82.426123
     -2.367367     42.899741     42.899741     85.799482
     -2.357357     43.520802     43.520802     87.041605
     -2.347347     42.524298     42.524298     85.048597
     -2.337337     39.644163     39.644163     79.288325
     -2.327327     35.076224     35.076224     70.152447
     -2.317317     29.483600     29.483600     58.967201
     -2.307307     23.828477     23.828477     47.656954
     -2.297297     19.107001     19.107001     38.214002
     -2.287287     16.096749     16.096749     32.193498
     -2.277277     15.200923     15.200923     30.401847
     -2.267267     16.416437     16.416437     32.832874
     -2.257257     19.402427     19.402427     38.804853
     -2.247247     23.602806     23.602806     47.205611
     -2.237237     28.377904     28.377904     56.755809
     -2.227227     33.112276     33.112276     66.224552
     -2.217217     37.280191     37.280191     74.560383
     -2.207207     40.467463     40.467463     80.934927
     -2.197197     42.367334     42.367334     84.734669
     -2.187187     42.780402     42.780402     85.560804
     -2.177177     41.641691     41.641691     83.283381
     -2.167167     39.069558     39.069558     78.139116
     -2.157157     35.397725     35.397725     70.795450
     -2.147147     31.141302     31.141302     62.282604
     -2.137137     26.877086     26.877086     53.754171
     -2.127127     23.074275     23.074275     46.148550
     -2.117117     19.955015     19.955015     39.910030
     -2.107107     17.459049     17.459049     34.918098
     -2.097097     15.331412     15.331412     30.662823
     -2.087087     13.282707     13.282707     26.565415
     -2.077077     11.134996     11.134996     22.269992
     -2.067067      8.884514      8.884514     17.769028
     -2.057057      6.667884      6.667884     13.335769
     -2.047047      4.671204      4.671204      9.342408
     -2.037037      3.040437      3.040437      6.080873
     -2.027027      1.834013      1.834013      3.668026
     -2.017017      1.024997      1.024997      2.049994
     -2.007007      0.534599      0.534599      1.069198
     -1.996997      0.272343      0.272343      0.544686
     -1.986987      0.166636      0.166636      0.333272
     -1.976977      0.181770      0.181770      0.363541
     -1.966967      0.324966      0.324966      0.649932
     -1.956957      0.647421      0.647421      1.294842
     -1.946947      1.239151      1.239151      2.478302
     -1.936937      2.213203      2.213203      4.426407
     -1.926927      3.674972      3.674972      7.349944
     -1.916917      5.678654      5.678654     11.357308
     -1.906907      8.183012      8.183012     16.366024
     -1.896897     11.025955     11.025955     22.051910
     -1.886887     13.935120     13.935120     27.870240
     -1.876877     16.578401     16.578401     33.156803
     -1.866867     18.641130     18.641130     37.282259
     -1.856857     19.905477     19.905477     39.810954
     -1.846847     20.307617     20.307617     40.615234
     -1.836837     19.955665     19.955665     39.911330
     -1.826827     19.100792     19.100792     38.201585
     -1.816817     18.064777     18.064777     36.129553
     -1.806807     17.142613     17.142613     34.285226
     -1.796797     16.515307     16.515307     33.030614
     -1.786787     16.211969     16.211969     32.423938
     -1.776777     16.139617     16.139617     32.279234
     -1.766767     16.160180     16.160180     32.320360
     -1.756757     16.163962     16.163962     32.327924
     -1.746747     16.093839     16.093839     32.187677
     -1.736737     15.914771     15.914771     31.829541
     -1.726727     15.568146     15.568146     31.136292
     -1.716717     14.962956     14.962956     29.925912
     -1.706707     14.024776     14.024776     28.049551
     -1.696697     12.773786     12.773786     25.547571
     -1.686687     11.373991     11.373991     22.747982
     -1.676677     10.108901     10.108901     20.217803
     -1.666667      9.283025      9.283025     18.566050
     -1.656657      9.092836      9.092836     18.185672
     -1.646647      9.529453      9.529453     19.058907
     -1.636637     10.361686     10.361686     20.723372
     -1.626627     11.212556     11.212556     22.425113
