# EIG2DOS: Utility for SIESTA to obtain the electronic density of states
#  E. Artacho, Apr 1999, A. Garcia, Apr 2012
#  Nick R. Papior, Feb 2017
# ------------------------------------------
# Eigenvalues calculated from a non-polarized calculation
# Eigenvalues read from siesta.EIG
# Kpoint weights read from siesta.KP
# Using smearing parameter:   0.0500
# Using 1000 points in the energy range
# Selected bands: 1 to: 2981
# Emin, Emax in file for selected band(s):    -27.0901210    218.3366970
# Nbands, Nspin, Nk   =   2981     1     1
# E_F                 =    -4.2674 eV --> (shifted to ZERO)
# Broadening          =     0.0500 eV
#
#        E            N(up)  (=)   N(down)         Ntot
     -5.000000     41.123223     41.123223     82.246447
     -4.989990     42.574103     42.574103     85.148206
     -4.979980     43.514936     43.514936     87.029871
     -4.969970     43.699966     43.699966     87.399933
     -4.959960     42.953328     42.953328     85.906656
     -4.949950     41.250065     41.250065     82.500129
     -4.939940     38.752471     38.752471     77.504943
     -4.929930     35.806584     35.806584     71.613169
     -4.919920     32.914948     32.914948     65.829896
     -4.909910     30.692310     30.692310     61.384619
     -4.899900     29.790765     29.790765     59.581530
     -4.889890     30.770861     30.770861     61.541722
     -4.879880     33.915547     33.915547     67.831094
     -4.869870     39.035384     39.035384     78.070769
     -4.859860     45.364797     45.364797     90.729593
     -4.849850     51.651519     51.651519    103.303037
     -4.839840     56.467735     56.467735    112.935469
     -4.829830     58.650148     58.650148    117.300296
     -4.819820     57.683512     57.683512    115.367023
     -4.809810     53.848949     53.848949    107.697898
     -4.799800     48.072192     48.072192     96.144384
     -4.789790     41.558896     41.558896     83.117792
     -4.779780     35.398133     35.398133     70.796267
     -4.769770     30.299055     30.299055     60.598110
     -4.759760     26.526318     26.526318     53.052637
     -4.749750     23.993082     23.993082     47.986165
     -4.739740     22.418265     22.418265     44.836530
     -4.729730     21.466406     21.466406     42.932812
     -4.719720     20.831643     20.831643     41.663285
     -4.709710     20.266949     20.266949     40.533899
     -4.699700     19.582146     19.582146     39.164293
     -4.689690     18.641018     18.641018     37.282036
     -4.679680     17.381432     17.381432     34.762864
     -4.669670     15.862878     15.862878     31.725757
     -4.659660     14.320081     14.320081     28.640163
     -4.649650     13.184094     13.184094     26.368188
     -4.639640     13.035452     13.035452     26.070905
     -4.629630     14.476673     14.476673     28.953346
     -4.619620     17.943213     17.943213     35.886426
     -4.609610     23.502975     23.502975     47.005949
     -4.599600     30.717248     30.717248     61.434496
     -4.589590     38.639457     38.639457     77.278913
     -4.579580     45.997104     45.997104     91.994207
     -4.569570     51.533133     51.533133    103.066266
     -4.559560     54.400283     54.400283    108.800565
     -4.549550     54.453737     54.453737    108.907474
     -4.539540     52.312314     52.312314    104.624629
     -4.529530     49.152823     49.152823     98.305646
     -4.519520     46.317172     46.317172     92.634344
     -4.509510     44.885555     44.885555     89.771110
     -4.499499     45.367767     45.367767     90.735534
     -4.489489     47.600098     47.600098     95.200196
     -4.479479     50.849374     50.849374    101.698747
     -4.469469     54.060509     54.060509    108.121019
     -4.459459     56.158215     56.158215    112.316430
     -4.449449     56.320799     56.320799    112.641598
     -4.439439     54.167375     54.167375    108.334750
     -4.429429     49.827129     49.827129     99.654259
     -4.419419     43.887405     43.887405     87.774810
     -4.409409     37.244139     37.244139     74.488279
     -4.399399     30.897585     30.897585     61.795169
     -4.389389     25.742152     25.742152     51.484303
     -4.379379     22.392924     22.392924     44.785848
     -4.369369     21.080559     21.080559     42.161118
     -4.359359     21.635572     21.635572     43.271144
     -4.349349     23.568738     23.568738     47.137475
     -4.339339     26.230884     26.230884     52.461767
     -4.329329     29.006721     29.006721     58.013442
     -4.319319     31.479415     31.479415     62.958830
     -4.309309     33.510910     33.510910     67.021821
     -4.299299     35.217111     35.217111     70.434221
     -4.289289     36.857901     36.857901     73.715801
     -4.279279     38.687318     38.687318     77.374636
     -4.269269     40.812059     40.812059     81.624118
     -4.259259     43.098095     43.098095     86.196189
     -4.249249     45.157732     45.157732     90.315464
     -4.239239     46.439014     46.439014     92.878028
     -4.229229     46.410305     46.410305     92.820609
     -4.219219     44.783133     44.783133     89.566266
     -4.209209     41.673914     41.673914     83.347828
     -4.199199     37.611416     37.611416     75.222833
     -4.189189     33.366425     33.366425     66.732850
     -4.179179     29.677128     29.677128     59.354256
     -4.169169     27.004334     27.004334     54.008669
     -4.159159     25.432781     25.432781     50.865562
     -4.149149     24.751676     24.751676     49.503352
     -4.139139     24.653400     24.653400     49.306800
     -4.129129     24.936487     24.936487     49.872974
     -4.119119     25.607008     25.607008     51.214016
     -4.109109     26.828198     26.828198     53.656396
     -4.099099     28.744538     28.744538     57.489076
     -4.089089     31.274236     31.274236     62.548472
     -4.079079     33.993119     33.993119     67.986238
     -4.069069     36.199870     36.199870     72.399739
     -4.059059     37.160561     37.160561     74.321122
     -4.049049     36.423798     36.423798     72.847596
     -4.039039     34.043766     34.043766     68.087532
     -4.029029     30.590236     30.590236     61.180473
     -4.019019     26.941958     26.941958     53.883916
     -4.009009     23.977821     23.977821     47.955643
     -3.998999     22.322687     22.322687     44.645373
     -3.988989     22.250439     22.250439     44.500878
     -3.978979     23.741578     23.741578     47.483156
     -3.968969     26.611074     26.611074     53.222147
     -3.958959     30.612483     30.612483     61.224965
     -3.948949     35.477633     35.477633     70.955266
     -3.938939     40.915928     40.915928     81.831856
     -3.928929     46.622325     46.622325     93.244650
     -3.918919     52.316027     52.316027    104.632053
     -3.908909     57.784157     57.784157    115.568313
     -3.898899     62.881778     62.881778    125.763555
     -3.888889     67.463562     67.463562    134.927125
     -3.878879     71.276309     71.276309    142.552618
     -3.868869     73.884867     73.884867    147.769734
     -3.858859     74.703371     74.703371    149.406742
     -3.848849     73.154347     73.154347    146.308693
     -3.838839     68.906131     68.906131    137.812262
     -3.828829     62.085098     62.085098    124.170195
     -3.818819     53.356209     53.356209    106.712418
     -3.808809     43.818498     43.818498     87.636997
     -3.798799     34.744089     34.744089     69.488178
     -3.788789     27.256429     27.256429     54.512859
     -3.778779     22.062312     22.062312     44.124624
     -3.768769     19.320047     19.320047     38.640094
     -3.758759     18.667631     18.667631     37.335262
     -3.748749     19.381717     19.381717     38.763433
     -3.738739     20.609091     20.609091     41.218182
     -3.728729     21.606967     21.606967     43.213935
     -3.718719     21.936595     21.936595     43.873190
     -3.708709     21.567992     21.567992     43.135984
     -3.698699     20.870131     20.870131     41.740261
     -3.688689     20.483180     20.483180     40.966360
     -3.678679     21.098930     21.098930     42.197861
     -3.668669     23.207937     23.207937     46.415873
     -3.658659     26.894883     26.894883     53.789766
     -3.648649     31.760743     31.760743     63.521486
     -3.638639     37.011482     37.011482     74.022964
     -3.628629     41.687159     41.687159     83.374317
     -3.618619     44.942950     44.942950     89.885899
     -3.608609     46.271666     46.271666     92.543332
     -3.598599     45.591720     45.591720     91.183439
     -3.588589     43.194033     43.194033     86.388067
     -3.578579     39.600951     39.600951     79.201901
     -3.568569     35.406315     35.406315     70.812631
     -3.558559     31.142352     31.142352     62.284704
     -3.548549     27.187979     27.187979     54.375958
     -3.538539     23.721384     23.721384     47.442768
     -3.528529     20.724434     20.724434     41.448869
     -3.518519     18.045211     18.045211     36.090421
     -3.508509     15.504541     15.504541     31.009082
     -3.498498     13.005720     13.005720     26.011441
     -3.488488     10.598721     10.598721     21.197443
     -3.478478      8.471869      8.471869     16.943738
     -3.468468      6.880429      6.880429     13.760857
     -3.458458      6.047633      6.047633     12.095266
     -3.448448      6.076722      6.076722     12.153445
     -3.438438      6.900104      6.900104     13.800207
     -3.428428      8.278599      8.278599     16.557198
     -3.418418      9.855254      9.855254     19.710509
     -3.408408     11.257626     11.257626     22.515253
     -3.398398     12.223940     12.223940     24.447881
     -3.388388     12.709065     12.709065     25.418129
     -3.378378     12.922815     12.922815     25.845631
     -3.368368     13.276183     13.276183     26.552367
     -3.358358     14.251274     14.251274     28.502549
     -3.348348     16.243367     16.243367     32.486734
     -3.338338     19.428324     19.428324     38.856648
     -3.328328     23.687193     23.687193     47.374385
     -3.318318     28.593782     28.593782     57.187565
     -3.308308     33.461316     33.461316     66.922631
     -3.298298     37.450406     37.450406     74.900812
     -3.288288     39.740641     39.740641     79.481282
     -3.278278     39.742736     39.742736     79.485472
     -3.268268     37.286902     37.286902     74.573805
     -3.258258     32.702640     32.702640     65.405280
     -3.248248     26.736822     26.736822     53.473643
     -3.238238     20.332163     20.332163     40.664327
     -3.228228     14.359200     14.359200     28.718401
     -3.218218      9.413335      9.413335     18.826670
     -3.208208      5.745065      5.745065     11.490130
     -3.198198      3.320289      3.320289      6.640577
     -3.188188      1.954747      1.954747      3.909494
     -3.178178      1.455113      1.455113      2.910226
     -3.168168      1.719735      1.719735      3.439471
     -3.158158      2.779982      2.779982      5.559965
     -3.148148      4.781399      4.781399      9.562797
     -3.138138      7.912008      7.912008     15.824016
     -3.128128     12.292796     12.292796     24.585593
     -3.118118     17.859269     17.859269     35.718538
     -3.108108     24.278183     24.278183     48.556366
     -3.098098     30.946059     30.946059     61.892119
     -3.088088     37.093951     37.093951     74.187902
     -3.078078     41.978094     41.978094     83.956189
     -3.068068     45.088117     45.088117     90.176233
     -3.058058     46.282041     46.282041     92.564082
     -3.048048     45.780964     45.780964     91.561927
     -3.038038     44.022326     44.022326     88.044653
     -3.028028     41.446825     41.446825     82.893650
     -3.018018     38.333794     38.333794     76.667588
     -3.008008     34.772886     34.772886     69.545771
     -2.997998     30.777670     30.777670     61.555340
     -2.987988     26.461126     26.461126     52.922252
     -2.977978     22.160247     22.160247     44.320493
     -2.967968     18.434939     18.434939     36.869877
     -2.957958     15.942231     15.942231     31.884462
     -2.947948     15.247121     15.247121     30.494241
     -2.937938     16.645775     16.645775     33.291551
     -2.927928     20.054839     20.054839     40.109677
     -2.917918     24.991424     24.991424     49.982848
     -2.907908     30.649502     30.649502     61.299004
     -2.897898     36.064396     36.064396     72.128792
     -2.887888     40.335421     40.335421     80.670842
     -2.877878     42.848093     42.848093     85.696186
     -2.867868     43.420298     43.420298     86.840596
     -2.857858     42.311927     42.311927     84.623854
     -2.847848     40.087664     40.087664     80.175327
     -2.837838     37.386729     37.386729     74.773457
     -2.827828     34.697226     34.697226     69.394451
     -2.817818     32.230343     32.230343     64.460685
     -2.807808     29.939555     29.939555     59.879111
     -2.797798     27.657420     27.657420     55.314840
     -2.787788     25.265986     25.265986     50.531972
     -2.777778     22.806581     22.806581     45.613163
     -2.767768     20.475723     20.475723     40.951447
     -2.757758     18.522551     18.522551     37.045102
     -2.747748     17.119876     17.119876     34.239752
     -2.737738     16.292509     16.292509     32.585017
     -2.727728     15.945785     15.945785     31.891570
     -2.717718     15.969255     15.969255     31.938510
     -2.707708     16.338775     16.338775     32.677550
     -2.697698     17.139995     17.139995     34.279990
     -2.687688     18.490012     18.490012     36.980024
     -2.677678     20.407360     20.407360     40.814719
     -2.667668     22.723012     22.723012     45.446023
     -2.657658     25.104347     25.104347     50.208694
     -2.647648     27.190385     27.190385     54.380771
     -2.637638     28.759168     28.759168     57.518335
     -2.627628     29.822238     29.822238     59.644475
     -2.617618     30.587524     30.587524     61.175048
     -2.607608     31.318540     31.318540     62.637080
     -2.597598     32.181801     32.181801     64.363602
     -2.587588     33.170118     33.170118     66.340236
     -2.577578     34.125652     34.125652     68.251304
     -2.567568     34.818292     34.818292     69.636585
     -2.557558     35.015908     35.015908     70.031816
     -2.547548     34.519939     34.519939     69.039879
     -2.537538     33.189499     33.189499     66.378999
     -2.527528     30.989400     30.989400     61.978801
     -2.517518     28.061878     28.061878     56.123756
     -2.507508     24.774845     24.774845     49.549690
     -2.497497     21.688412     21.688412     43.376824
     -2.487487     19.420754     19.420754     38.841507
     -2.477477     18.456419     18.456419     36.912838
     -2.467467     18.981186     18.981186     37.962373
     -2.457457     20.821884     20.821884     41.643769
     -2.447447     23.522531     23.522531     47.045062
     -2.437437     26.525893     26.525893     53.051786
     -2.427427     29.381619     29.381619     58.763238
     -2.417417     31.889190     31.889190     63.778380
     -2.407407     34.111707     34.111707     68.223414
     -2.397397     36.254078     36.254078     72.508155
     -2.387387     38.462313     38.462313     76.924626
     -2.377377     40.641690     40.641690     81.283380
     -2.367367     42.390332     42.390332     84.780664
     -2.357357     43.097391     43.097391     86.194782
     -2.347347     42.177892     42.177892     84.355785
     -2.337337     39.344316     39.344316     78.688632
     -2.327327     34.788119     34.788119     69.576238
     -2.317317     29.183265     29.183265     58.366530
     -2.307307     23.510085     23.510085     47.020170
     -2.297297     18.781203     18.781203     37.562407
     -2.287287     15.783942     15.783942     31.567884
     -2.277277     14.924723     14.924723     29.849446
     -2.267267     16.200026     16.200026     32.400053
     -2.257257     19.266862     19.266862     38.533725
     -2.247247     23.564868     23.564868     47.129736
     -2.237237     28.446324     28.446324     56.892648
     -2.227227     33.283401     33.283401     66.566801
     -2.217217     37.535356     37.535356     75.070711
     -2.207207     40.773934     40.773934     81.547868
     -2.197197     42.683441     42.683441     85.366883
     -2.187187     43.064171     43.064171     86.128343
     -2.177177     41.860959     41.860959     83.721919
     -2.167167     39.210238     39.210238     78.420476
     -2.157157     35.466392     35.466392     70.932784
     -2.147147     31.159866     31.159866     62.319731
     -2.137137     26.871045     26.871045     53.742090
     -2.127127     23.060023     23.060023     46.120045
     -2.117117     19.932859     19.932859     39.865719
     -2.107107     17.415680     17.415680     34.831361
     -2.097097     15.250025     15.250025     30.500049
     -2.087087     13.154599     13.154599     26.309198
     -2.077077     10.966077     10.966077     21.932154
     -2.067067      8.693799      8.693799     17.387598
     -2.057057      6.479893      6.479893     12.959786
     -2.047047      4.507110      4.507110      9.014220
     -2.037037      2.912350      2.912350      5.824699
     -2.027027      1.744091      1.744091      3.488182
     -2.017017      0.968331      0.968331      1.936662
     -2.007007      0.503591      0.503591      1.007183
     -1.996997      0.260723      0.260723      0.521445
     -1.986987      0.172397      0.172397      0.344795
     -1.976977      0.209183      0.209183      0.418366
     -1.966967      0.385788      0.385788      0.771575
     -1.956957      0.760745      0.760745      1.521491
     -1.946947      1.428504      1.428504      2.857008
     -1.936937      2.499530      2.499530      4.999060
     -1.926927      4.065770      4.065770      8.131540
     -1.916917      6.156505      6.156505     12.313011
     -1.906907      8.699557      8.699557     17.399114
     -1.896897     11.507363     11.507363     23.014726
     -1.886887     14.300901     14.300901     28.601802
     -1.876877     16.768302     16.768302     33.536604
     -1.866867     18.639047     18.639047     37.278095
     -1.856857     19.748964     19.748964     39.497929
     -1.846847     20.077309     20.077309     40.154618
     -1.836837     19.747434     19.747434     39.494868
     -1.826827     18.989943     18.989943     37.979885
     -1.816817     18.073732     18.073732     36.147464
     -1.806807     17.222161     17.222161     34.444321
     -1.796797     16.546354     16.546354     33.092708
     -1.786787     16.030559     16.030559     32.061118
     -1.776777     15.582263     15.582263     31.164526
     -1.766767     15.119750     15.119750     30.239499
     -1.756757     14.640322     14.640322     29.280645
     -1.746747     14.220943     14.220943     28.441887
     -1.736737     13.949194     13.949194     27.898388
     -1.726727     13.834526     13.834526     27.669052
     -1.716717     13.768079     13.768079     27.536158
     -1.706707     13.568297     13.568297     27.136593
     -1.696697     13.090242     13.090242     26.180485
     -1.686687     12.330592     12.330592     24.661184
     -1.676677     11.459013     11.459013     22.918025
     -1.666667     10.749765     10.749765     21.499529
     -1.656657     10.446118     10.446118     20.892236
     -1.646647     10.628953     10.628953     21.257905
     -1.636637     11.159529     11.159529     22.319057
     -1.626627     11.728508     11.728508     23.457017
