# EIG2DOS: Utility for SIESTA to obtain the electronic density of states
#  E. Artacho, Apr 1999, A. Garcia, Apr 2012
#  Nick R. Papior, Feb 2017
# ------------------------------------------
# Eigenvalues calculated from a non-polarized calculation
# Eigenvalues read from siesta.EIG
# Kpoint weights read from siesta.KP
# Using smearing parameter:   0.0500
# Using 1000 points in the energy range
# Selected bands: 1 to: 2981
# Emin, Emax in file for selected band(s):    -27.0645411    218.3188000
# Nbands, Nspin, Nk   =   2981     1     1
# E_F                 =    -4.2899 eV --> (shifted to ZERO)
# Broadening          =     0.0500 eV
#
#        E            N(up)  (=)   N(down)         Ntot
     -5.000000     44.039567     44.039567     88.079133
     -4.989990     48.697721     48.697721     97.395442
     -4.979980     51.898496     51.898496    103.796992
     -4.969970     53.190239     53.190239    106.380478
     -4.959960     52.436872     52.436872    104.873743
     -4.949950     49.852771     49.852771     99.705543
     -4.939940     45.941379     45.941379     91.882759
     -4.929930     41.381110     41.381110     82.762220
     -4.919920     36.916359     36.916359     73.832718
     -4.909910     33.285404     33.285404     66.570809
     -4.899900     31.170957     31.170957     62.341914
     -4.889890     31.127115     31.127115     62.254230
     -4.879880     33.447066     33.447066     66.894133
     -4.869870     37.991727     37.991727     75.983454
     -4.859860     44.067503     44.067503     88.135006
     -4.849850     50.466831     50.466831    100.933661
     -4.839840     55.730357     55.730357    111.460715
     -4.829830     58.570919     58.570919    117.141839
     -4.819820     58.288680     58.288680    116.577360
     -4.809810     54.984632     54.984632    109.969265
     -4.799800     49.472914     49.472914     98.945828
     -4.789790     42.946475     42.946475     85.892951
     -4.779780     36.566873     36.566873     73.133745
     -4.769770     31.158058     31.158058     62.316115
     -4.759760     27.095586     27.095586     54.191171
     -4.749750     24.368837     24.368837     48.737674
     -4.739740     22.727082     22.727082     45.454165
     -4.729730     21.822331     21.822331     43.644662
     -4.719720     21.304507     21.304507     42.609014
     -4.709710     20.867055     20.867055     41.734111
     -4.699700     20.263536     20.263536     40.527072
     -4.689690     19.319847     19.319847     38.639693
     -4.679680     17.959466     17.959466     35.918931
     -4.669670     16.244069     16.244069     32.488139
     -4.659660     14.413605     14.413605     28.827210
     -4.649650     12.897786     12.897786     25.795573
     -4.639640     12.272968     12.272968     24.545937
     -4.629630     13.153530     13.153530     26.307059
     -4.619620     16.028057     16.028057     32.056114
     -4.609610     21.073067     21.073067     42.146135
     -4.599600     27.999483     27.999483     55.998965
     -4.589590     36.002376     36.002376     72.004753
     -4.579580     43.874585     43.874585     87.749171
     -4.569570     50.293994     50.293994    100.587988
     -4.559560     54.212409     54.212409    108.424817
     -4.549550     55.203025     55.203025    110.406050
     -4.539540     53.613980     53.613980    107.227959
     -4.529530     50.446938     50.446938    100.893877
     -4.519520     47.000717     47.000717     94.001434
     -4.509510     44.425519     44.425519     88.851038
     -4.499499     43.367382     43.367382     86.734764
     -4.489489     43.831216     43.831216     87.662432
     -4.479479     45.287077     45.287077     90.574155
     -4.469469     46.942955     46.942955     93.885909
     -4.459459     48.053588     48.053588     96.107176
     -4.449449     48.144371     48.144371     96.288742
     -4.439439     47.087375     47.087375     94.174750
     -4.429429     45.040432     45.040432     90.080864
     -4.419419     42.315720     42.315720     84.631441
     -4.409409     39.258472     39.258472     78.516944
     -4.399399     36.186440     36.186440     72.372880
     -4.389389     33.387253     33.387253     66.774506
     -4.379379     31.129114     31.129114     62.258228
     -4.369369     29.638889     29.638889     59.277777
     -4.359359     29.040146     29.040146     58.080291
     -4.349349     29.290518     29.290518     58.581035
     -4.339339     30.173837     30.173837     60.347675
     -4.329329     31.373093     31.373093     62.746186
     -4.319319     32.597406     32.597406     65.194813
     -4.309309     33.699646     33.699646     67.399293
     -4.299299     34.725462     34.725462     69.450924
     -4.289289     35.871530     35.871530     71.743060
     -4.279279     37.372322     37.372322     74.744643
     -4.269269     39.359064     39.359064     78.718128
     -4.259259     41.740830     41.740830     83.481660
     -4.249249     44.155234     44.155234     88.310468
     -4.239239     46.025357     46.025357     92.050715
     -4.229229     46.728999     46.728999     93.457999
     -4.219219     45.833007     45.833007     91.666014
     -4.209209     43.293826     43.293826     86.587651
     -4.199199     39.517767     39.517767     79.035533
     -4.189189     35.233670     35.233670     70.467339
     -4.179179     31.230058     31.230058     62.460115
     -4.169169     28.085038     28.085038     56.170076
     -4.159159     26.018321     26.018321     52.036642
     -4.149149     24.921868     24.921868     49.843736
     -4.139139     24.528761     24.528761     49.057523
     -4.129129     24.616174     24.616174     49.232348
     -4.119119     25.134122     25.134122     50.268244
     -4.109109     26.197309     26.197309     52.394617
     -4.099099     27.946757     27.946757     55.893514
     -4.089089     30.354687     30.354687     60.709374
     -4.079079     33.084655     33.084655     66.169311
     -4.069069     35.505365     35.505365     71.010730
     -4.059059     36.883930     36.883930     73.767861
     -4.049049     36.682234     36.682234     73.364468
     -4.039039     34.808750     34.808750     69.617500
     -4.029029     31.690521     31.690521     63.381041
     -4.019019     28.126242     28.126242     56.252484
     -4.009009     25.002032     25.002032     50.004064
     -3.998999     23.017848     23.017848     46.035696
     -3.988989     22.545304     22.545304     45.090608
     -3.978979     23.643748     23.643748     47.287496
     -3.968969     26.170397     26.170397     52.340795
     -3.958959     29.890471     29.890471     59.780942
     -3.948949     34.532039     34.532039     69.064077
     -3.938939     39.795168     39.795168     79.590335
     -3.928929     45.361385     45.361385     90.722771
     -3.918919     50.933514     50.933514    101.867027
     -3.908909     56.289035     56.289035    112.578071
     -3.898899     61.297426     61.297426    122.594852
     -3.888889     65.864208     65.864208    131.728416
     -3.878879     69.815682     69.815682    139.631363
     -3.868869     72.792003     72.792003    145.584005
     -3.858859     74.233004     74.233004    148.466008
     -3.848849     73.503933     73.503933    147.007867
     -3.838839     70.133495     70.133495    140.266991
     -3.828829     64.065427     64.065427    128.130853
     -3.818819     55.800629     55.800629    111.601259
     -3.808809     46.348268     46.348268     92.696537
     -3.798799     36.990791     36.990791     73.981582
     -3.788789     28.951368     28.951368     57.902736
     -3.778779     23.088208     23.088208     46.176415
     -3.768769     19.716199     19.716199     39.432397
     -3.758759     18.595538     18.595538     37.191077
     -3.748749     19.066399     19.066399     38.132799
     -3.738739     20.272840     20.272840     40.545681
     -3.728729     21.410490     21.410490     42.820981
     -3.718719     21.939804     21.939804     43.879608
     -3.708709     21.719202     21.719202     43.438404
     -3.698699     21.027285     21.027285     42.054571
     -3.688689     20.463388     20.463388     40.926777
     -3.678679     20.743894     20.743894     41.487787
     -3.668669     22.445319     22.445319     44.890638
     -3.658659     25.773499     25.773499     51.546997
     -3.648649     30.444337     30.444337     60.888675
     -3.638639     35.731643     35.731643     71.463286
     -3.628629     40.674034     40.674034     81.348068
     -3.618619     44.362487     44.362487     88.724973
     -3.608609     46.192989     46.192989     92.385978
     -3.598599     45.990781     45.990781     91.981561
     -3.588589     43.981572     43.981572     87.963144
     -3.578579     40.655805     40.655805     81.311609
     -3.568569     36.601444     36.601444     73.202888
     -3.558559     32.362189     32.362189     64.724378
     -3.548549     28.341460     28.341460     56.682920
     -3.538539     24.752187     24.752187     49.504374
     -3.528529     21.614408     21.614408     43.228815
     -3.518519     18.806310     18.806310     37.612620
     -3.508509     16.160427     16.160427     32.320855
     -3.498498     13.571160     13.571160     27.142320
     -3.488488     11.066813     11.066813     22.133627
     -3.478478      8.814556      8.814556     17.629112
     -3.468468      7.060815      7.060815     14.121631
     -3.458458      6.038156      6.038156     12.076312
     -3.448448      5.876497      5.876497     11.752994
     -3.438438      6.545837      6.545837     13.091674
     -3.428428      7.844477      7.844477     15.688954
     -3.418418      9.438815      9.438815     18.877629
     -3.408408     10.952685     10.952685     21.905371
     -3.398398     12.087873     12.087873     24.175747
     -3.388388     12.736463     12.736463     25.472927
     -3.378378     13.036682     13.036682     26.073365
     -3.368368     13.340959     13.340959     26.681919
     -3.358358     14.103668     14.103668     28.207336
     -3.348348     15.732709     15.732709     31.465418
     -3.338338     18.459167     18.459167     36.918335
     -3.328328     22.258669     22.258669     44.517337
     -3.318318     26.827690     26.827690     53.655380
     -3.308308     31.604956     31.604956     63.209911
     -3.298298     35.839128     35.839128     71.678255
     -3.288288     38.717301     38.717301     77.434601
     -3.278278     39.554880     39.554880     79.109759
     -3.268268     38.002669     38.002669     76.005338
     -3.258258     34.185665     34.185665     68.371330
     -3.248248     28.694342     28.694342     57.388684
     -3.238238     22.413892     22.413892     44.827783
     -3.228228     16.260862     16.260862     32.521724
     -3.218218     10.941953     10.941953     21.883906
     -3.208208      6.827517      6.827517     13.655034
     -3.198198      3.964144      3.964144      7.928287
     -3.188188      2.185313      2.185313      4.370627
     -3.178178      1.252495      1.252495      2.504991
     -3.168168      0.972790      0.972790      1.945580
     -3.158158      1.269895      1.269895      2.539789
     -3.148148      2.208130      2.208130      4.416261
     -3.138138      3.975012      3.975012      7.950024
     -3.128128      6.823070      6.823070     13.646140
     -3.118118     10.970184     10.970184     21.940369
     -3.108108     16.469656     16.469656     32.939312
     -3.098098     23.085366     23.085366     46.170732
     -3.088088     30.229332     30.229332     60.458664
     -3.078078     37.017582     37.017582     74.035163
     -3.068068     42.461863     42.461863     84.923725
     -3.058058     45.748465     45.748465     91.496930
     -3.048048     46.496339     46.496339     92.992679
     -3.038038     44.877053     44.877053     89.754106
     -3.028028     41.536416     41.536416     83.072833
     -3.018018     37.354320     37.354320     74.708640
     -3.008008     33.157192     33.157192     66.314385
     -2.997998     29.509483     29.509483     59.018966
     -2.987988     26.655539     26.655539     53.311078
     -2.977978     24.602389     24.602389     49.204778
     -2.967968     23.274667     23.274667     46.549333
     -2.957958     22.656427     22.656427     45.312854
     -2.947948     22.853814     22.853814     45.707629
     -2.937938     24.051375     24.051375     48.102751
     -2.927928     26.381607     26.381607     52.763213
     -2.917918     29.770467     29.770467     59.540934
     -2.907908     33.842746     33.842746     67.685491
     -2.897898     37.952758     37.952758     75.905517
     -2.887888     41.348428     41.348428     82.696856
     -2.877878     43.407071     43.407071     86.814142
     -2.867868     43.838396     43.838396     87.676792
     -2.857858     42.760739     42.760739     85.521479
     -2.847848     40.616395     40.616395     81.232790
     -2.837838     37.969239     37.969239     75.938477
     -2.827828     35.282153     35.282153     70.564307
     -2.817818     32.775990     32.775990     65.551980
     -2.807808     30.425651     30.425651     60.851302
     -2.797798     28.077422     28.077422     56.154844
     -2.787788     25.612096     25.612096     51.224192
     -2.777778     23.061061     23.061061     46.122121
     -2.767768     20.615324     20.615324     41.230649
     -2.757758     18.531787     18.531787     37.063574
     -2.747748     17.000694     17.000694     34.001388
     -2.737738     16.058960     16.058960     32.117919
     -2.727728     15.603134     15.603134     31.206267
     -2.717718     15.491073     15.491073     30.982146
     -2.707708     15.662583     15.662583     31.325165
     -2.697698     16.194596     16.194596     32.389191
     -2.687688     17.247617     17.247617     34.495233
     -2.677678     18.932704     18.932704     37.865408
     -2.667668     21.185223     21.185223     42.370447
     -2.657658     23.733551     23.733551     47.467102
     -2.647648     26.193091     26.193091     52.386182
     -2.637638     28.234464     28.234464     56.468928
     -2.627628     29.724371     29.724371     59.448741
     -2.617618     30.754735     30.754735     61.509469
     -2.607608     31.549601     31.549601     63.099203
     -2.597598     32.317117     32.317117     64.634234
     -2.587588     33.139546     33.139546     66.279092
     -2.577578     33.952756     33.952756     67.905511
     -2.567568     34.596624     34.596624     69.193249
     -2.557558     34.878331     34.878331     69.756662
     -2.547548     34.608839     34.608839     69.217678
     -2.537538     33.622508     33.622508     67.245017
     -2.527528     31.817440     31.817440     63.634880
     -2.517518     29.231444     29.231444     58.462887
     -2.507508     26.117709     26.117709     52.235418
     -2.497497     22.955278     22.955278     45.910556
     -2.487487     20.353108     20.353108     40.706217
     -2.477477     18.868530     18.868530     37.737059
     -2.467467     18.817188     18.817188     37.634376
     -2.457457     20.164809     20.164809     40.329617
     -2.447447     22.554818     22.554818     45.109637
     -2.437437     25.461748     25.461748     50.923495
     -2.427427     28.401030     28.401030     56.802061
     -2.417417     31.098655     31.098655     62.197311
     -2.407407     33.541738     33.541738     67.083476
     -2.397397     35.886782     35.886782     71.773565
     -2.387387     38.271660     38.271660     76.543320
     -2.377377     40.627406     40.627406     81.254811
     -2.367367     42.591550     42.591550     85.183100
     -2.357357     43.580515     43.580515     87.161029
     -2.347347     43.002920     43.002920     86.005840
     -2.337337     40.523734     40.523734     81.047468
     -2.327327     36.258306     36.258306     72.516613
     -2.317317     30.804731     30.804731     61.609462
     -2.307307     25.099025     25.099025     50.198051
     -2.297297     20.158201     20.158201     40.316402
     -2.287287     16.817143     16.817143     33.634287
     -2.277277     15.549938     15.549938     31.099877
     -2.267267     16.414579     16.414579     32.829158
     -2.257257     19.107651     19.107651     38.215301
     -2.247247     23.086411     23.086411     46.172823
     -2.237237     27.710462     27.710462     55.420924
     -2.227227     32.362886     32.362886     64.725772
     -2.217217     36.524337     36.524337     73.048674
     -2.207207     39.793439     39.793439     79.586877
     -2.197197     41.871638     41.871638     83.743277
     -2.187187     42.548933     42.548933     85.097865
     -2.177177     41.722976     41.722976     83.445953
     -2.167167     39.453204     39.453204     78.906407
     -2.157157     36.011183     36.011183     72.022366
     -2.147147     31.870140     31.870140     63.740279
     -2.137137     27.601989     27.601989     55.203978
     -2.127127     23.708784     23.708784     47.417568
     -2.117117     20.467070     20.467070     40.934141
     -2.107107     17.867821     17.867821     35.735642
     -2.097097     15.683762     15.683762     31.367523
     -2.087087     13.623329     13.623329     27.246658
     -2.077077     11.485347     11.485347     22.970694
     -2.067067      9.238377      9.238377     18.476754
     -2.057057      7.001307      7.001307     14.002615
     -2.047047      4.957982      4.957982      9.915964
     -2.037037      3.264150      3.264150      6.528299
     -2.027027      1.992230      1.992230      3.984460
     -2.017017      1.126544      1.126544      2.253089
     -2.007007      0.593646      0.593646      1.187292
     -1.996997      0.302895      0.302895      0.605789
     -1.986987      0.179182      0.179182      0.358364
     -1.976977      0.182081      0.182081      0.364162
     -1.966967      0.314184      0.314184      0.628368
     -1.956957      0.622708      0.622708      1.245416
     -1.946947      1.194660      1.194660      2.389321
     -1.936937      2.141561      2.141561      4.283122
     -1.926927      3.569470      3.569470      7.138940
     -1.916917      5.535979      5.535979     11.071959
     -1.906907      8.005820      8.005820     16.011639
     -1.896897     10.824333     10.824333     21.648667
     -1.886887     13.726214     13.726214     27.452427
     -1.876877     16.384013     16.384013     32.768026
     -1.866867     18.483629     18.483629     36.967258
     -1.856857     19.802599     19.802599     39.605199
     -1.846847     20.266794     20.266794     40.533588
     -1.836837     19.968551     19.968551     39.937102
     -1.826827     19.138272     19.138272     38.276545
     -1.816817     18.071471     18.071471     36.142942
     -1.806807     17.028232     17.028232     34.056463
     -1.796797     16.140234     16.140234     32.280468
     -1.786787     15.368842     15.368842     30.737684
     -1.776777     14.541763     14.541763     29.083527
     -1.766767     13.457045     13.457045     26.914090
     -1.756757     12.004612     12.004612     24.009224
     -1.746747     10.244877     10.244877     20.489755
     -1.736737      8.409518      8.409518     16.819036
     -1.726727      6.832587      6.832587     13.665173
     -1.716717      5.850822      5.850822     11.701645
     -1.706707      5.714141      5.714141     11.428282
     -1.696697      6.528426      6.528426     13.056851
     -1.686687      8.233036      8.233036     16.466073
     -1.676677     10.607874     10.607874     21.215748
     -1.666667     13.306711     13.306711     26.613421
     -1.656657     15.914213     15.914213     31.828425
     -1.646647     18.018722     18.018722     36.037444
     -1.636637     19.286355     19.286355     38.572710
     -1.626627     19.521528     19.521528     39.043057
