# EIG2DOS: Utility for SIESTA to obtain the electronic density of states
#  E. Artacho, Apr 1999, A. Garcia, Apr 2012
#  Nick R. Papior, Feb 2017
# ------------------------------------------
# Eigenvalues calculated from a non-polarized calculation
# Eigenvalues read from siesta.EIG
# Kpoint weights read from siesta.KP
# Using smearing parameter:   0.0500
# Using 1000 points in the energy range
# Selected bands: 1 to: 2981
# Emin, Emax in file for selected band(s):    -27.0388712    218.3133240
# Nbands, Nspin, Nk   =   2981     1     1
# E_F                 =    -4.2949 eV --> (shifted to ZERO)
# Broadening          =     0.0500 eV
#
#        E            N(up)  (=)   N(down)         Ntot
     -5.000000     44.782545     44.782545     89.565089
     -4.989990     49.176536     49.176536     98.353071
     -4.979980     52.032224     52.032224    104.064449
     -4.969970     52.966143     52.966143    105.932287
     -4.959960     51.911036     51.911036    103.822071
     -4.949950     49.130845     49.130845     98.261691
     -4.939940     45.150018     45.150018     90.300036
     -4.929930     40.642559     40.642559     81.285118
     -4.919920     36.333705     36.333705     72.667410
     -4.909910     32.938175     32.938175     65.876349
     -4.899900     31.114679     31.114679     62.229358
     -4.889890     31.389203     31.389203     62.778405
     -4.879880     34.015635     34.015635     68.031271
     -4.869870     38.801675     38.801675     77.603350
     -4.859860     44.994963     44.994963     89.989925
     -4.849850     51.343582     51.343582    102.687164
     -4.839840     56.381349     56.381349    112.762698
     -4.829830     58.864165     58.864165    117.728330
     -4.819820     58.176274     58.176274    116.352549
     -4.809810     54.514878     54.514878    109.029755
     -4.799800     48.767341     48.767341     97.534682
     -4.789790     42.153501     42.153501     84.307002
     -4.779780     35.814217     35.814217     71.628434
     -4.769770     30.522999     30.522999     61.045999
     -4.759760     26.599690     26.599690     53.199380
     -4.749750     23.991427     23.991427     47.982854
     -4.739740     22.426467     22.426467     44.852934
     -4.729730     21.555688     21.555688     43.111375
     -4.719720     21.041813     21.041813     42.083627
     -4.709710     20.597752     20.597752     41.195505
     -4.699700     19.996178     19.996178     39.992356
     -4.689690     19.076282     19.076282     38.152564
     -4.679680     17.766680     17.766680     35.533360
     -4.669670     16.127657     16.127657     32.255314
     -4.659660     14.395606     14.395606     28.791212
     -4.649650     12.998490     12.998490     25.996979
     -4.639640     12.512982     12.512982     25.025965
     -4.629630     13.551191     13.551191     27.102383
     -4.619620     16.589424     16.589424     33.178849
     -4.609610     21.776772     21.776772     43.553544
     -4.599600     28.784096     28.784096     57.568192
     -4.589590     36.766055     36.766055     73.532110
     -4.579580     44.492935     44.492935     88.985871
     -4.569570     50.653000     50.653000    101.306000
     -4.559560     54.243761     54.243761    108.487522
     -4.549550     54.905627     54.905627    109.811254
     -4.539540     53.051204     53.051204    106.102408
     -4.529530     49.721503     49.721503     99.443005
     -4.519520     46.220026     46.220026     92.440051
     -4.509510     43.672915     43.672915     87.345830
     -4.499499     42.687611     42.687611     85.375222
     -4.489489     43.227165     43.227165     86.454329
     -4.479479     44.718072     44.718072     89.436145
     -4.469469     46.318241     46.318241     92.636481
     -4.459459     47.226589     47.226589     94.453179
     -4.449449     46.925397     46.925397     93.850794
     -4.439439     45.293169     45.293169     90.586338
     -4.429429     42.581746     42.581746     85.163491
     -4.419419     39.294153     39.294153     78.588307
     -4.409409     36.019399     36.019399     72.038797
     -4.399399     33.278073     33.278073     66.556145
     -4.389389     31.415492     31.415492     62.830984
     -4.379379     30.556609     30.556609     61.113219
     -4.369369     30.617701     30.617701     61.235403
     -4.359359     31.359178     31.359178     62.718356
     -4.349349     32.461927     32.461927     64.923854
     -4.339339     33.611797     33.611797     67.223594
     -4.329329     34.577710     34.577710     69.155420
     -4.319319     35.267414     35.267414     70.534828
     -4.309309     35.745530     35.745530     71.491061
     -4.299299     36.206013     36.206013     72.412026
     -4.289289     36.903750     36.903750     73.807499
     -4.279279     38.060666     38.060666     76.121333
     -4.269269     39.766562     39.766562     79.533123
     -4.259259     41.898563     41.898563     83.797127
     -4.249249     44.090317     44.090317     88.180634
     -4.239239     45.785091     45.785091     91.570182
     -4.229229     46.387544     46.387544     92.775087
     -4.219219     45.479708     45.479708     90.959416
     -4.209209     43.011960     43.011960     86.023920
     -4.199199     39.364972     39.364972     78.729943
     -4.189189     35.231560     35.231560     70.463121
     -4.179179     31.364532     31.364532     62.729064
     -4.169169     28.314502     28.314502     56.629004
     -4.159159     26.286013     26.286013     52.572026
     -4.149149     25.169544     25.169544     50.339087
     -4.139139     24.710122     24.710122     49.420244
     -4.129129     24.708175     24.708175     49.416351
     -4.119119     25.142973     25.142973     50.285947
     -4.109109     26.155510     26.155510     52.311020
     -4.099099     27.899878     27.899878     55.799756
     -4.089089     30.341794     30.341794     60.683589
     -4.079079     33.121362     33.121362     66.242723
     -4.069069     35.579034     35.579034     71.158067
     -4.059059     36.964626     36.964626     73.929252
     -4.049049     36.743315     36.743315     73.486629
     -4.039039     34.844172     34.844172     69.688344
     -4.029029     31.717417     31.717417     63.434833
     -4.019019     28.170963     28.170963     56.341926
     -4.009009     25.079154     25.079154     50.158308
     -3.998999     23.116535     23.116535     46.233070
     -3.988989     22.632274     22.632274     45.264549
     -3.978979     23.680756     23.680756     47.361512
     -3.968969     26.134786     26.134786     52.269573
     -3.958959     29.786429     29.786429     59.572858
     -3.948949     34.387426     34.387426     68.774852
     -3.938939     39.648162     39.648162     79.296324
     -3.928929     45.245987     45.245987     90.491973
     -3.918919     50.870965     50.870965    101.741931
     -3.908909     56.286518     56.286518    112.573036
     -3.898899     61.350848     61.350848    122.701697
     -3.888889     65.961125     65.961125    131.922251
     -3.878879     69.936444     69.936444    139.872889
     -3.868869     72.909890     72.909890    145.819780
     -3.858859     74.315553     74.315553    148.631105
     -3.848849     73.517533     73.517533    147.035065
     -3.838839     70.051711     70.051711    140.103423
     -3.828829     63.878979     63.878979    127.757959
     -3.818819     55.524722     55.524722    111.049444
     -3.808809     46.022724     46.022724     92.045448
     -3.798799     36.671026     36.671026     73.342053
     -3.788789     28.692574     28.692574     57.385149
     -3.778779     22.928631     22.928631     45.857261
     -3.768769     19.666030     19.666030     39.332060
     -3.758759     18.635471     18.635471     37.270941
     -3.748749     19.155941     19.155941     38.311881
     -3.738739     20.365056     20.365056     40.730111
     -3.728729     21.468095     21.468095     42.936191
     -3.718719     21.947530     21.947530     43.895061
     -3.708709     21.688651     21.688651     43.377301
     -3.698699     20.992568     20.992568     41.985136
     -3.688689     20.468459     20.468459     40.936919
     -3.678679     20.825284     20.825284     41.650568
     -3.668669     22.616263     22.616263     45.232527
     -3.658659     26.015972     26.015972     52.031944
     -3.648649     30.713150     30.713150     61.426300
     -3.638639     35.969676     35.969676     71.939353
     -3.628629     40.832159     40.832159     81.664317
     -3.618619     44.415098     44.415098     88.830196
     -3.608609     46.142519     46.142519     92.285039
     -3.598599     45.860786     45.860786     91.721573
     -3.588589     43.803944     43.803944     87.607888
     -3.578579     40.459400     40.459400     80.918799
     -3.568569     36.406408     36.406408     72.812816
     -3.558559     32.179503     32.179503     64.359007
     -3.548549     28.174638     28.174638     56.349275
     -3.538539     24.598866     24.598866     49.197733
     -3.528529     21.468014     21.468014     42.936028
     -3.518519     18.659084     18.659084     37.318168
     -3.508509     16.008009     16.008009     32.016017
     -3.498498     13.416962     13.416962     26.833924
     -3.488488     10.923707     10.923707     21.847413
     -3.478478      8.702558      8.702558     17.405116
     -3.468468      7.001447      7.001447     14.002894
     -3.458458      6.047366      6.047366     12.094732
     -3.448448      5.958192      5.958192     11.916384
     -3.438438      6.687792      6.687792     13.375584
     -3.428428      8.018256      8.018256     16.036512
     -3.418418      9.604979      9.604979     19.209958
     -3.408408     11.071163     11.071163     22.142326
     -3.398398     12.130951     12.130951     24.261902
     -3.388388     12.699838     12.699838     25.399675
     -3.378378     12.944086     12.944086     25.888172
     -3.368368     13.240341     13.240341     26.480682
     -3.358358     14.056138     14.056138     28.112276
     -3.348348     15.797355     15.797355     31.594710
     -3.338338     18.676805     18.676805     37.353611
     -3.328328     22.637113     22.637113     45.274226
     -3.318318     27.331815     27.331815     54.663630
     -3.308308     32.156363     32.156363     64.312726
     -3.298298     36.329843     36.329843     72.659686
     -3.288288     39.037319     39.037319     78.074638
     -3.278278     39.625674     39.625674     79.251348
     -3.268268     37.803101     37.803101     75.606202
     -3.258258     33.758134     33.758134     67.516269
     -3.248248     28.128068     28.128068     56.256137
     -3.238238     21.813517     21.813517     43.627034
     -3.228228     15.714923     15.714923     31.429846
     -3.218218     10.503602     10.503602     21.007204
     -3.208208      6.511690      6.511690     13.023380
     -3.198198      3.756994      3.756994      7.513988
     -3.188188      2.057760      2.057760      4.115520
     -3.178178      1.170786      1.170786      2.341572
     -3.168168      0.902690      0.902690      1.805379
     -3.158158      1.174801      1.174801      2.349602
     -3.148148      2.043818      2.043818      4.087635
     -3.138138      3.685106      3.685106      7.370212
     -3.128128      6.340205      6.340205     12.680410
     -3.118118     10.227597     10.227597     20.455193
     -3.108108     15.425214     15.425214     30.850428
     -3.098098     21.753570     21.753570     43.507141
     -3.088088     28.708101     28.708101     57.416201
     -3.078078     35.490728     35.490728     70.981456
     -3.068068     41.161719     41.161719     82.323438
     -3.058058     44.878966     44.878966     89.757932
     -3.048048     46.139620     46.139620     92.279240
     -3.038038     44.923659     44.923659     89.847317
     -3.028028     41.678692     41.678692     83.357385
     -3.018018     37.161813     37.161813     74.323626
     -3.008008     32.220388     32.220388     64.440775
     -2.997998     27.607342     27.607342     55.214683
     -2.987988     23.884653     23.884653     47.769306
     -2.977978     21.408800     21.408800     42.817600
     -2.967968     20.357531     20.357531     40.715062
     -2.957958     20.762151     20.762151     41.524303
     -2.947948     22.532237     22.532237     45.064475
     -2.937938     25.472894     25.472894     50.945788
     -2.927928     29.293149     29.293149     58.586297
     -2.917918     33.604124     33.604124     67.208248
     -2.907908     37.919281     37.919281     75.838561
     -2.897898     41.685512     41.685512     83.371025
     -2.887888     44.369541     44.369541     88.739081
     -2.877878     45.589916     45.589916     91.179832
     -2.867868     45.241468     45.241468     90.482937
     -2.857858     43.541741     43.541741     87.083482
     -2.847848     40.957931     40.957931     81.915861
     -2.837838     38.034726     38.034726     76.069451
     -2.827828     35.199979     35.199979     70.399957
     -2.817818     32.640382     32.640382     65.280764
     -2.807808     30.303046     30.303046     60.606091
     -2.797798     28.011881     28.011881     56.023763
     -2.787788     25.628026     25.628026     51.256051
     -2.777778     23.164186     23.164186     46.328372
     -2.767768     20.793788     20.793788     41.587576
     -2.757758     18.759042     18.759042     37.518084
     -2.747748     17.241185     17.241185     34.482369
     -2.737738     16.276502     16.276502     32.553003
     -2.727728     15.770438     15.770438     31.540876
     -2.717718     15.597445     15.597445     31.194890
     -2.707708     15.716429     15.716429     31.432857
     -2.697698     16.218881     16.218881     32.437761
     -2.687688     17.269625     17.269625     34.539250
     -2.677678     18.972690     18.972690     37.945380
     -2.667668     21.249609     21.249609     42.499218
     -2.657658     23.816066     23.816066     47.632132
     -2.647648     26.282732     26.282732     52.565464
     -2.637638     28.325043     28.325043     56.650086
     -2.627628     29.819506     29.819506     59.639012
     -2.617618     30.865157     30.865157     61.730314
     -2.607608     31.684721     31.684721     63.369443
     -2.597598     32.476481     32.476481     64.952961
     -2.587588     33.309536     33.309536     66.619072
     -2.577578     34.110049     34.110049     68.220098
     -2.567568     34.715569     34.715569     69.431139
     -2.557558     34.937849     34.937849     69.875697
     -2.547548     34.596480     34.596480     69.192960
     -2.537538     33.536492     33.536492     67.072984
     -2.527528     31.668650     31.668650     63.337300
     -2.517518     29.045477     29.045477     58.090955
     -2.507508     25.934255     25.934255     51.868510
     -2.497497     22.821471     22.821471     45.642942
     -2.487487     20.310313     20.310313     40.620627
     -2.477477     18.936538     18.936538     37.873075
     -2.467467     18.982850     18.982850     37.965700
     -2.457457     20.381424     20.381424     40.762848
     -2.447447     22.754163     22.754163     45.508325
     -2.437437     25.574756     25.574756     51.149512
     -2.427427     28.379043     28.379043     56.758085
     -2.417417     30.927063     30.927063     61.854125
     -2.407407     33.241756     33.241756     66.483512
     -2.397397     35.506470     35.506470     71.012941
     -2.387387     37.871017     37.871017     75.742033
     -2.377377     40.262939     40.262939     80.525879
     -2.367367     42.304072     42.304072     84.608145
     -2.357357     43.388099     43.388099     86.776199
     -2.347347     42.899930     42.899930     85.799860
     -2.337337     40.485931     40.485931     80.971861
     -2.327327     36.252493     36.252493     72.504986
     -2.317317     30.799630     30.799630     61.599260
     -2.307307     25.073581     25.073581     50.147162
     -2.297297     20.104988     20.104988     40.209976
     -2.287287     16.741056     16.741056     33.482113
     -2.277277     15.464076     15.464076     30.928152
     -2.267267     16.335359     16.335359     32.670717
     -2.257257     19.050371     19.050371     38.100743
     -2.247247     23.061872     23.061872     46.123744
     -2.237237     27.723168     27.723168     55.446337
     -2.227227     32.411227     32.411227     64.822454
     -2.217217     36.602347     36.602347     73.204694
     -2.207207     39.892907     39.892907     79.785813
     -2.197197     41.983335     41.983335     83.966670
     -2.187187     42.662896     42.662896     85.325793
     -2.177177     41.828978     41.828978     83.657956
     -2.167167     39.542412     39.542412     79.084824
     -2.157157     36.078580     36.078580     72.157160
     -2.147147     31.915884     31.915884     63.831769
     -2.137137     27.630194     27.630194     55.260388
     -2.127127     23.724067     23.724067     47.448134
     -2.117117     20.471121     20.471121     40.942243
     -2.107107     17.858404     17.858404     35.716808
     -2.097097     15.656829     15.656829     31.313659
     -2.087087     13.576716     13.576716     27.153433
     -2.077077     11.421514     11.421514     22.843028
     -2.067067      9.164521      9.164521     18.329041
     -2.057057      6.926987      6.926987     13.853974
     -2.047047      4.891856      4.891856      9.783711
     -2.037037      3.211582      3.211582      6.423165
     -2.027027      1.954677      1.954677      3.909354
     -2.017017      1.102497      1.102497      2.204994
     -2.007007      0.580340      0.580340      1.160680
     -1.996997      0.298022      0.298022      0.596045
     -1.986987      0.182280      0.182280      0.364560
     -1.976977      0.195600      0.195600      0.391201
     -1.966967      0.344255      0.344255      0.688509
     -1.956957      0.679265      0.679265      1.358531
     -1.946947      1.290184      1.290184      2.580368
     -1.936937      2.287654      2.287654      4.575308
     -1.926927      3.771271      3.771271      7.542541
     -1.916917      5.785945      5.785945     11.571889
     -1.906907      8.279996      8.279996     16.559991
     -1.896897     11.084462     11.084462     22.168924
     -1.886887     13.929035     13.929035     27.858069
     -1.876877     16.495414     16.495414     32.990828
     -1.866867     18.491984     18.491984     36.983967
     -1.856857     19.725054     19.725054     39.450108
     -1.846847     20.145093     20.145093     40.290187
     -1.836837     19.855558     19.855558     39.711116
     -1.826827     19.080124     19.080124     38.160248
     -1.816817     18.091681     18.091681     36.183361
     -1.806807     17.119113     17.119113     34.238225
     -1.796797     16.264581     16.264581     32.529162
     -1.786787     15.471389     15.471389     30.942777
     -1.776777     14.565917     14.565917     29.131833
     -1.766767     13.359117     13.359117     26.718235
     -1.756757     11.757463     11.757463     23.514925
     -1.746747      9.827096      9.827096     19.654192
     -1.736737      7.784301      7.784301     15.568602
     -1.726727      5.928880      5.928880     11.857760
     -1.716717      4.563590      4.563590      9.127180
     -1.706707      3.936751      3.936751      7.873502
     -1.696697      4.216499      4.216499      8.432997
     -1.686687      5.478745      5.478745     10.957491
     -1.676677      7.686262      7.686262     15.372524
     -1.666667     10.654853     10.654853     21.309707
     -1.656657     14.028766     14.028766     28.057532
     -1.646647     17.300371     17.300371     34.600741
     -1.636637     19.896461     19.896461     39.792922
     -1.626627     21.319808     21.319808     42.639615
