# EIG2DOS: Utility for SIESTA to obtain the electronic density of states
#  E. Artacho, Apr 1999, A. Garcia, Apr 2012
#  Nick R. Papior, Feb 2017
# ------------------------------------------
# Eigenvalues calculated from a non-polarized calculation
# Eigenvalues read from siesta.EIG
# Kpoint weights read from siesta.KP
# Using smearing parameter:   0.0500
# Using 1000 points in the energy range
# Selected bands: 1 to: 2981
# Emin, Emax in file for selected band(s):    -27.3172569    218.3815620
# Nbands, Nspin, Nk   =   2981     1     1
# E_F                 =    -4.2157 eV --> (shifted to ZERO)
# Broadening          =     0.0500 eV
#
#        E            N(up)  (=)   N(down)         Ntot
     -5.000000     34.527222     34.527222     69.054445
     -4.989990     38.937328     38.937328     77.874657
     -4.979980     42.633457     42.633457     85.266915
     -4.969970     44.993587     44.993587     89.987174
     -4.959960     45.602724     45.602724     91.205449
     -4.949950     44.390685     44.390685     88.781370
     -4.939940     41.663381     41.663381     83.326762
     -4.929930     38.033783     38.033783     76.067566
     -4.919920     34.298318     34.298318     68.596636
     -4.909910     31.304513     31.304513     62.609027
     -4.899900     29.824531     29.824531     59.649062
     -4.889890     30.420717     30.420717     60.841434
     -4.879880     33.295393     33.295393     66.590785
     -4.869870     38.158937     38.158937     76.317874
     -4.859860     44.192076     44.192076     88.384152
     -4.849850     50.174438     50.174438    100.348876
     -4.839840     54.785318     54.785318    109.570637
     -4.829830     56.986966     56.986966    113.973932
     -4.819820     56.338157     56.338157    112.676313
     -4.809810     53.104018     53.104018    106.208035
     -4.799800     48.122249     48.122249     96.244498
     -4.789790     42.499908     42.499908     84.999817
     -4.779780     37.280331     37.280331     74.560662
     -4.769770     33.204104     33.204104     66.408207
     -4.759760     30.614670     30.614670     61.229340
     -4.749750     29.483932     29.483932     58.967864
     -4.739740     29.499908     29.499908     58.999815
     -4.729730     30.170520     30.170520     60.341041
     -4.719720     30.926734     30.926734     61.853468
     -4.709710     31.225610     31.225610     62.451220
     -4.699700     30.651763     30.651763     61.303527
     -4.689690     29.005186     29.005186     58.010373
     -4.679680     26.357739     26.357739     52.715478
     -4.669670     23.063958     23.063958     46.127915
     -4.659660     19.720381     19.720381     39.440763
     -4.649650     17.075768     17.075768     34.151535
     -4.639640     15.899589     15.899589     31.799178
     -4.629630     16.819946     16.819946     33.639891
     -4.619620     20.150377     20.150377     40.300754
     -4.609610     25.742532     25.742532     51.485063
     -4.599600     32.921937     32.921937     65.843873
     -4.589590     40.566913     40.566913     81.133825
     -4.579580     47.354636     47.354636     94.709271
     -4.569570     52.125035     52.125035    104.250070
     -4.559560     54.238466     54.238466    108.476933
     -4.549550     53.778167     53.778167    107.556334
     -4.539540     51.500949     51.500949    103.001898
     -4.529530     48.547905     48.547905     97.095809
     -4.519520     46.032739     46.032739     92.065479
     -4.509510     44.672991     44.672991     89.345983
     -4.499499     44.599596     44.599596     89.199192
     -4.489489     45.395403     45.395403     90.790805
     -4.479479     46.318023     46.318023     92.636047
     -4.469469     46.598411     46.598411     93.196823
     -4.459459     45.695631     45.695631     91.391261
     -4.449449     43.427127     43.427127     86.854253
     -4.439439     39.959002     39.959002     79.918004
     -4.429429     35.700011     35.700011     71.400023
     -4.419419     31.169503     31.169503     62.339005
     -4.409409     26.894835     26.894835     53.789670
     -4.399399     23.352694     23.352694     46.705388
     -4.389389     20.931486     20.931486     41.862972
     -4.379379     19.884949     19.884949     39.769897
     -4.369369     20.273118     20.273118     40.546235
     -4.359359     21.921947     21.921947     43.843893
     -4.349349     24.445034     24.445034     48.890068
     -4.339339     27.345621     27.345621     54.691242
     -4.329329     30.169997     30.169997     60.339995
     -4.319319     32.647854     32.647854     65.295708
     -4.309309     34.755816     34.755816     69.511632
     -4.299299     36.675753     36.675753     73.351506
     -4.289289     38.666127     38.666127     77.332255
     -4.279279     40.897843     40.897843     81.795686
     -4.269269     43.316654     43.316654     86.633309
     -4.259259     45.586993     45.586993     91.173986
     -4.249249     47.151817     47.151817     94.303635
     -4.239239     47.407487     47.407487     94.814975
     -4.229229     45.942762     45.942762     91.885523
     -4.219219     42.745896     42.745896     85.491793
     -4.209209     38.276595     38.276595     76.553190
     -4.199199     33.350490     33.350490     66.700981
     -4.189189     28.874548     28.874548     57.749096
     -4.179179     25.550256     25.550256     51.100512
     -4.169169     23.678294     23.678294     47.356587
     -4.159159     23.143524     23.143524     46.287047
     -4.149149     23.567498     23.567498     47.134995
     -4.139139     24.538962     24.538962     49.077925
     -4.129129     25.805897     25.805897     51.611794
     -4.119119     27.339747     27.339747     54.679495
     -4.109109     29.246539     29.246539     58.493078
     -4.099099     31.574987     31.574987     63.149974
     -4.089089     34.129605     34.129605     68.259211
     -4.079079     36.407248     36.407248     72.814495
     -4.069069     37.721233     37.721233     75.442467
     -4.059059     37.475237     37.475237     74.950475
     -4.049049     35.454657     35.454657     70.909315
     -4.039039     31.979559     31.979559     63.959118
     -4.029029     27.833192     27.833192     55.666383
     -4.019019     24.002279     24.002279     48.004559
     -4.009009     21.361619     21.361619     42.723238
     -3.998999     20.448137     20.448137     40.896274
     -3.988989     21.400450     21.400450     42.800901
     -3.978979     24.042871     24.042871     48.085742
     -3.968969     28.030202     28.030202     56.060404
     -3.958959     32.970838     32.970838     65.941675
     -3.948949     38.493455     38.493455     76.986910
     -3.938939     44.272575     44.272575     88.545151
     -3.928929     50.043743     50.043743    100.087487
     -3.918919     55.617239     55.617239    111.234478
     -3.908909     60.869652     60.869652    121.739305
     -3.898899     65.689602     65.689602    131.379204
     -3.888889     69.885615     69.885615    139.771230
     -3.878879     73.105620     73.105620    146.211239
     -3.868869     74.832404     74.832404    149.664807
     -3.858859     74.490408     74.490408    148.980817
     -3.848849     71.641145     71.641145    143.282290
     -3.838839     66.191727     66.191727    132.383453
     -3.828829     58.524019     58.524019    117.048037
     -3.818819     49.479715     49.479715     98.959429
     -3.808809     40.194474     40.194474     80.388947
     -3.798799     31.833836     31.833836     63.667673
     -3.788789     25.318500     25.318500     50.637000
     -3.778779     21.124673     21.124673     42.249345
     -3.768769     19.212918     19.212918     38.425836
     -3.758759     19.094231     19.094231     38.188461
     -3.748749     20.003444     20.003444     40.006888
     -3.738739     21.127374     21.127374     42.254749
     -3.728729     21.828838     21.828838     43.657675
     -3.718719     21.813328     21.813328     43.626656
     -3.708709     21.198513     21.198513     42.397025
     -3.698699     20.466190     20.466190     40.932381
     -3.688689     20.302199     20.302199     40.604398
     -3.678679     21.360752     21.360752     42.721504
     -3.668669     24.019572     24.019572     48.039144
     -3.658659     28.208087     28.208087     56.416174
     -3.648649     33.378176     33.378176     66.756352
     -3.638639     38.639967     38.639967     77.279934
     -3.628629     43.018288     43.018288     86.036575
     -3.618619     45.731533     45.731533     91.463066
     -3.608609     46.386741     46.386741     92.773482
     -3.598599     45.029921     45.029921     90.059841
     -3.588589     42.061040     42.061040     84.122080
     -3.578579     38.074558     38.074558     76.149115
     -3.568569     33.693282     33.693282     67.386565
     -3.558559     29.436629     29.436629     58.873259
     -3.548549     25.636178     25.636178     51.272356
     -3.538539     22.402461     22.402461     44.804922
     -3.528529     19.649663     19.649663     39.299325
     -3.518519     17.178331     17.178331     34.356662
     -3.508509     14.793164     14.793164     29.586329
     -3.498498     12.409978     12.409978     24.819956
     -3.488488     10.105869     10.105869     20.211737
     -3.478478      8.094056      8.094056     16.188112
     -3.468468      6.641273      6.641273     13.282547
     -3.458458      5.966969      5.966969     11.933938
     -3.448448      6.161911      6.161911     12.323822
     -3.438438      7.149553      7.149553     14.299106
     -3.428428      8.700718      8.700718     17.401437
     -3.418418     10.502920     10.502920     21.005839
     -3.408408     12.271864     12.271864     24.543729
     -3.398398     13.870818     13.870818     27.741636
     -3.388388     15.385385     15.385385     30.770770
     -3.378378     17.107144     17.107144     34.214288
     -3.368368     19.417700     19.417700     38.835401
     -3.358358     22.617385     22.617385     45.234770
     -3.348348     26.775157     26.775157     53.550314
     -3.338338     31.663437     31.663437     63.326874
     -3.328328     36.792232     36.792232     73.584464
     -3.318318     41.508690     41.508690     83.017380
     -3.308308     45.116342     45.116342     90.232683
     -3.298298     46.992981     46.992981     93.985962
     -3.288288     46.712318     46.712318     93.424636
     -3.278278     44.167607     44.167607     88.335213
     -3.268268     39.659038     39.659038     79.318076
     -3.258258     33.882134     33.882134     67.764268
     -3.248248     27.779282     27.779282     55.558565
     -3.238238     22.285001     22.285001     44.570001
     -3.228228     18.060410     18.060410     36.120819
     -3.218218     15.326990     15.326990     30.653981
     -3.208208     13.864742     13.864742     27.729484
     -3.198198     13.165252     13.165252     26.330504
     -3.188188     12.667591     12.667591     25.335181
     -3.178178     11.981240     11.981240     23.962480
     -3.168168     11.018656     11.018656     22.037311
     -3.158158     10.005189     10.005189     20.010378
     -3.148148      9.382103      9.382103     18.764206
     -3.138138      9.648408      9.648408     19.296815
     -3.128128     11.192187     11.192187     22.384375
     -3.118118     14.151223     14.151223     28.302447
     -3.108108     18.331612     18.331612     36.663224
     -3.098098     23.207843     23.207843     46.415687
     -3.088088     28.019253     28.019253     56.038507
     -3.078078     31.952859     31.952859     63.905718
     -3.068068     34.362858     34.362858     68.725715
     -3.058058     34.945588     34.945588     69.891177
     -3.048048     33.794606     33.794606     67.589212
     -3.038038     31.312612     31.312612     62.625225
     -3.028028     28.029613     28.029613     56.059225
     -3.018018     24.423744     24.423744     48.847488
     -3.008008     20.830482     20.830482     41.660964
     -2.997998     17.465221     17.465221     34.930441
     -2.987988     14.515889     14.515889     29.031778
     -2.977978     12.230042     12.230042     24.460085
     -2.967968     10.937614     10.937614     21.875229
     -2.957958     10.994787     10.994787     21.989573
     -2.947948     12.674032     12.674032     25.348065
     -2.937938     16.043444     16.043444     32.086888
     -2.927928     20.878557     20.878557     41.757114
     -2.917918     26.642052     26.642052     53.284104
     -2.907908     32.553305     32.553305     65.106609
     -2.897898     37.746054     37.746054     75.492109
     -2.887888     41.478446     41.478446     82.956893
     -2.877878     43.328019     43.328019     86.656038
     -2.867868     43.295309     43.295309     86.590619
     -2.857858     41.766994     41.766994     83.533989
     -2.847848     39.346858     39.346858     78.693716
     -2.837838     36.624126     36.624126     73.248251
     -2.827828     33.980498     33.980498     67.960996
     -2.817818     31.518867     31.518867     63.037734
     -2.807808     29.134655     29.134655     58.269310
     -2.797798     26.677520     26.677520     53.355040
     -2.787788     24.107565     24.107565     48.215129
     -2.777778     21.560733     21.560733     43.121465
     -2.767768     19.295991     19.295991     38.591982
     -2.757758     17.567606     17.567606     35.135213
     -2.747748     16.507407     16.507407     33.014814
     -2.737738     16.089750     16.089750     32.179500
     -2.727728     16.194039     16.194039     32.388078
     -2.717718     16.713056     16.713056     33.426112
     -2.707708     17.624384     17.624384     35.248769
     -2.697698     18.969516     18.969516     37.939032
     -2.687688     20.754414     20.754414     41.508828
     -2.677678     22.848460     22.848460     45.696919
     -2.667668     24.968422     24.968422     49.936844
     -2.657658     26.778627     26.778627     53.557253
     -2.647648     28.054349     28.054349     56.108698
     -2.637638     28.803683     28.803683     57.607366
     -2.627628     29.264174     29.264174     58.528348
     -2.617618     29.771555     29.771555     59.543110
     -2.607608     30.580395     30.580395     61.160789
     -2.597598     31.740745     31.740745     63.481489
     -2.587588     33.087329     33.087329     66.174657
     -2.577578     34.320216     34.320216     68.640431
     -2.567568     35.109360     35.109360     70.218721
     -2.557558     35.169029     35.169029     70.338058
     -2.547548     34.297970     34.297970     68.595941
     -2.537538     32.416012     32.416012     64.832024
     -2.527528     29.616922     29.616922     59.233844
     -2.517518     26.216332     26.216332     52.432664
     -2.507508     22.745340     22.745340     45.490680
     -2.497497     19.854868     19.854868     39.709735
     -2.487487     18.144765     18.144765     36.289530
     -2.477477     17.979958     17.979958     35.959916
     -2.467467     19.372050     19.372050     38.744101
     -2.457457     21.980815     21.980815     43.961629
     -2.447447     25.240132     25.240132     50.480264
     -2.437437     28.560360     28.560360     57.120719
     -2.427427     31.525165     31.525165     63.050330
     -2.417417     33.999816     33.999816     67.999632
     -2.407407     36.102664     36.102664     72.205327
     -2.397397     38.050789     38.050789     76.101578
     -2.387387     39.950885     39.950885     79.901769
     -2.377377     41.639819     41.639819     83.279637
     -2.367367     42.665733     42.665733     85.331465
     -2.357357     42.438465     42.438465     84.876930
     -2.347347     40.492017     40.492017     80.984034
     -2.337337     36.736631     36.736631     73.473261
     -2.327327     31.575455     31.575455     63.150910
     -2.317317     25.827831     25.827831     51.655662
     -2.307307     20.498931     20.498931     40.997863
     -2.297297     16.503832     16.503832     33.007663
     -2.287287     14.456196     14.456196     28.912393
     -2.277277     14.578683     14.578683     29.157365
     -2.267267     16.727357     16.727357     33.454714
     -2.257257     20.484286     20.484286     40.968572
     -2.247247     25.269802     25.269802     50.539603
     -2.237237     30.443299     30.443299     60.886598
     -2.227227     35.380013     35.380013     70.760027
     -2.217217     39.523412     39.523412     79.046823
     -2.207207     42.420407     42.420407     84.840814
     -2.197197     43.751536     43.751536     87.503072
     -2.187187     43.367067     43.367067     86.734133
     -2.177177     41.327873     41.327873     82.655747
     -2.167167     37.929728     37.929728     75.859457
     -2.157157     33.676320     33.676320     67.352641
     -2.147147     29.177831     29.177831     58.355661
     -2.137137     24.991134     24.991134     49.982268
     -2.127127     21.462317     21.462317     42.924634
     -2.117117     18.647289     18.647289     37.294578
     -2.107107     16.353008     16.353008     32.706015
     -2.097097     14.277345     14.277345     28.554691
     -2.087087     12.172471     12.172471     24.344943
     -2.077077      9.950337      9.950337     19.900673
     -2.067067      7.690539      7.690539     15.381079
     -2.057057      5.568923      5.568923     11.137846
     -2.047047      3.761711      3.761711      7.523422
     -2.037037      2.378057      2.378057      4.756114
     -2.027027      1.444636      1.444636      2.889272
     -2.017017      0.933771      0.933771      1.867543
     -2.007007      0.809318      0.809318      1.618635
     -1.996997      1.064617      1.064617      2.129235
     -1.986987      1.736424      1.736424      3.472848
     -1.976977      2.889901      2.889901      5.779803
     -1.966967      4.580014      4.580014      9.160029
     -1.956957      6.804022      6.804022     13.608044
     -1.946947      9.466354      9.466354     18.932709
     -1.936937     12.375561     12.375561     24.751123
     -1.926927     15.279825     15.279825     30.559650
     -1.916917     17.927478     17.927478     35.854956
     -1.906907     20.124447     20.124447     40.248894
     -1.896897     21.762605     21.762605     43.525210
     -1.886887     22.811283     22.811283     45.622566
     -1.876877     23.286292     23.286292     46.572585
     -1.866867     23.221965     23.221965     46.443929
     -1.856857     22.665574     22.665574     45.331147
     -1.846847     21.694846     21.694846     43.389692
     -1.836837     20.439557     20.439557     40.879114
     -1.826827     19.079725     19.079725     38.159450
     -1.816817     17.803550     17.803550     35.607101
     -1.806807     16.735448     16.735448     33.470895
     -1.796797     15.872337     15.872337     31.744674
     -1.786787     15.072685     15.072685     30.145370
     -1.776777     14.117111     14.117111     28.234223
     -1.766767     12.815417     12.815417     25.630834
     -1.756757     11.103612     11.103612     22.207224
     -1.746747      9.079640      9.079640     18.159280
     -1.736737      6.964536      6.964536     13.929073
     -1.726727      5.018911      5.018911     10.037822
     -1.716717      3.463849      3.463849      6.927697
     -1.706707      2.441774      2.441774      4.883549
     -1.696697      2.020946      2.020946      4.041891
     -1.686687      2.220154      2.220154      4.440307
     -1.676677      3.023198      3.023198      6.046396
     -1.666667      4.366561      4.366561      8.733122
     -1.656657      6.108163      6.108163     12.216326
     -1.646647      8.005394      8.005394     16.010787
     -1.636637      9.734095      9.734095     19.468189
     -1.626627     10.962078     10.962078     21.924157
