# EIG2DOS: Utility for SIESTA to obtain the electronic density of states
#  E. Artacho, Apr 1999, A. Garcia, Apr 2012
#  Nick R. Papior, Feb 2017
# ------------------------------------------
# Eigenvalues calculated from a non-polarized calculation
# Eigenvalues read from siesta.EIG
# Kpoint weights read from siesta.KP
# Using smearing parameter:   0.0500
# Using 1000 points in the energy range
# Selected bands: 1 to: 2981
# Emin, Emax in file for selected band(s):    -27.2293435    218.3951840
# Nbands, Nspin, Nk   =   2981     1     1
# E_F                 =    -4.1992 eV --> (shifted to ZERO)
# Broadening          =     0.0500 eV
#
#        E            N(up)  (=)   N(down)         Ntot
     -5.000000     30.719278     30.719278     61.438556
     -4.989990     35.800326     35.800326     71.600653
     -4.979980     40.760913     40.760913     81.521827
     -4.969970     44.764180     44.764180     89.528360
     -4.959960     47.051289     47.051289     94.102577
     -4.949950     47.191959     47.191959     94.383918
     -4.939940     45.234202     45.234202     90.468404
     -4.929930     41.704050     41.704050     83.408101
     -4.919920     37.476157     37.476157     74.952313
     -4.909910     33.578577     33.578577     67.157154
     -4.899900     30.989918     30.989918     61.979837
     -4.889890     30.454017     30.454017     60.908034
     -4.879880     32.316761     32.316761     64.633523
     -4.869870     36.403956     36.403956     72.807911
     -4.859860     41.990331     41.990331     83.980662
     -4.849850     47.915855     47.915855     95.831710
     -4.839840     52.859916     52.859916    105.719831
     -4.829830     55.704117     55.704117    111.408234
     -4.819820     55.851770     55.851770    111.703541
     -4.809810     53.374109     53.374109    106.748217
     -4.799800     48.926542     48.926542     97.853085
     -4.789790     43.482807     43.482807     86.965614
     -4.779780     38.010570     38.010570     76.021141
     -4.769770     33.219404     33.219404     66.438808
     -4.759760     29.455701     29.455701     58.911401
     -4.749750     26.740282     26.740282     53.480564
     -4.739740     24.888630     24.888630     49.777259
     -4.729730     23.642036     23.642036     47.284072
     -4.719720     22.761531     22.761531     45.523061
     -4.709710     22.071720     22.071720     44.143439
     -4.699700     21.468715     21.468715     42.937431
     -4.689690     20.915921     20.915921     41.831843
     -4.679680     20.444223     20.444223     40.888447
     -4.669670     20.157596     20.157596     40.315192
     -4.659660     20.233711     20.233711     40.467421
     -4.649650     20.909367     20.909367     41.818734
     -4.639640     22.447744     22.447744     44.895487
     -4.629630     25.087218     25.087218     50.174435
     -4.619620     28.967916     28.967916     57.935831
     -4.609610     34.035944     34.035944     68.071887
     -4.599600     39.949514     39.949514     79.899028
     -4.589590     46.044743     46.044743     92.089486
     -4.579580     51.426055     51.426055    102.852110
     -4.569570     55.199075     55.199075    110.398151
     -4.559560     56.777678     56.777678    113.555356
     -4.549550     56.128215     56.128215    112.256430
     -4.539540     53.818544     53.818544    107.637087
     -4.529530     50.825457     50.825457    101.650914
     -4.519520     48.173535     48.173535     96.347071
     -4.509510     46.561819     46.561819     93.123639
     -4.499499     46.137511     46.137511     92.275022
     -4.489489     46.501812     46.501812     93.003624
     -4.479479     46.925057     46.925057     93.850114
     -4.469469     46.660935     46.660935     93.321870
     -4.459459     45.221137     45.221137     90.442275
     -4.449449     42.508652     42.508652     85.017304
     -4.439439     38.785534     38.785534     77.571069
     -4.429429     34.527748     34.527748     69.055496
     -4.419419     30.258040     30.258040     60.516080
     -4.409409     26.432637     26.432637     52.865274
     -4.399399     23.403998     23.403998     46.807996
     -4.389389     21.427364     21.427364     42.854727
     -4.379379     20.659672     20.659672     41.319344
     -4.369369     21.125675     21.125675     42.251350
     -4.359359     22.673497     22.673497     45.346993
     -4.349349     24.970390     24.970390     49.940780
     -4.339339     27.574797     27.574797     55.149593
     -4.329329     30.073100     30.073100     60.146200
     -4.319319     32.223478     32.223478     64.446956
     -4.309309     34.036261     34.036261     68.072523
     -4.299299     35.746195     35.746195     71.492390
     -4.289289     37.679194     37.679194     75.358388
     -4.279279     40.060841     40.060841     80.121681
     -4.269269     42.841305     42.841305     85.682610
     -4.259259     45.615446     45.615446     91.230892
     -4.249249     47.692678     47.692678     95.385355
     -4.239239     48.316595     48.316595     96.633190
     -4.229229     46.962506     46.962506     93.925012
     -4.219219     43.586843     43.586843     87.173685
     -4.209209     38.705544     38.705544     77.411089
     -4.199199     33.250865     33.250865     66.501730
     -4.189189     28.263494     28.263494     56.526988
     -4.179179     24.557544     24.557544     49.115089
     -4.169169     22.502958     22.502958     45.005916
     -4.159159     22.003595     22.003595     44.007190
     -4.149149     22.652587     22.652587     45.305173
     -4.139139     23.971733     23.971733     47.943466
     -4.129129     25.618700     25.618700     51.237400
     -4.119119     27.473725     27.473725     54.947450
     -4.109109     29.577576     29.577576     59.155153
     -4.099099     31.961687     31.961687     63.923374
     -4.089089     34.466194     34.466194     68.932387
     -4.079079     36.657124     36.657124     73.314249
     -4.069069     37.912804     37.912804     75.825608
     -4.059059     37.660982     37.660982     75.321963
     -4.049049     35.656849     35.656849     71.313699
     -4.039039     32.156364     32.156364     64.312728
     -4.029029     27.888353     27.888353     55.776706
     -4.019019     23.835550     23.835550     47.671100
     -4.009009     20.931766     20.931766     41.863533
     -3.998999     19.811842     19.811842     39.623684
     -3.988989     20.703803     20.703803     41.407607
     -3.978979     23.468854     23.468854     46.937707
     -3.968969     27.729156     27.729156     55.458313
     -3.958959     33.007847     33.007847     66.015694
     -3.948949     38.834286     38.834286     77.668573
     -3.938939     44.808003     44.808003     89.616005
     -3.928929     50.634981     50.634981    101.269962
     -3.918919     56.141366     56.141366    112.282732
     -3.908909     61.251115     61.251115    122.502230
     -3.898899     65.913482     65.913482    131.826964
     -3.888889     69.993854     69.993854    139.987709
     -3.878879     73.178996     73.178996    146.357991
     -3.868869     74.962580     74.962580    149.925160
     -3.858859     74.749562     74.749562    149.499124
     -3.848849     72.058891     72.058891    144.117783
     -3.838839     66.747004     66.747004    133.494008
     -3.828829     59.153299     59.153299    118.306598
     -3.818819     50.096358     50.096358    100.192716
     -3.808809     40.711324     40.711324     81.422648
     -3.798799     32.182882     32.182882     64.365765
     -3.788789     25.464740     25.464740     50.929480
     -3.778779     21.073225     21.073225     42.146450
     -3.768769     19.008339     19.008339     38.016679
     -3.758759     18.810768     18.810768     37.621536
     -3.748749     19.726421     19.726421     39.452843
     -3.738739     20.929161     20.929161     41.858321
     -3.728729     21.746073     21.746073     43.492146
     -3.718719     21.833332     21.833332     43.666663
     -3.708709     21.261079     21.261079     42.522158
     -3.698699     20.482574     20.482574     40.965149
     -3.688689     20.187042     20.187042     40.374083
     -3.678679     21.066709     21.066709     42.133419
     -3.668669     23.561022     23.561022     47.122044
     -3.658659     27.662343     27.662343     55.324686
     -3.648649     32.861234     32.861234     65.722468
     -3.638639     38.265935     38.265935     76.531870
     -3.628629     42.860597     42.860597     85.721194
     -3.618619     45.803397     45.803397     91.606794
     -3.608609     46.647595     46.647595     93.295191
     -3.598599     45.410406     45.410406     90.820811
     -3.588589     42.490959     42.490959     84.981917
     -3.578579     38.500820     38.500820     77.001640
     -3.568569     34.084594     34.084594     68.169188
     -3.558559     29.780264     29.780264     59.560528
     -3.548549     25.933709     25.933709     51.867418
     -3.538539     22.666811     22.666811     45.333623
     -3.528529     19.901066     19.901066     39.802132
     -3.518519     17.436460     17.436460     34.872920
     -3.508509     15.066517     15.066517     30.133035
     -3.498498     12.687366     12.687366     25.374731
     -3.488488     10.354920     10.354920     20.709841
     -3.478478      8.268194      8.268194     16.536388
     -3.468468      6.692551      6.692551     13.385103
     -3.458458      5.859991      5.859991     11.719983
     -3.448448      5.883575      5.883575     11.767150
     -3.438438      6.709145      6.709145     13.418290
     -3.428428      8.114946      8.114946     16.229893
     -3.418418      9.763372      9.763372     19.526744
     -3.408408     11.300791     11.300791     22.601583
     -3.398398     12.483824     12.483824     24.967649
     -3.388388     13.289681     13.289681     26.579362
     -3.378378     13.961632     13.961632     27.923265
     -3.368368     14.960170     14.960170     29.920340
     -3.358358     16.828391     16.828391     33.656781
     -3.348348     20.013732     20.013732     40.027465
     -3.338338     24.698783     24.698783     49.397566
     -3.328328     30.683300     30.683300     61.366599
     -3.318318     37.345434     37.345434     74.690868
     -3.308308     43.704268     43.704268     87.408537
     -3.298298     48.598374     48.598374     97.196747
     -3.288288     50.965313     50.965313    101.930625
     -3.278278     50.152379     50.152379    100.304758
     -3.268268     46.142155     46.142155     92.284311
     -3.258258     39.584409     39.584409     79.168818
     -3.248248     31.603954     31.603954     63.207908
     -3.238238     23.462469     23.462469     46.924938
     -3.228228     16.221164     16.221164     32.442328
     -3.218218     10.536604     10.536604     21.073208
     -3.208208      6.639308      6.639308     13.278616
     -3.198198      4.451860      4.451860      8.903720
     -3.188188      3.753930      3.753930      7.507860
     -3.178178      4.311052      4.311052      8.622105
     -3.168168      5.930328      5.930328     11.860656
     -3.158158      8.454552      8.454552     16.909103
     -3.148148     11.731379     11.731379     23.462757
     -3.138138     15.589749     15.589749     31.179498
     -3.128128     19.832639     19.832639     39.665278
     -3.118118     24.233912     24.233912     48.467824
     -3.108108     28.525473     28.525473     57.050947
     -3.098098     32.380764     32.380764     64.761527
     -3.088088     35.422849     35.422849     70.845698
     -3.078078     37.284119     37.284119     74.568238
     -3.068068     37.711496     37.711496     75.422991
     -3.058058     36.668019     36.668019     73.336039
     -3.048048     34.366219     34.366219     68.732438
     -3.038038     31.201199     31.201199     62.402398
     -3.028028     27.613570     27.613570     55.227140
     -3.018018     23.958878     23.958878     47.917755
     -3.008008     20.455284     20.455284     40.910567
     -2.997998     17.228403     17.228403     34.456806
     -2.987988     14.410613     14.410613     28.821225
     -2.977978     12.223850     12.223850     24.447701
     -2.967968     10.992742     10.992742     21.985484
     -2.957958     11.078303     11.078303     22.156605
     -2.947948     12.760452     12.760452     25.520904
     -2.937938     16.113919     16.113919     32.227838
     -2.927928     20.920540     20.920540     41.841081
     -2.917918     26.651594     26.651594     53.303188
     -2.907908     32.539445     32.539445     65.078891
     -2.897898     37.734303     37.734303     75.468605
     -2.887888     41.509371     41.509371     83.018742
     -2.877878     43.448329     43.448329     86.896658
     -2.867868     43.542172     43.542172     87.084345
     -2.857858     42.150315     42.150315     84.300629
     -2.847848     39.836788     39.836788     79.673577
     -2.837838     37.150457     37.150457     74.300915
     -2.827828     34.446435     34.446435     68.892870
     -2.817818     31.825600     31.825600     63.651201
     -2.807808     29.208149     29.208149     58.416298
     -2.797798     26.487823     26.487823     52.975645
     -2.787788     23.674423     23.674423     47.348847
     -2.777778     20.945297     20.945297     41.890594
     -2.767768     18.583413     18.583413     37.166825
     -2.757758     16.846948     16.846948     33.693896
     -2.747748     15.853698     15.853698     31.707395
     -2.737738     15.550712     15.550712     31.101423
     -2.727728     15.783146     15.783146     31.566293
     -2.717718     16.410988     16.410988     32.821976
     -2.707708     17.390283     17.390283     34.780566
     -2.697698     18.759964     18.759964     37.519928
     -2.687688     20.542902     20.542902     41.085804
     -2.677678     22.635410     22.635410     45.270820
     -2.667668     24.775115     24.775115     49.550229
     -2.657658     26.627189     26.627189     53.254378
     -2.647648     27.945160     27.945160     55.890319
     -2.637638     28.704534     28.704534     57.409067
     -2.627628     29.119487     29.119487     58.238975
     -2.617618     29.528119     29.528119     59.056238
     -2.607608     30.216013     30.216013     60.432026
     -2.597598     31.280506     31.280506     62.561012
     -2.587588     32.599677     32.599677     65.199353
     -2.577578     33.896208     33.896208     67.792417
     -2.567568     34.835889     34.835889     69.671778
     -2.557558     35.106354     35.106354     70.212708
     -2.547548     34.466038     34.466038     68.932077
     -2.537538     32.788641     32.788641     65.577282
     -2.527528     30.122217     30.122217     60.244433
     -2.517518     26.744570     26.744570     53.489141
     -2.507508     23.167494     23.167494     46.334988
     -2.497497     20.052464     20.052464     40.104928
     -2.487487     18.045564     18.045564     36.091128
     -2.477477     17.587925     17.587925     35.175850
     -2.467467     18.778549     18.778549     37.557098
     -2.457457     21.348828     21.348828     42.697656
     -2.447447     24.763343     24.763343     49.526686
     -2.437437     28.409657     28.409657     56.819314
     -2.427427     31.801010     31.801010     63.602019
     -2.417417     34.706364     34.706364     69.412728
     -2.407407     37.150122     37.150122     74.300245
     -2.397397     39.281893     39.281893     78.563786
     -2.387387     41.181126     41.181126     82.362251
     -2.377377     42.700263     42.700263     85.400526
     -2.367367     43.439015     43.439015     86.878030
     -2.357357     42.880343     42.880343     85.760685
     -2.347347     40.633260     40.633260     81.266520
     -2.337337     36.665033     36.665033     73.330065
     -2.327327     31.404743     31.404743     62.809486
     -2.317317     25.665178     25.665178     51.330356
     -2.307307     20.421900     20.421900     40.843800
     -2.297297     16.551372     16.551372     33.102745
     -2.287287     14.631361     14.631361     29.262722
     -2.277277     14.857381     14.857381     29.714761
     -2.267267     17.068530     17.068530     34.137061
     -2.257257     20.839573     20.839573     41.679145
     -2.247247     25.592250     25.592250     51.184501
     -2.237237     30.694441     30.694441     61.388882
     -2.227227     35.534074     35.534074     71.068147
     -2.217217     39.567964     39.567964     79.135929
     -2.207207     42.354152     42.354152     84.708305
     -2.197197     43.580932     43.580932     87.161863
     -2.187187     43.103512     43.103512     86.207024
     -2.177177     40.986328     40.986328     81.972655
     -2.167167     37.528736     37.528736     75.057472
     -2.157157     33.238858     33.238858     66.477717
     -2.147147     28.732023     28.732023     57.464047
     -2.137137     24.569657     24.569657     49.139315
     -2.127127     21.099440     21.099440     42.198880
     -2.117117     18.373340     18.373340     36.746680
     -2.107107     16.187593     16.187593     32.375185
     -2.097097     14.224120     14.224120     28.448241
     -2.087087     12.218659     12.218659     24.437318
     -2.077077     10.072977     10.072977     20.145954
     -2.067067      7.869379      7.869379     15.738758
     -2.057057      5.804156      5.804156     11.608312
     -2.047047      4.094090      4.094090      8.188180
     -2.037037      2.908057      2.908057      5.816115
     -2.027027      2.344458      2.344458      4.688917
     -2.017017      2.440690      2.440690      4.881381
     -2.007007      3.185085      3.185085      6.370170
     -1.996997      4.510548      4.510548      9.021096
     -1.986987      6.273182      6.273182     12.546364
     -1.976977      8.241104      8.241104     16.482208
     -1.966967     10.122684     10.122684     20.245368
     -1.956957     11.643569     11.643569     23.287137
     -1.946947     12.647634     12.647634     25.295268
     -1.936937     13.170625     13.170625     26.341249
     -1.926927     13.438051     13.438051     26.876103
     -1.916917     13.774753     13.774753     27.549507
     -1.906907     14.462493     14.462493     28.924986
     -1.896897     15.612699     15.612699     31.225398
     -1.886887     17.114079     17.114079     34.228157
     -1.876877     18.675289     18.675289     37.350578
     -1.866867     19.937353     19.937353     39.874705
     -1.856857     20.604678     20.604678     41.209355
     -1.846847     20.544982     20.544982     41.089964
     -1.836837     19.826960     19.826960     39.653920
     -1.826827     18.686448     18.686448     37.372897
     -1.816817     17.432331     17.432331     34.864663
     -1.806807     16.323770     16.323770     32.647541
     -1.796797     15.466816     15.466816     30.933632
     -1.786787     14.778277     14.778277     29.556553
     -1.776777     14.038094     14.038094     28.076187
     -1.766767     13.006774     13.006774     26.013548
     -1.756757     11.548405     11.548405     23.096810
     -1.746747      9.697813      9.697813     19.395626
     -1.736737      7.645127      7.645127     15.290253
     -1.726727      5.658415      5.658415     11.316831
     -1.716717      3.993873      3.993873      7.987745
     -1.706707      2.837710      2.837710      5.675420
     -1.696697      2.293933      2.293933      4.587867
     -1.686687      2.400798      2.400798      4.801596
     -1.676677      3.145615      3.145615      6.291229
     -1.666667      4.457681      4.457681      8.915363
     -1.656657      6.183303      6.183303     12.366606
     -1.646647      8.068900      8.068900     16.137800
     -1.636637      9.783340      9.783340     19.566679
     -1.626627     10.993176     10.993176     21.986351
