# EIG2DOS: Utility for SIESTA to obtain the electronic density of states
#  E. Artacho, Apr 1999, A. Garcia, Apr 2012
#  Nick R. Papior, Feb 2017
# ------------------------------------------
# Eigenvalues calculated from a non-polarized calculation
# Eigenvalues read from siesta.EIG
# Kpoint weights read from siesta.KP
# Using smearing parameter:   0.0500
# Using 1000 points in the energy range
# Selected bands: 1 to: 2981
# Emin, Emax in file for selected band(s):    -27.0333342    218.3122570
# Nbands, Nspin, Nk   =   2981     1     1
# E_F                 =    -4.2982 eV --> (shifted to ZERO)
# Broadening          =     0.0500 eV
#
#        E            N(up)  (=)   N(down)         Ntot
     -5.000000     46.000133     46.000133     92.000266
     -4.989990     49.399386     49.399386     98.798772
     -4.979980     51.181966     51.181966    102.363933
     -4.969970     51.217434     51.217434    102.434868
     -4.959960     49.630591     49.630591     99.261183
     -4.949950     46.749735     46.749735     93.499469
     -4.939940     43.028658     43.028658     86.057316
     -4.929930     38.983424     38.983424     77.966849
     -4.919920     35.164859     35.164859     70.329717
     -4.909910     32.155099     32.155099     64.310199
     -4.899900     30.549144     30.549144     61.098288
     -4.889890     30.876155     30.876155     61.752310
     -4.879880     33.442066     33.442066     66.884131
     -4.869870     38.132454     38.132454     76.264909
     -4.859860     44.274942     44.274942     88.549885
     -4.849850     50.676550     50.676550    101.353100
     -4.839840     55.890401     55.890401    111.780801
     -4.829830     58.645399     58.645399    117.290798
     -4.819820     58.263162     58.263162    116.526323
     -4.809810     54.867942     54.867942    109.735884
     -4.799800     49.292352     49.292352     98.584705
     -4.789790     42.737651     42.737651     85.475301
     -4.779780     36.362511     36.362511     72.725022
     -4.769770     30.980361     30.980361     61.960722
     -4.759760     26.954241     26.954241     53.908481
     -4.749750     24.263697     24.263697     48.527393
     -4.739740     22.652766     22.652766     45.305531
     -4.729730     21.772199     21.772199     43.544398
     -4.719720     21.272843     21.272843     42.545687
     -4.709710     20.849618     20.849618     41.699237
     -4.699700     20.257229     20.257229     40.514457
     -4.689690     19.322113     19.322113     38.644226
     -4.679680     17.967675     17.967675     35.935351
     -4.669670     16.254960     16.254960     32.509920
     -4.659660     14.422917     14.422917     28.845833
     -4.649650     12.900329     12.900329     25.800659
     -4.639640     12.263357     12.263357     24.526713
     -4.629630     13.127606     13.127606     26.255213
     -4.619620     15.984680     15.984680     31.969360
     -4.609610     21.015534     21.015534     42.031069
     -4.599600     27.935659     27.935659     55.871318
     -4.589590     35.942794     35.942794     71.885588
     -4.579580     43.828522     43.828522     87.657045
     -4.569570     50.264584     50.264584    100.529168
     -4.559560     54.192670     54.192670    108.385340
     -4.549550     55.174788     55.174788    110.349575
     -4.539540     53.550915     53.550915    107.101831
     -4.529530     50.321554     50.321554    100.643107
     -4.519520     46.793610     46.793610     93.587220
     -4.509510     44.133823     44.133823     88.267646
     -4.499499     43.008481     43.008481     86.016962
     -4.489489     43.438332     43.438332     86.876664
     -4.479479     44.895938     44.895938     89.791877
     -4.469469     46.573442     46.573442     93.146883
     -4.459459     47.695121     47.695121     95.390242
     -4.449449     47.755504     47.755504     95.511009
     -4.439439     46.615544     46.615544     93.231088
     -4.429429     44.457145     44.457145     88.914290
     -4.419419     41.650748     41.650748     83.301496
     -4.409409     38.611871     38.611871     77.223742
     -4.399399     35.705413     35.705413     71.410827
     -4.389389     33.213699     33.213699     66.427398
     -4.379379     31.342147     31.342147     62.684295
     -4.369369     30.221739     30.221739     60.443477
     -4.359359     29.887943     29.887943     59.775886
     -4.349349     30.252763     30.252763     60.505527
     -4.339339     31.107806     31.107806     62.215612
     -4.329329     32.182532     32.182532     64.365064
     -4.319319     33.243269     33.243269     66.486537
     -4.309309     34.186064     34.186064     68.372129
     -4.299299     35.074688     35.074688     70.149377
     -4.289289     36.102568     36.102568     72.205136
     -4.279279     37.492201     37.492201     74.984401
     -4.269269     39.367811     39.367811     78.735622
     -4.259259     41.644548     41.644548     83.289096
     -4.249249     43.978233     43.978233     87.956467
     -4.239239     45.813139     45.813139     91.626278
     -4.229229     46.538988     46.538988     93.077976
     -4.219219     45.717010     45.717010     91.434021
     -4.209209     43.281157     43.281157     86.562314
     -4.199199     39.607589     39.607589     79.215178
     -4.189189     35.399630     35.399630     70.799260
     -4.179179     31.433435     31.433435     62.866871
     -4.169169     28.288894     28.288894     56.577789
     -4.159159     26.196370     26.196370     52.392740
     -4.149149     25.060251     25.060251     50.120502
     -4.139139     24.623133     24.623133     49.246266
     -4.129129     24.667987     24.667987     49.335973
     -4.119119     25.148659     25.148659     50.297318
     -4.109109     26.183521     26.183521     52.367042
     -4.099099     27.917285     27.917285     55.834570
     -4.089089     30.324491     30.324491     60.648982
     -4.079079     33.068034     33.068034     66.136068
     -4.069069     35.512629     35.512629     71.025258
     -4.059059     36.919461     36.919461     73.838921
     -4.049049     36.744757     36.744757     73.489515
     -4.039039     34.893109     34.893109     69.786218
     -4.029029     31.789245     31.789245     63.578491
     -4.019019     28.229705     28.229705     56.459410
     -4.009009     25.097562     25.097562     50.195124
     -3.998999     23.089573     23.089573     46.179146
     -3.988989     22.576362     22.576362     45.152724
     -3.978979     23.620815     23.620815     47.241629
     -3.968969     26.088429     26.088429     52.176858
     -3.958959     29.754815     29.754815     59.509630
     -3.948949     34.356247     34.356247     68.712494
     -3.938939     39.595233     39.595233     79.190466
     -3.928929     45.149207     45.149207     90.298415
     -3.918919     50.713056     50.713056    101.426111
     -3.908909     56.057575     56.057575    112.115149
     -3.898899     61.051984     61.051984    122.103969
     -3.888889     65.610444     65.610444    131.220887
     -3.878879     69.574414     69.574414    139.148829
     -3.868869     72.598585     72.598585    145.197170
     -3.858859     74.127750     74.127750    148.255499
     -3.848849     73.516847     73.516847    147.033694
     -3.838839     70.270631     70.270631    140.541261
     -3.828829     64.304228     64.304228    128.608456
     -3.818819     56.097009     56.097009    112.194019
     -3.808809     46.651739     46.651739     93.303477
     -3.798799     37.259984     37.259984     74.519967
     -3.788789     29.163144     29.163144     58.326289
     -3.778779     23.238041     23.238041     46.476082
     -3.768769     19.812249     19.812249     39.624497
     -3.758759     18.650997     18.650997     37.301995
     -3.748749     19.093803     19.093803     38.187607
     -3.738739     20.281616     20.281616     40.563232
     -3.728729     21.406915     21.406915     42.813830
     -3.718719     21.927785     21.927785     43.855571
     -3.708709     21.700711     21.700711     43.401421
     -3.698699     21.002217     21.002217     42.004435
     -3.688689     20.429404     20.429404     40.858807
     -3.678679     20.696993     20.696993     41.393986
     -3.668669     22.381566     22.381566     44.763133
     -3.658659     25.691571     25.691571     51.383143
     -3.648649     30.347866     30.347866     60.695731
     -3.638639     35.630069     35.630069     71.260139
     -3.628629     40.581199     40.581199     81.162398
     -3.618619     44.293243     44.293243     88.586486
     -3.608609     46.159201     46.159201     92.318403
     -3.598599     45.998379     45.998379     91.996757
     -3.588589     44.029674     44.029674     88.059348
     -3.578579     40.737779     40.737779     81.475558
     -3.568569     36.706934     36.706934     73.413869
     -3.558559     32.479098     32.479098     64.958196
     -3.548549     28.457477     28.457477     56.914955
     -3.538539     24.856040     24.856040     49.712080
     -3.528529     21.697171     21.697171     43.394341
     -3.518519     18.862772     18.862772     37.725545
     -3.508509     16.190094     16.190094     32.380187
     -3.498498     13.578345     13.578345     27.156691
     -3.488488     11.059595     11.059595     22.119189
     -3.478478      8.802821      8.802821     17.605641
     -3.468468      7.053989      7.053989     14.107978
     -3.458458      6.043167      6.043167     12.086333
     -3.448448      5.896306      5.896306     11.792612
     -3.438438      6.578712      6.578712     13.157423
     -3.428428      7.884180      7.884180     15.768360
     -3.418418      9.475913      9.475913     18.951826
     -3.408408     10.976972     10.976972     21.953944
     -3.398398     12.091396     12.091396     24.182793
     -3.388388     12.716210     12.716210     25.432419
     -3.378378     12.995911     12.995911     25.991822
     -3.368368     13.288671     13.288671     26.577342
     -3.358358     14.052369     14.052369     28.104738
     -3.348348     15.695103     15.695103     31.390206
     -3.338338     18.444575     18.444575     36.889151
     -3.328328     22.270034     22.270034     44.540068
     -3.318318     26.860138     26.860138     53.720277
     -3.308308     31.646803     31.646803     63.293606
     -3.298298     35.875533     35.875533     71.751067
     -3.288288     38.735493     38.735493     77.470987
     -3.278278     39.548748     39.548748     79.097495
     -3.268268     37.974523     37.974523     75.949046
     -3.258258     34.144378     34.144378     68.288756
     -3.248248     28.651045     28.651045     57.302089
     -3.238238     22.377572     22.377572     44.755144
     -3.228228     16.235875     16.235875     32.471750
     -3.218218     10.927987     10.927987     21.855973
     -3.208208      6.821101      6.821101     13.642202
     -3.198198      3.960120      3.960120      7.920241
     -3.188188      2.176840      2.176840      4.353681
     -3.178178      1.228549      1.228549      2.457099
     -3.168168      0.912268      0.912268      1.824536
     -3.158158      1.131334      1.131334      2.262667
     -3.148148      1.914471      1.914471      3.828943
     -3.138138      3.394788      3.394788      6.789576
     -3.128128      5.753673      5.753673     11.507347
     -3.118118      9.134918      9.134918     18.269836
     -3.108108     13.544936     13.544936     27.089873
     -3.098098     18.772257     18.772257     37.544513
     -3.088088     24.369214     24.369214     48.738429
     -3.078078     29.725541     29.725541     59.451082
     -3.068068     34.223454     34.223454     68.446907
     -3.058058     37.414447     37.414447     74.828894
     -3.048048     39.132463     39.132463     78.264927
     -3.038038     39.483283     39.483283     78.966566
     -3.028028     38.720510     38.720510     77.441021
     -3.018018     37.091343     37.091343     74.182686
     -3.008008     34.756437     34.756437     69.512874
     -2.997998     31.836132     31.836132     63.672264
     -2.987988     28.543630     28.543630     57.087260
     -2.977978     25.300289     25.300289     50.600578
     -2.967968     22.735470     22.735470     45.470939
     -2.957958     21.544899     21.544899     43.089797
     -2.947948     22.265109     22.265109     44.530218
     -2.937938     25.065272     25.065272     50.130544
     -2.927928     29.644936     29.644936     59.289872
     -2.917918     35.276322     35.276322     70.552645
     -2.907908     40.974405     40.974405     81.948809
     -2.897898     45.738862     45.738862     91.477725
     -2.887888     48.795720     48.795720     97.591441
     -2.877878     49.770883     49.770883     99.541766
     -2.867868     48.748461     48.748461     97.496923
     -2.857858     46.199364     46.199364     92.398728
     -2.847848     42.804191     42.804191     85.608381
     -2.837838     39.229489     39.229489     78.458977
     -2.827828     35.935183     35.935183     71.870366
     -2.817818     33.081910     33.081910     66.163821
     -2.807808     30.568022     30.568022     61.136044
     -2.797798     28.170226     28.170226     56.340451
     -2.787788     25.714914     25.714914     51.429829
     -2.777778     23.194574     23.194574     46.389147
     -2.767768     20.774963     20.774963     41.549926
     -2.757758     18.699478     18.699478     37.398956
     -2.747748     17.154398     17.154398     34.308796
     -2.737738     16.179199     16.179199     32.358399
     -2.727728     15.676109     15.676109     31.352219
     -2.717718     15.509076     15.509076     31.018151
     -2.707708     15.623319     15.623319     31.246638
     -2.697698     16.101030     16.101030     32.202060
     -2.687688     17.108919     17.108919     34.217838
     -2.677678     18.765471     18.765471     37.530943
     -2.667668     21.013218     21.013218     42.026437
     -2.657658     23.584517     23.584517     47.169035
     -2.647648     26.092783     26.092783     52.185566
     -2.637638     28.199915     28.199915     56.399830
     -2.627628     29.759289     29.759289     59.518579
     -2.617618     30.849019     30.849019     61.698038
     -2.607608     31.682874     31.682874     63.365748
     -2.597598     32.464435     32.464435     64.928871
     -2.587588     33.277137     33.277137     66.554273
     -2.577578     34.062502     34.062502     68.125005
     -2.567568     34.669016     34.669016     69.338033
     -2.557558     34.913751     34.913751     69.827501
     -2.547548     34.616795     34.616795     69.233590
     -2.537538     33.618544     33.618544     67.237088
     -2.527528     31.818313     31.818313     63.636627
     -2.517518     29.250186     29.250186     58.500371
     -2.507508     26.160308     26.160308     52.320615
     -2.497497     23.019809     23.019809     46.039617
     -2.487487     20.430818     20.430818     40.861637
     -2.477477     18.945728     18.945728     37.891455
     -2.467467     18.877109     18.877109     37.754217
     -2.457457     20.189445     20.189445     40.378890
     -2.447447     22.527165     22.527165     45.054330
     -2.437437     25.368647     25.368647     50.737294
     -2.427427     28.236204     28.236204     56.472407
     -2.417417     30.865174     30.865174     61.730348
     -2.407407     33.253367     33.253367     66.506733
     -2.397397     35.567977     35.567977     71.135954
     -2.387387     37.956021     37.956021     75.912043
     -2.377377     40.354098     40.354098     80.708197
     -2.367367     42.399175     42.399175     84.798349
     -2.357357     43.498817     43.498817     86.997635
     -2.347347     43.044361     43.044361     86.088722
     -2.337337     40.678218     40.678218     81.356435
     -2.327327     36.494000     36.494000     72.988001
     -2.317317     31.075568     31.075568     62.151137
     -2.307307     25.356422     25.356422     50.712845
     -2.297297     20.362599     20.362599     40.725199
     -2.287287     16.945346     16.945346     33.890692
     -2.277277     15.596433     15.596433     31.192866
     -2.267267     16.387702     16.387702     32.775405
     -2.257257     19.023273     19.023273     38.046546
     -2.247247     22.962246     22.962246     45.924493
     -2.237237     27.563234     27.563234     55.126467
     -2.227227     32.208774     32.208774     64.417549
     -2.217217     36.381062     36.381062     72.762125
     -2.207207     39.681184     39.681184     79.362368
     -2.197197     41.810632     41.810632     83.621265
     -2.187187     42.553865     42.553865     85.107731
     -2.177177     41.796954     41.796954     83.593909
     -2.167167     39.584873     39.584873     79.169747
     -2.157157     36.177208     36.177208     72.354415
     -2.147147     32.042351     32.042351     64.084703
     -2.137137     27.756118     27.756118     55.512235
     -2.127127     23.831025     23.831025     47.662050
     -2.117117     20.556050     20.556050     41.112099
     -2.107107     17.931789     17.931789     35.863578
     -2.097097     15.734919     15.734919     31.469838
     -2.087087     13.672090     13.672090     27.344180
     -2.077077     11.536865     11.536865     23.073730
     -2.067067      9.292197      9.292197     18.584394
     -2.057057      7.053430      7.053430     14.106861
     -2.047047      5.003742      5.003742     10.007484
     -2.037037      3.300415      3.300415      6.600829
     -2.027027      2.018233      2.018233      4.036465
     -2.017017      1.143518      1.143518      2.287036
     -2.007007      0.603922      0.603922      1.207843
     -1.996997      0.309091      0.309091      0.618182
     -1.986987      0.183836      0.183836      0.367672
     -1.976977      0.187730      0.187730      0.375460
     -1.966967      0.323698      0.323698      0.647396
     -1.956957      0.639542      0.639542      1.279084
     -1.946947      1.222651      1.222651      2.445301
     -1.936937      2.183979      2.183979      4.367958
     -1.926927      3.627335      3.627335      7.254670
     -1.916917      5.606166      5.606166     11.212331
     -1.906907      8.080006      8.080006     16.160013
     -1.896897     10.889931     10.889931     21.779861
     -1.886887     13.769728     13.769728     27.539457
     -1.876877     16.396019     16.396019     32.792037
     -1.866867     18.463302     18.463302     36.926603
     -1.856857     19.759526     19.759526     39.519052
     -1.846847     20.218799     20.218799     40.437597
     -1.836837     19.936058     19.936058     39.872117
     -1.826827     19.137276     19.137276     38.274553
     -1.816817     18.107709     18.107709     36.215419
     -1.806807     17.094603     17.094603     34.189207
     -1.796797     16.218215     16.218215     32.436430
     -1.786787     15.433044     15.433044     30.866088
     -1.776777     14.565105     14.565105     29.130209
     -1.766767     13.412766     13.412766     26.825532
     -1.756757     11.861359     11.861359     23.722718
     -1.746747      9.953241      9.953241     19.906481
     -1.736737      7.883145      7.883145     15.766289
     -1.726727      5.933515      5.933515     11.867031
     -1.716717      4.394373      4.394373      8.788745
     -1.706707      3.508875      3.508875      7.017750
     -1.696697      3.456221      3.456221      6.912442
     -1.686687      4.351930      4.351930      8.703860
     -1.676677      6.234217      6.234217     12.468435
     -1.666667      9.021046      9.021046     18.042092
     -1.656657     12.454666     12.454666     24.909331
     -1.646647     16.077278     16.077278     32.154556
     -1.636637     19.282098     19.282098     38.564195
     -1.626627     21.451757     21.451757     42.903514
