# EIG2DOS: Utility for SIESTA to obtain the electronic density of states
#  E. Artacho, Apr 1999, A. Garcia, Apr 2012
#  Nick R. Papior, Feb 2017
# ------------------------------------------
# Eigenvalues calculated from a non-polarized calculation
# Eigenvalues read from siesta.EIG
# Kpoint weights read from siesta.KP
# Using smearing parameter:   0.0500
# Using 1000 points in the energy range
# Selected bands: 1 to: 2981
# Emin, Emax in file for selected band(s):    -27.0589359    218.3348560
# Nbands, Nspin, Nk   =   2981     1     1
# E_F                 =    -4.2717 eV --> (shifted to ZERO)
# Broadening          =     0.0500 eV
#
#        E            N(up)  (=)   N(down)         Ntot
     -5.000000     36.918151     36.918151     73.836302
     -4.989990     39.478828     39.478828     78.957655
     -4.979980     41.695770     41.695770     83.391540
     -4.969970     43.100200     43.100200     86.200400
     -4.959960     43.348202     43.348202     86.696405
     -4.949950     42.320779     42.320779     84.641557
     -4.939940     40.159755     40.159755     80.319511
     -4.929930     37.246295     37.246295     74.492591
     -4.919920     34.146156     34.146156     68.292313
     -4.909910     31.540974     31.540974     63.081949
     -4.899900     30.143057     30.143057     60.286115
     -4.889890     30.572654     30.572654     61.145308
     -4.879880     33.185931     33.185931     66.371862
     -4.869870     37.886465     37.886465     75.772931
     -4.859860     44.007346     44.007346     88.014693
     -4.849850     50.366457     50.366457    100.732914
     -4.839840     55.539975     55.539975    111.079950
     -4.829830     58.285590     58.285590    116.571179
     -4.819820     57.945683     57.945683    115.891366
     -4.809810     54.646397     54.646397    109.292794
     -4.799800     49.202674     49.202674     98.405347
     -4.789790     42.787642     42.787642     85.575284
     -4.779780     36.533432     36.533432     73.066864
     -4.769770     31.236186     31.236186     62.472372
     -4.759760     27.251778     27.251778     54.503555
     -4.749750     24.559602     24.559602     49.119205
     -4.739740     22.907881     22.907881     45.815762
     -4.729730     21.955454     21.955454     43.910908
     -4.719720     21.365520     21.365520     42.731039
     -4.709710     20.848497     20.848497     41.696994
     -4.699700     20.174831     20.174831     40.349662
     -4.689690     19.184223     19.184223     38.368446
     -4.679680     17.810432     17.810432     35.620865
     -4.669670     16.123722     16.123722     32.247444
     -4.659660     14.372461     14.372461     28.744923
     -4.649650     12.992689     12.992689     25.985377
     -4.639640     12.558278     12.558278     25.116556
     -4.629630     13.663075     13.663075     27.326151
     -4.619620     16.751104     16.751104     33.502208
     -4.609610     21.934711     21.934711     43.869422
     -4.599600     28.859781     28.859781     57.719561
     -4.589590     36.684493     36.684493     73.368986
     -4.579580     44.219205     44.219205     88.438409
     -4.569570     50.221168     50.221168    100.442336
     -4.559560     53.763567     53.763567    107.527134
     -4.549550     54.543004     54.543004    109.086009
     -4.539540     52.993347     52.993347    105.986694
     -4.529530     50.146060     50.146060    100.292120
     -4.519520     47.284610     47.284610     94.569220
     -4.509510     45.527012     45.527012     91.054025
     -4.499499     45.492446     45.492446     90.984891
     -4.489489     47.159458     47.159458     94.318916
     -4.479479     49.936449     49.936449     99.872897
     -4.469469     52.886455     52.886455    105.772909
     -4.459459     55.010926     55.010926    110.021852
     -4.449449     55.505326     55.505326    111.010653
     -4.439439     53.933238     53.933238    107.866476
     -4.429429     50.300575     50.300575    100.601149
     -4.419419     45.034339     45.034339     90.068678
     -4.409409     38.881760     38.881760     77.763521
     -4.399399     32.752085     32.752085     65.504170
     -4.389389     27.529255     27.529255     55.058509
     -4.379379     23.890061     23.890061     47.780121
     -4.369369     22.167063     22.167063     44.334126
     -4.359359     22.293626     22.293626     44.587252
     -4.349349     23.853334     23.853334     47.706669
     -4.339339     26.225902     26.225902     52.451804
     -4.329329     28.785522     28.785522     57.571044
     -4.319319     31.083856     31.083856     62.167711
     -4.309309     32.954379     32.954379     65.908758
     -4.299299     34.507195     34.507195     69.014390
     -4.289289     36.025793     36.025793     72.051586
     -4.279279     37.807872     37.807872     75.615744
     -4.269269     40.002726     40.002726     80.005451
     -4.259259     42.494983     42.494983     84.989966
     -4.249249     44.877675     44.877675     89.755349
     -4.239239     46.542396     46.542396     93.084792
     -4.229229     46.878622     46.878622     93.757244
     -4.219219     45.519377     45.519377     91.038754
     -4.209209     42.526065     42.526065     85.052129
     -4.199199     38.412027     38.412027     76.824054
     -4.189189     33.976119     33.976119     67.952237
     -4.179179     30.018377     30.018377     60.036754
     -4.169169     27.075003     27.075003     54.150006
     -4.159159     25.295764     25.295764     50.591527
     -4.149149     24.504827     24.504827     49.009654
     -4.139139     24.390198     24.390198     48.780397
     -4.129129     24.711224     24.711224     49.422447
     -4.119119     25.418120     25.418120     50.836241
     -4.109109     26.628517     26.628517     53.257035
     -4.099099     28.476726     28.476726     56.953452
     -4.089089     30.916097     30.916097     61.832194
     -4.079079     33.588294     33.588294     67.176588
     -4.069069     35.853101     35.853101     71.706202
     -4.059059     36.994970     36.994970     73.989941
     -4.049049     36.520942     36.520942     73.041883
     -4.039039     34.399949     34.399949     68.799899
     -4.029029     31.114412     31.114412     62.228824
     -4.019019     27.495814     27.495814     54.991628
     -4.009009     24.433935     24.433935     48.867870
     -3.998999     22.608342     22.608342     45.216685
     -3.988989     22.357191     22.357191     44.714383
     -3.978979     23.703399     23.703399     47.406798
     -3.968969     26.470779     26.470779     52.941558
     -3.958959     30.397242     30.397242     60.794484
     -3.948949     35.192400     35.192400     70.384799
     -3.938939     40.549876     40.549876     81.099751
     -3.928929     46.158167     46.158167     92.316333
     -3.918919     51.737017     51.737017    103.474033
     -3.908909     57.081684     57.081684    114.163369
     -3.898899     62.068912     62.068912    124.137823
     -3.888889     66.593677     66.593677    133.187354
     -3.878879     70.456204     70.456204    140.912407
     -3.868869     73.267692     73.267692    146.535383
     -3.858859     74.453910     74.453910    148.907820
     -3.848849     73.394927     73.394927    146.789854
     -3.838839     69.665618     69.665618    139.331236
     -3.828829     63.275855     63.275855    126.551710
     -3.818819     54.791795     54.791795    109.583589
     -3.808809     45.265437     45.265437     90.530874
     -3.798799     35.986145     35.986145     71.972290
     -3.788789     28.147270     28.147270     56.294540
     -3.778779     22.551352     22.551352     45.102704
     -3.768769     19.449091     19.449091     38.898181
     -3.758759     18.545309     18.545309     37.090617
     -3.748749     19.146123     19.146123     38.292246
     -3.738739     20.388395     20.388395     40.776790
     -3.728729     21.486096     21.486096     42.972192
     -3.718719     21.936633     21.936633     43.873267
     -3.708709     21.643180     21.643180     43.286361
     -3.698699     20.924315     20.924315     41.848631
     -3.688689     20.402918     20.402918     40.805836
     -3.678679     20.794899     20.794899     41.589799
     -3.668669     22.651645     22.651645     45.303290
     -3.658659     26.136733     26.136733     52.273466
     -3.648649     30.920616     30.920616     61.841233
     -3.638639     36.243787     36.243787     72.487575
     -3.628629     41.134008     41.134008     82.268015
     -3.618619     44.694841     44.694841     89.389681
     -3.608609     46.350480     46.350480     92.700960
     -3.598599     45.958526     45.958526     91.917052
     -3.588589     43.772302     43.772302     87.544605
     -3.578579     40.301746     40.301746     80.603493
     -3.568569     36.146771     36.146771     72.293543
     -3.558559     31.856412     31.856412     63.712824
     -3.548549     27.832342     27.832342     55.664685
     -3.538539     24.278132     24.278132     48.556263
     -3.528529     21.198746     21.198746     42.397493
     -3.518519     18.456440     18.456440     36.912880
     -3.508509     15.872457     15.872457     31.744913
     -3.498498     13.337511     13.337511     26.675022
     -3.488488     10.882746     10.882746     21.765493
     -3.478478      8.680740      8.680740     17.361480
     -3.468468      6.981614      6.981614     13.963228
     -3.458458      6.017293      6.017293     12.034586
     -3.448448      5.912347      5.912347     11.824695
     -3.438438      6.628258      6.628258     13.256517
     -3.428428      7.954573      7.954573     15.909147
     -3.418418      9.552429      9.552429     19.104858
     -3.408408     11.047320     11.047320     22.094640
     -3.398398     12.151060     12.151060     24.302119
     -3.388388     12.772285     12.772285     25.544571
     -3.378378     13.067334     13.067334     26.134668
     -3.368368     13.402224     13.402224     26.804448
     -3.358358     14.235830     14.235830     28.471661
     -3.348348     15.969834     15.969834     31.939667
     -3.338338     18.819117     18.819117     37.638234
     -3.328328     22.734809     22.734809     45.469617
     -3.318318     27.382965     27.382965     54.765929
     -3.308308     32.170718     32.170718     64.341436
     -3.298298     36.322829     36.322829     72.645658
     -3.288288     39.021702     39.021702     78.043405
     -3.278278     39.605637     39.605637     79.211275
     -3.268268     37.774165     37.774165     75.548330
     -3.258258     33.712539     33.712539     67.425079
     -3.248248     28.061691     28.061691     56.123381
     -3.238238     21.729825     21.729825     43.459649
     -3.228228     15.624042     15.624042     31.248084
     -3.218218     10.417997     10.417997     20.835993
     -3.208208      6.441762      6.441762     12.883525
     -3.198198      3.709303      3.709303      7.418607
     -3.188188      2.036660      2.036660      4.073320
     -3.178178      1.182647      1.182647      2.365294
     -3.168168      0.961181      0.961181      1.922361
     -3.158158      1.305520      1.305520      2.611040
     -3.148148      2.286274      2.286274      4.572548
     -3.138138      4.089560      4.089560      8.179121
     -3.128128      6.957021      6.957021     13.914042
     -3.118118     11.088652     11.088652     22.177304
     -3.108108     16.520978     16.520978     33.041955
     -3.098098     23.014423     23.014423     46.028845
     -3.088088     30.001349     30.001349     60.002698
     -3.078078     36.642340     36.642340     73.284681
     -3.068068     42.003036     42.003036     84.006072
     -3.058058     45.306582     45.306582     90.613165
     -3.048048     46.167464     46.167464     92.334928
     -3.038038     44.705565     44.705565     89.411130
     -3.028028     41.488151     41.488151     82.976302
     -3.018018     37.328608     37.328608     74.657216
     -3.008008     33.036112     33.036112     66.072225
     -2.997998     29.221569     29.221569     58.443138
     -2.987988     26.221981     26.221981     52.443962
     -2.977978     24.141811     24.141811     48.283621
     -2.967968     22.963229     22.963229     45.926459
     -2.957958     22.661771     22.661771     45.323543
     -2.947948     23.272740     23.272740     46.545481
     -2.937938     24.876981     24.876981     49.753963
     -2.927928     27.509581     27.509581     55.019162
     -2.917918     31.036220     31.036220     62.072439
     -2.907908     35.070585     35.070585     70.141170
     -2.897898     38.998699     38.998699     77.997398
     -2.887888     42.125895     42.125895     84.251789
     -2.877878     43.893360     43.893360     87.786719
     -2.867868     44.065129     44.065129     88.130258
     -2.857858     42.793604     42.793604     85.587208
     -2.847848     40.530209     40.530209     81.060419
     -2.837838     37.825084     37.825084     75.650168
     -2.827828     35.113256     35.113256     70.226511
     -2.817818     32.586738     32.586738     65.173477
     -2.807808     30.203261     30.203261     60.406523
     -2.797798     27.810146     27.810146     55.620293
     -2.787788     25.304680     25.304680     50.609359
     -2.777778     22.739643     22.739643     45.479287
     -2.767768     20.319930     20.319930     40.639861
     -2.757758     18.301738     18.301738     36.603476
     -2.747748     16.862515     16.862515     33.725030
     -2.737738     16.024664     16.024664     32.049327
     -2.727728     15.679730     15.679730     31.359459
     -2.717718     15.693690     15.693690     31.387381
     -2.707708     16.019309     16.019309     32.038618
     -2.697698     16.734699     16.734699     33.469398
     -2.687688     17.975422     17.975422     35.950843
     -2.677678     19.801070     19.801070     39.602140
     -2.667668     22.087305     22.087305     44.174609
     -2.657658     24.524306     24.524306     49.048611
     -2.647648     26.735446     26.735446     53.470892
     -2.637638     28.449019     28.449019     56.898038
     -2.627628     29.617291     29.617291     59.234582
     -2.617618     30.410050     30.410050     60.820100
     -2.607608     31.092125     31.092125     62.184251
     -2.597598     31.866949     31.866949     63.733898
     -2.587588     32.779107     32.779107     65.558215
     -2.577578     33.714924     33.714924     67.429849
     -2.567568     34.469109     34.469109     68.938218
     -2.557558     34.814941     34.814941     69.629882
     -2.547548     34.543078     34.543078     69.086156
     -2.537538     33.484896     33.484896     66.969793
     -2.527528     31.557662     31.557662     63.115325
     -2.517518     28.840149     28.840149     57.680298
     -2.507508     25.637517     25.637517     51.275034
     -2.497497     22.472684     22.472684     44.945368
     -2.487487     19.972074     19.972074     39.944147
     -2.477477     18.676309     18.676309     37.352619
     -2.467467     18.856870     18.856870     37.713740
     -2.457457     20.425315     20.425315     40.850631
     -2.447447     22.980668     22.980668     45.961336
     -2.437437     25.976371     25.976371     51.952742
     -2.427427     28.932489     28.932489     57.864978
     -2.417417     31.596759     31.596759     63.193517
     -2.407407     33.980454     33.980454     67.960907
     -2.397397     36.253289     36.253289     72.506579
     -2.387387     38.549954     38.549954     77.099909
     -2.377377     40.786875     40.786875     81.573750
     -2.367367     42.588111     42.588111     85.176222
     -2.357357     43.371208     43.371208     86.742416
     -2.347347     42.567514     42.567514     85.135027
     -2.337337     39.882612     39.882612     79.765225
     -2.327327     35.477062     35.477062     70.954124
     -2.317317     29.982148     29.982148     59.964295
     -2.307307     24.343249     24.343249     48.686499
     -2.297297     19.561257     19.561257     39.122513
     -2.287287     16.437628     16.437628     32.875256
     -2.277277     15.408492     15.408492     30.816984
     -2.267267     16.500230     16.500230     33.000460
     -2.257257     19.389034     19.389034     38.778069
     -2.247247     23.521575     23.521575     47.043151
     -2.237237     28.251595     28.251595     56.503191
     -2.227227     32.956001     32.956001     65.912002
     -2.217217     37.107107     37.107107     74.214214
     -2.207207     40.295908     40.295908     80.591815
     -2.197197     42.223558     42.223558     84.447116
     -2.187187     42.694079     42.694079     85.388158
     -2.177177     41.636117     41.636117     83.272234
     -2.167167     39.151933     39.151933     78.303867
     -2.157157     35.555097     35.555097     71.110194
     -2.147147     31.344689     31.344689     62.689377
     -2.137137     27.091929     27.091929     54.183857
     -2.127127     23.272203     23.272203     46.544406
     -2.117117     20.121533     20.121533     40.243067
     -2.107107     17.594271     17.594271     35.188541
     -2.097097     15.444696     15.444696     30.889392
     -2.087087     13.384930     13.384930     26.769860
     -2.077077     11.232612     11.232612     22.465223
     -2.067067      8.977723      8.977723     17.955446
     -2.057057      6.752544      6.752544     13.505087
     -2.047047      4.742335      4.742335      9.484671
     -2.037037      3.095074      3.095074      6.190148
     -2.027027      1.872247      1.872247      3.744493
     -2.017017      1.049385      1.049385      2.098770
     -2.007007      0.548846      0.548846      1.097691
     -1.996997      0.280110      0.280110      0.560221
     -1.986987      0.170906      0.170906      0.341813
     -1.976977      0.184763      0.184763      0.369526
     -1.966967      0.328353      0.328353      0.656705
     -1.956957      0.652564      0.652564      1.305128
     -1.946947      1.247131      1.247131      2.494262
     -1.936937      2.224529      2.224529      4.449057
     -1.926927      3.689010      3.689010      7.378019
     -1.916917      5.693054      5.693054     11.386107
     -1.906907      8.193579      8.193579     16.387158
     -1.896897     11.027412     11.027412     22.054824
     -1.886887     13.922845     13.922845     27.845690
     -1.876877     16.550615     16.550615     33.101231
     -1.866867     18.600426     18.600426     37.200852
     -1.856857     19.858485     19.858485     39.716970
     -1.846847     20.262059     20.262059     40.524118
     -1.836837     19.914752     19.914752     39.829504
     -1.826827     19.055192     19.055192     38.110384
     -1.816817     17.982056     17.982056     35.964111
     -1.806807     16.953828     16.953828     33.907657
     -1.796797     16.099950     16.099950     32.199899
     -1.786787     15.387051     15.387051     30.774101
     -1.776777     14.665396     14.665396     29.330791
     -1.766767     13.779157     13.779157     27.558313
     -1.756757     12.684009     12.684009     25.368018
     -1.746747     11.505751     11.505751     23.011503
     -1.736737     10.503998     10.503998     21.007996
     -1.726727      9.957672      9.957672     19.915343
     -1.716717     10.032087     10.032087     20.064174
     -1.706707     10.696910     10.696910     21.393821
     -1.696697     11.736877     11.736877     23.473754
     -1.686687     12.848341     12.848341     25.696682
     -1.676677     13.769470     13.769470     27.538941
     -1.666667     14.373998     14.373998     28.747995
     -1.656657     14.679748     14.679748     29.359496
     -1.646647     14.774450     14.774450     29.548899
     -1.636637     14.712699     14.712699     29.425399
     -1.626627     14.455767     14.455767     28.911535
