# EIG2DOS: Utility for SIESTA to obtain the electronic density of states
#  E. Artacho, Apr 1999, A. Garcia, Apr 2012
#  Nick R. Papior, Feb 2017
# ------------------------------------------
# Eigenvalues calculated from a non-polarized calculation
# Eigenvalues read from siesta.EIG
# Kpoint weights read from siesta.KP
# Using smearing parameter:   0.0500
# Using 1000 points in the energy range
# Selected bands: 1 to: 2981
# Emin, Emax in file for selected band(s):    -27.3326815    218.4175320
# Nbands, Nspin, Nk   =   2981     1     1
# E_F                 =    -4.1807 eV --> (shifted to ZERO)
# Broadening          =     0.0500 eV
#
#        E            N(up)  (=)   N(down)         Ntot
     -5.000000     32.063866     32.063866     64.127733
     -4.989990     37.518528     37.518528     75.037056
     -4.979980     42.602991     42.602991     85.205982
     -4.969970     46.389204     46.389204     92.778409
     -4.959960     48.137012     48.137012     96.274025
     -4.949950     47.544845     47.544845     95.089690
     -4.939940     44.852596     44.852596     89.705193
     -4.929930     40.773188     40.773188     81.546375
     -4.919920     36.306306     36.306306     72.612612
     -4.909910     32.516181     32.516181     65.032361
     -4.899900     30.329505     30.329505     60.659009
     -4.889890     30.366949     30.366949     60.733898
     -4.879880     32.806535     32.806535     65.613070
     -4.869870     37.300166     37.300166     74.600332
     -4.859860     42.994022     42.994022     85.988045
     -4.849850     48.696302     48.696302     97.392605
     -4.839840     53.178933     53.178933    106.357866
     -4.829830     55.524799     55.524799    111.049598
     -4.819820     55.390417     55.390417    110.780834
     -4.809810     53.077763     53.077763    106.155526
     -4.799800     49.387983     49.387983     98.775965
     -4.789790     45.320819     45.320819     90.641638
     -4.779780     41.740846     41.740846     83.481692
     -4.769770     39.132534     39.132534     78.265067
     -4.759760     37.518829     37.518829     75.037657
     -4.749750     36.548948     36.548948     73.097897
     -4.739740     35.698938     35.698938     71.397876
     -4.729730     34.493544     34.493544     68.987087
     -4.719720     32.660978     32.660978     65.321956
     -4.709710     30.172648     30.172648     60.345295
     -4.699700     27.181091     27.181091     54.362182
     -4.689690     23.919445     23.919445     47.838890
     -4.679680     20.634692     20.634692     41.269385
     -4.669670     17.589827     17.589827     35.179655
     -4.659660     15.113575     15.113575     30.227151
     -4.649650     13.638666     13.638666     27.277331
     -4.639640     13.671803     13.671803     27.343605
     -4.629630     15.673698     15.673698     31.347395
     -4.619620     19.874812     19.874812     39.749624
     -4.609610     26.093457     26.093457     52.186913
     -4.599600     33.644192     33.644192     67.288385
     -4.589590     41.411994     41.411994     82.823987
     -4.579580     48.111644     48.111644     96.223287
     -4.569570     52.664769     52.664769    105.329538
     -4.559560     54.551389     54.551389    109.102778
     -4.549550     53.980085     53.980085    107.960170
     -4.539540     51.790888     51.790888    103.581776
     -4.529530     49.125376     49.125376     98.250753
     -4.519520     47.003436     47.003436     94.006873
     -4.509510     45.980890     45.980890     91.961779
     -4.499499     46.015167     46.015167     92.030334
     -4.489489     46.568591     46.568591     93.137182
     -4.479479     46.880243     46.880243     93.760487
     -4.469469     46.279474     46.279474     92.558947
     -4.459459     44.415512     44.415512     88.831024
     -4.449449     41.330749     41.330749     82.661497
     -4.439439     37.382025     37.382025     74.764049
     -4.429429     33.078151     33.078151     66.156303
     -4.419419     28.923661     28.923661     57.847321
     -4.409409     25.331074     25.331074     50.662148
     -4.399399     22.607000     22.607000     45.213999
     -4.389389     20.969109     20.969109     41.938217
     -4.379379     20.543231     20.543231     41.086462
     -4.369369     21.324774     21.324774     42.649549
     -4.359359     23.136263     23.136263     46.272527
     -4.349349     25.633472     25.633472     51.266943
     -4.339339     28.388634     28.388634     56.777269
     -4.329329     31.028026     31.028026     62.056052
     -4.319319     33.360112     33.360112     66.720224
     -4.309309     35.427296     35.427296     70.854592
     -4.299299     37.448944     37.448944     74.897887
     -4.289289     39.673658     39.673658     79.347316
     -4.279279     42.199742     42.199742     84.399484
     -4.269269     44.840562     44.840562     89.681123
     -4.259259     47.102329     47.102329     94.204658
     -4.249249     48.305664     48.305664     96.611328
     -4.239239     47.824275     47.824275     95.648549
     -4.229229     45.353275     45.353275     90.706551
     -4.219219     41.088507     41.088507     82.177014
     -4.209209     35.724027     35.724027     71.448054
     -4.199199     30.254304     30.254304     60.508608
     -4.189189     25.660638     25.660638     51.321277
     -4.179179     22.615506     22.615506     45.231012
     -4.169169     21.324722     21.324722     42.649444
     -4.159159     21.557690     21.557690     43.115380
     -4.149149     22.830738     22.830738     45.661476
     -4.139139     24.648004     24.648004     49.296009
     -4.129129     26.689223     26.689223     53.378445
     -4.119119     28.864029     28.864029     57.728058
     -4.109109     31.215457     31.215457     62.430913
     -4.099099     33.729609     33.729609     67.459217
     -4.089089     36.163545     36.163545     72.327090
     -4.079079     38.006245     38.006245     76.012490
     -4.069069     38.623616     38.623616     77.247232
     -4.059059     37.533458     37.533458     75.066916
     -4.049049     34.671317     34.671317     69.342633
     -4.039039     30.501728     30.501728     61.003456
     -4.029029     25.910729     25.910729     51.821458
     -4.019019     21.933038     21.933038     43.866076
     -4.009009     19.446129     19.446129     38.892259
     -3.998999     18.960530     18.960530     37.921059
     -3.988989     20.566201     20.566201     41.132403
     -3.978979     24.011954     24.011954     48.023908
     -3.968969     28.847311     28.847311     57.694621
     -3.958959     34.559330     34.559330     69.118660
     -3.948949     40.671311     40.671311     81.342621
     -3.938939     46.802989     46.802989     93.605978
     -3.928929     52.700634     52.700634    105.401267
     -3.918919     58.233487     58.233487    116.466974
     -3.908909     63.343363     63.343363    126.686727
     -3.898899     67.947661     67.947661    135.895322
     -3.888889     71.829944     71.829944    143.659888
     -3.878879     74.579815     74.579815    149.159629
     -3.868869     75.636624     75.636624    151.273248
     -3.858859     74.445161     74.445161    148.890322
     -3.848849     70.671125     70.671125    141.342250
     -3.838839     64.386519     64.386519    128.773038
     -3.828829     56.142089     56.142089    112.284178
     -3.818819     46.890151     46.890151     93.780302
     -3.808809     37.780701     37.780701     75.561402
     -3.798799     29.898341     29.898341     59.796682
     -3.788789     24.021595     24.021595     48.043190
     -3.778779     20.470860     20.470860     40.941720
     -3.768769     19.078644     19.078644     38.157288
     -3.758759     19.280152     19.280152     38.560303
     -3.748749     20.293590     20.293590     40.587179
     -3.738739     21.342050     21.342050     42.684100
     -3.728729     21.862843     21.862843     43.725686
     -3.718719     21.654315     21.654315     43.308630
     -3.708709     20.922872     20.922872     41.845744
     -3.698699     20.213092     20.213092     40.426184
     -3.688689     20.230721     20.230721     40.461442
     -3.678679     21.599804     21.599804     43.199608
     -3.668669     24.623912     24.623912     49.247824
     -3.658659     29.134108     29.134108     58.268215
     -3.648649     34.488604     34.488604     68.977208
     -3.638639     39.737392     39.737392     79.474783
     -3.628629     43.896766     43.896766     87.793531
     -3.618619     46.228597     46.228597     92.457194
     -3.608609     46.418997     46.418997     92.837994
     -3.598599     44.603485     44.603485     89.206969
     -3.588589     41.258415     41.258415     82.516830
     -3.578579     37.026486     37.026486     74.052971
     -3.568569     32.545545     32.545545     65.091090
     -3.558559     28.319810     28.319810     56.639620
     -3.548549     24.644233     24.644233     49.288465
     -3.538539     21.584590     21.584590     43.169181
     -3.528529     19.018137     19.018137     38.036275
     -3.518519     16.731527     16.731527     33.463053
     -3.508509     14.549093     14.549093     29.098186
     -3.498498     12.442874     12.442874     24.885748
     -3.488488     10.577224     10.577224     21.154448
     -3.478478      9.268197      9.268197     18.536394
     -3.468468      8.873166      8.873166     17.746333
     -3.458458      9.649437      9.649437     19.298874
     -3.448448     11.626933     11.626933     23.253867
     -3.438438     14.537178     14.537178     29.074357
     -3.428428     17.833255     17.833255     35.666510
     -3.418418     20.816293     20.816293     41.632586
     -3.408408     22.846000     22.846000     45.692000
     -3.398398     23.566323     23.566323     47.132647
     -3.388388     23.052188     23.052188     46.104376
     -3.378378     21.805687     21.805687     43.611375
     -3.368368     20.596009     20.596009     41.192018
     -3.358358     20.208818     20.208818     40.417637
     -3.348348     21.203661     21.203661     42.407322
     -3.338338     23.756698     23.756698     47.513396
     -3.328328     27.615111     27.615111     55.230222
     -3.318318     32.149580     32.149580     64.299160
     -3.308308     36.483214     36.483214     72.966428
     -3.298298     39.683802     39.683802     79.367605
     -3.288288     40.999149     40.999149     81.998297
     -3.278278     40.081230     40.081230     80.162459
     -3.268268     37.111652     37.111652     74.223304
     -3.258258     32.752242     32.752242     65.504484
     -3.248248     27.915681     27.915681     55.831362
     -3.238238     23.445373     23.445373     46.890745
     -3.228228     19.847564     19.847564     39.695128
     -3.218218     17.192401     17.192401     34.384802
     -3.208208     15.209983     15.209983     30.419966
     -3.198198     13.510334     13.510334     27.020667
     -3.188188     11.809064     11.809064     23.618128
     -3.178178     10.061692     10.061692     20.123384
     -3.168168      8.473832      8.473832     16.947664
     -3.158158      7.416312      7.416312     14.832624
     -3.148148      7.300462      7.300462     14.600925
     -3.138138      8.457106      8.457106     16.914212
     -3.128128     11.036966     11.036966     22.073931
     -3.118118     14.937313     14.937313     29.874626
     -3.108108     19.767819     19.767819     39.535638
     -3.098098     24.881945     24.881945     49.763890
     -3.088088     29.494394     29.494394     58.988788
     -3.078078     32.870332     32.870332     65.740663
     -3.068068     34.525451     34.525451     69.050902
     -3.058058     34.352015     34.352015     68.704031
     -3.048048     32.610210     32.610210     65.220420
     -3.038038     29.789919     29.789919     59.579839
     -3.028028     26.416511     26.416511     52.833022
     -3.018018     22.900228     22.900228     45.800457
     -3.008008     19.494940     19.494940     38.989880
     -2.997998     16.362172     16.362172     32.724345
     -2.987988     13.677711     13.677711     27.355421
     -2.977978     11.704953     11.704953     23.409906
     -2.967968     10.790545     10.790545     21.581090
     -2.957958     11.284659     11.284659     22.569319
     -2.947948     13.421190     13.421190     26.842379
     -2.937938     17.202734     17.202734     34.405468
     -2.927928     22.329977     22.329977     44.659954
     -2.917918     28.204846     28.204846     56.409693
     -2.907908     34.022048     34.022048     68.044097
     -2.897898     38.939267     38.939267     77.878534
     -2.887888     42.283954     42.283954     84.567909
     -2.877878     43.727931     43.727931     87.455863
     -2.867868     43.359160     43.359160     86.718319
     -2.857858     41.613530     41.613530     83.227059
     -2.847848     39.088869     39.088869     78.177737
     -2.837838     36.320126     36.320126     72.640253
     -2.827828     33.616010     33.616010     67.232021
     -2.817818     31.026894     31.026894     62.053788
     -2.807808     28.445116     28.445116     56.890233
     -2.797798     25.769700     25.769700     51.539399
     -2.787788     23.037785     23.037785     46.075569
     -2.777778     20.451473     20.451473     40.902945
     -2.767768     18.294519     18.294519     36.589038
     -2.757758     16.798703     16.798703     33.597406
     -2.747748     16.045829     16.045829     32.091658
     -2.737738     15.963213     15.963213     31.926425
     -2.727728     16.406262     16.406262     32.812524
     -2.717718     17.262886     17.262886     34.525771
     -2.707708     18.500933     18.500933     37.001867
     -2.697698     20.123136     20.123136     40.246272
     -2.687688     22.065991     22.065991     44.131982
     -2.677678     24.127919     24.127919     48.255838
     -2.667668     25.998597     25.998597     51.997194
     -2.657658     27.390436     27.390436     54.780873
     -2.647648     28.194408     28.194408     56.388815
     -2.637638     28.555276     28.555276     57.110551
     -2.627628     28.808971     28.808971     57.617943
     -2.617618     29.314147     29.314147     58.628295
     -2.607608     30.275896     30.275896     60.551792
     -2.597598     31.656194     31.656194     63.312388
     -2.587588     33.201260     33.201260     66.402520
     -2.577578     34.544034     34.544034     69.088067
     -2.567568     35.313000     35.313000     70.626000
     -2.557558     35.206487     35.206487     70.412975
     -2.547548     34.038633     34.038633     68.077267
     -2.537538     31.783863     31.783863     63.567727
     -2.527528     28.626412     28.626412     57.252825
     -2.517518     24.985549     24.985549     49.971097
     -2.507508     21.474027     21.474027     42.948054
     -2.497497     18.772711     18.772711     37.545423
     -2.487487     17.450875     17.450875     34.901750
     -2.477477     17.797264     17.797264     35.594529
     -2.467467     19.730526     19.730526     39.461051
     -2.457457     22.829263     22.829263     45.658526
     -2.447447     26.476066     26.476066     52.952131
     -2.437437     30.064123     30.064123     60.128246
     -2.427427     33.186050     33.186050     66.372099
     -2.417417     35.725682     35.725682     71.451364
     -2.407407     37.809895     37.809895     75.619790
     -2.397397     39.639319     39.639319     79.278637
     -2.387387     41.278850     41.278850     82.557699
     -2.377377     42.518952     42.518952     85.037904
     -2.367367     42.893950     42.893950     85.787901
     -2.357357     41.867225     41.867225     83.734450
     -2.347347     39.101408     39.101408     78.202816
     -2.337337     34.678217     34.678217     69.356434
     -2.327327     29.154378     29.154378     58.308756
     -2.317317     23.426866     23.426866     46.853732
     -2.307307     18.477705     18.477705     36.955411
     -2.297297     15.116201     15.116201     30.232403
     -2.287287     13.813977     13.813977     27.627954
     -2.277277     14.663595     14.663595     29.327191
     -2.267267     17.432538     17.432538     34.865077
     -2.257257     21.660638     21.660638     43.321275
     -2.247247     26.758647     26.758647     53.517294
     -2.237237     32.088286     32.088286     64.176572
     -2.227227     37.022506     37.022506     74.045012
     -2.217217     40.993688     40.993688     81.987375
     -2.207207     43.539530     43.539530     87.079060
     -2.197197     44.353913     44.353913     88.707827
     -2.187187     43.341953     43.341953     86.683905
     -2.177177     40.664365     40.664365     81.328731
     -2.167167     36.742420     36.742420     73.484841
     -2.157157     32.194740     32.194740     64.389480
     -2.147147     27.701620     27.701620     55.403240
     -2.137137     23.834177     23.834177     47.668354
     -2.127127     20.917248     20.917248     41.834496
     -2.117117     18.987824     18.987824     37.975649
     -2.107107     17.861512     17.861512     35.723024
     -2.097097     17.259055     17.259055     34.518110
     -2.087087     16.916985     16.916985     33.833970
     -2.077077     16.631328     16.631328     33.262656
     -2.067067     16.240042     16.240042     32.480084
     -2.057057     15.593070     15.593070     31.186141
     -2.047047     14.556675     14.556675     29.113351
     -2.037037     13.058165     13.058165     26.116330
     -2.027027     11.135675     11.135675     22.271350
     -2.017017      8.949310      8.949310     17.898620
     -2.007007      6.737938      6.737938     13.475875
     -1.996997      4.744269      4.744269      9.488538
     -1.986987      3.149691      3.149691      6.299382
     -1.976977      2.049582      2.049582      4.099164
     -1.966967      1.472293      1.472293      2.944586
     -1.956957      1.421013      1.421013      2.842026
     -1.946947      1.909600      1.909600      3.819200
     -1.936937      2.970932      2.970932      5.941864
     -1.926927      4.632342      4.632342      9.264684
     -1.916917      6.869750      6.869750     13.739500
     -1.906907      9.563952      9.563952     19.127905
     -1.896897     12.484140     12.484140     24.968281
     -1.886887     15.313148     15.313148     30.626297
     -1.876877     17.710647     17.710647     35.421295
     -1.866867     19.394071     19.394071     38.788141
     -1.856857     20.210677     20.210677     40.421353
     -1.846847     20.178067     20.178067     40.356135
     -1.836837     19.479062     19.479062     38.958125
     -1.826827     18.406674     18.406674     36.813349
     -1.816817     17.268589     17.268589     34.537178
     -1.806807     16.279527     16.279527     32.559054
     -1.796797     15.485399     15.485399     30.970797
     -1.786787     14.759089     14.759089     29.518178
     -1.776777     13.876675     13.876675     27.753350
     -1.766767     12.639215     12.639215     25.278430
     -1.756757     10.978262     10.978262     21.956525
     -1.746747      8.993484      8.993484     17.986967
     -1.736737      6.912056      6.912056     13.824112
     -1.726727      5.002935      5.002935     10.005870
     -1.716717      3.496503      3.496503      6.993006
     -1.706707      2.544461      2.544461      5.088923
     -1.696697      2.221917      2.221917      4.443834
     -1.686687      2.547304      2.547304      5.094608
     -1.676677      3.491006      3.491006      6.982012
     -1.666667      4.959953      4.959953      9.919906
     -1.656657      6.770737      6.770737     13.541474
     -1.646647      8.641481      8.641481     17.282962
     -1.636637     10.230412     10.230412     20.460823
     -1.626627     11.225501     11.225501     22.451003
