# EIG2DOS: Utility for SIESTA to obtain the electronic density of states
#  E. Artacho, Apr 1999, A. Garcia, Apr 2012
#  Nick R. Papior, Feb 2017
# ------------------------------------------
# Eigenvalues calculated from a non-polarized calculation
# Eigenvalues read from siesta.EIG
# Kpoint weights read from siesta.KP
# Using smearing parameter:   0.0500
# Using 1000 points in the energy range
# Selected bands: 1 to: 2981
# Emin, Emax in file for selected band(s):    -27.0995584    218.3410030
# Nbands, Nspin, Nk   =   2981     1     1
# E_F                 =    -4.2659 eV --> (shifted to ZERO)
# Broadening          =     0.0500 eV
#
#        E            N(up)  (=)   N(down)         Ntot
     -5.000000     35.651171     35.651171     71.302343
     -4.989990     38.746682     38.746682     77.493363
     -4.979980     41.398692     41.398692     82.797384
     -4.969970     43.107626     43.107626     86.215252
     -4.959960     43.529550     43.529550     87.059101
     -4.949950     42.565385     42.565385     85.130770
     -4.939940     40.387323     40.387323     80.774646
     -4.929930     37.409190     37.409190     74.818381
     -4.919920     34.225148     34.225148     68.450295
     -4.909910     31.536877     31.536877     63.073755
     -4.899900     30.067281     30.067281     60.134561
     -4.889890     30.439355     30.439355     60.878709
     -4.879880     33.007615     33.007615     66.015229
     -4.869870     37.673709     37.673709     75.347418
     -4.859860     43.771861     43.771861     87.543722
     -4.849850     50.125102     50.125102    100.250205
     -4.839840     55.316470     55.316470    110.632940
     -4.829830     58.107621     58.107621    116.215243
     -4.819820     57.837932     57.837932    115.675864
     -4.809810     54.622918     54.622918    109.245836
     -4.799800     49.262841     49.262841     98.525683
     -4.789790     42.917684     42.917684     85.835368
     -4.779780     36.712098     36.712098     73.424197
     -4.769770     31.440982     31.440982     62.881964
     -4.759760     27.462838     27.462838     54.925675
     -4.749750     24.760704     24.760704     49.521409
     -4.739740     23.086062     23.086062     46.172123
     -4.729730     22.100851     22.100851     44.201702
     -4.719720     21.471878     21.471878     42.943755
     -4.709710     20.913710     20.913710     41.827420
     -4.699700     20.200923     20.200923     40.401846
     -4.689690     19.176944     19.176944     38.353888
     -4.679680     17.779139     17.779139     35.558278
     -4.669670     16.081818     16.081818     32.163637
     -4.659660     14.337703     14.337703     28.675407
     -4.649650     12.985976     12.985976     25.971952
     -4.639640     12.599796     12.599796     25.199593
     -4.629630     13.765864     13.765864     27.531729
     -4.619620     16.913891     16.913891     33.827783
     -4.609610     22.137419     22.137419     44.274838
     -4.599600     29.065609     29.065609     58.131217
     -4.589590     36.851045     36.851045     73.702090
     -4.579580     44.317902     44.317902     88.635804
     -4.569570     50.260563     50.260563    100.521126
     -4.559560     53.810179     53.810179    107.620359
     -4.549550     54.733648     54.733648    109.467296
     -4.539540     53.533949     53.533949    107.067898
     -4.529530     51.291305     51.291305    102.582610
     -4.519520     49.290977     49.290977     98.581955
     -4.509510     48.574206     48.574206     97.148413
     -4.499499     49.581405     49.581405     99.162810
     -4.489489     52.018586     52.018586    104.037172
     -4.479479     54.988137     54.988137    109.976274
     -4.469469     57.322298     57.322298    114.644597
     -4.459459     57.984028     57.984028    115.968055
     -4.449449     56.385010     56.385010    112.770021
     -4.439439     52.518944     52.518944    105.037888
     -4.429429     46.895312     46.895312     93.790625
     -4.419419     40.340323     40.340323     80.680646
     -4.409409     33.766993     33.766993     67.533987
     -4.399399     27.993921     27.993921     55.987842
     -4.389389     23.637321     23.637321     47.274642
     -4.379379     21.056363     21.056363     42.112727
     -4.369369     20.325543     20.325543     40.651086
     -4.359359     21.232487     21.232487     42.464975
     -4.349349     23.323082     23.323082     46.646164
     -4.339339     26.010677     26.010677     52.021354
     -4.329329     28.733068     28.733068     57.466137
     -4.319319     31.106017     31.106017     62.212035
     -4.309309     33.013330     33.013330     66.026659
     -4.299299     34.598041     34.598041     69.196082
     -4.289289     36.160036     36.160036     72.320072
     -4.279279     37.998324     37.998324     75.996648
     -4.269269     40.249942     40.249942     80.499884
     -4.259259     42.777239     42.777239     85.554478
     -4.249249     45.148451     45.148451     90.296902
     -4.239239     46.738706     46.738706     93.477412
     -4.229229     46.939254     46.939254     93.878509
     -4.219219     45.406443     45.406443     90.812887
     -4.209209     42.240129     42.240129     84.480258
     -4.199199     37.993499     37.993499     75.986998
     -4.189189     33.492443     33.492443     66.984886
     -4.179179     29.543531     29.543531     59.087063
     -4.169169     26.670593     26.670593     53.341186
     -4.159159     25.000501     25.000501     50.001001
     -4.149149     24.333824     24.333824     48.667648
     -4.139139     24.340874     24.340874     48.681748
     -4.129129     24.770762     24.770762     49.541525
     -4.119119     25.568415     25.568415     51.136829
     -4.109109     26.847112     26.847112     53.694225
     -4.099099     28.735086     28.735086     57.470171
     -4.089089     31.178325     31.178325     62.356650
     -4.079079     33.813428     33.813428     67.626855
     -4.069069     36.002052     36.002052     72.004104
     -4.059059     37.040139     37.040139     74.080279
     -4.049049     36.454364     36.454364     72.908727
     -4.039039     34.236073     34.236073     68.472146
     -4.029029     30.886273     30.886273     61.772546
     -4.019019     27.246587     27.246587     54.493174
     -4.009009     24.207512     24.207512     48.415025
     -3.998999     22.441880     22.441880     44.883759
     -3.988989     22.276546     22.276546     44.553091
     -3.978979     23.720882     23.720882     47.441764
     -3.968969     26.584609     26.584609     53.169217
     -3.958959     30.592918     30.592918     61.185836
     -3.948949     35.446647     35.446647     70.893294
     -3.938939     40.836986     40.836986     81.673972
     -3.928929     46.456914     46.456914     92.913828
     -3.918919     52.035071     52.035071    104.070141
     -3.908909     57.374836     57.374836    114.749671
     -3.898899     62.354746     62.354746    124.709493
     -3.888889     66.862647     66.862647    133.725294
     -3.878879     70.685372     70.685372    141.370744
     -3.868869     73.421993     73.421993    146.843986
     -3.858859     74.496142     74.496142    148.992284
     -3.848849     73.300669     73.300669    146.601337
     -3.838839     69.435896     69.435896    138.871792
     -3.828829     62.941017     62.941017    125.882033
     -3.818819     54.404454     54.404454    108.808908
     -3.808809     44.885793     44.885793     89.771586
     -3.798799     35.666140     35.666140     71.332280
     -3.788789     27.919455     27.919455     55.838910
     -3.778779     22.425055     22.425055     44.850110
     -3.768769     19.413027     19.413027     38.826054
     -3.758759     18.574002     18.574002     37.148004
     -3.748749     19.207616     19.207616     38.415232
     -3.738739     20.451729     20.451729     40.903458
     -3.728729     21.527777     21.527777     43.055554
     -3.718719     21.945382     21.945382     43.890765
     -3.708709     21.622052     21.622052     43.244104
     -3.698699     20.889306     20.889306     41.778612
     -3.688689     20.377870     20.377870     40.755739
     -3.678679     20.803691     20.803691     41.607382
     -3.668669     22.709907     22.709907     45.419814
     -3.658659     26.245901     26.245901     52.491801
     -3.648649     31.066596     31.066596     62.133192
     -3.638639     36.400820     36.400820     72.801640
     -3.628629     41.272181     41.272181     82.544362
     -3.618619     44.788230     44.788230     89.576460
     -3.608609     46.382954     46.382954     92.765908
     -3.598599     45.925769     45.925769     91.851539
     -3.588589     43.680516     43.680516     87.361032
     -3.578579     40.164580     40.164580     80.329159
     -3.568569     35.981878     35.981878     71.963755
     -3.558559     31.682227     31.682227     63.364454
     -3.548549     27.665161     27.665161     55.330323
     -3.538539     24.129730     24.129730     48.259460
     -3.528529     21.075095     21.075095     42.150190
     -3.518519     18.358010     18.358010     36.716020
     -3.508509     15.795949     15.795949     31.591899
     -3.498498     13.278173     13.278173     26.556346
     -3.488488     10.836238     10.836238     21.672476
     -3.478478      8.643965      8.643965     17.287929
     -3.468468      6.952609      6.952609     13.905217
     -3.458458      5.994719      5.994719     11.989439
     -3.448448      5.895127      5.895127     11.790253
     -3.438438      6.615578      6.615578     13.231157
     -3.428428      7.946174      7.946174     15.892349
     -3.418418      9.548928      9.548928     19.097856
     -3.408408     11.050382     11.050382     22.100764
     -3.398398     12.163358     12.163358     24.326716
     -3.388388     12.797290     12.797290     25.594580
     -3.378378     13.108996     13.108996     26.217991
     -3.368368     13.464594     13.464594     26.929188
     -3.358358     14.322573     14.322573     28.645147
     -3.348348     16.083488     16.083488     32.166977
     -3.338338     18.959861     18.959861     37.919722
     -3.328328     22.898590     22.898590     45.797181
     -3.318318     27.559361     27.559361     55.118722
     -3.308308     32.341681     32.341681     64.683361
     -3.298298     36.463976     36.463976     72.927952
     -3.288288     39.107204     39.107204     78.214408
     -3.278278     39.615860     39.615860     79.231721
     -3.268268     37.703072     37.703072     75.406144
     -3.258258     33.571108     33.571108     67.142215
     -3.248248     27.875255     27.875255     55.750511
     -3.238238     21.530511     21.530511     43.061021
     -3.228228     15.442263     15.442263     30.884525
     -3.218218     10.277745     10.277745     20.555490
     -3.208208      6.363096      6.363096     12.726192
     -3.198198      3.719332      3.719332      7.438664
     -3.188188      2.188557      2.188557      4.377113
     -3.178178      1.580223      1.580223      3.160446
     -3.168168      1.782801      1.782801      3.565601
     -3.158158      2.814887      2.814887      5.629774
     -3.148148      4.811484      4.811484      9.622968
     -3.138138      7.952477      7.952477     15.904955
     -3.128128     12.349852     12.349852     24.699703
     -3.118118     17.924802     17.924802     35.849605
     -3.108108     24.321448     24.321448     48.642896
     -3.098098     30.906245     30.906245     61.812491
     -3.088088     36.879268     36.879268     73.758536
     -3.078078     41.477015     41.477015     82.954030
     -3.068068     44.196162     44.196162     88.392324
     -3.058058     44.942398     44.942398     89.884795
     -3.048048     44.029349     44.029349     88.058699
     -3.038038     42.018092     42.018092     84.036184
     -3.028028     39.468747     39.468747     78.937495
     -3.018018     36.727084     36.727084     73.454168
     -3.008008     33.855092     33.855092     67.710184
     -2.997998     30.736261     30.736261     61.472522
     -2.987988     27.287760     27.287760     54.575520
     -2.977978     23.653993     23.653993     47.307986
     -2.967968     20.273524     20.273524     40.547049
     -2.957958     17.787042     17.787042     35.574083
     -2.947948     16.835188     16.835188     33.670377
     -2.937938     17.836064     17.836064     35.672127
     -2.927928     20.824283     20.824283     41.648566
     -2.917918     25.399270     25.399270     50.798540
     -2.907908     30.795074     30.795074     61.590147
     -2.897898     36.055315     36.055315     72.110630
     -2.887888     40.270174     40.270174     80.540349
     -2.877878     42.807831     42.807831     85.615662
     -2.867868     43.463182     43.463182     86.926364
     -2.857858     42.467170     42.467170     84.934340
     -2.847848     40.351227     40.351227     80.702454
     -2.837838     37.722744     37.722744     75.445488
     -2.827828     35.047469     35.047469     70.094938
     -2.817818     32.529996     32.529996     65.059991
     -2.807808     30.134031     30.134031     60.268063
     -2.797798     27.714519     27.714519     55.429038
     -2.787788     25.180234     25.180234     50.360469
     -2.777778     22.596377     22.596377     45.192755
     -2.767768     20.176280     20.176280     40.352560
     -2.757758     18.177446     18.177446     36.354891
     -2.747748     16.772270     16.772270     33.544541
     -2.737738     15.975963     15.975963     31.951926
     -2.727728     15.675562     15.675562     31.351124
     -2.717718     15.737304     15.737304     31.474608
     -2.707708     16.116641     16.116641     32.233283
     -2.697698     16.891392     16.891392     33.782784
     -2.687688     18.189154     18.189154     36.378307
     -2.677678     20.053867     20.053867     40.107734
     -2.667668     22.343814     22.343814     44.687628
     -2.657658     24.739332     24.739332     49.478663
     -2.647648     26.868599     26.868599     53.737198
     -2.637638     28.479563     28.479563     56.959125
     -2.627628     29.551565     29.551565     59.103129
     -2.617618     30.277891     30.277891     60.555783
     -2.607608     30.934854     30.934854     61.869707
     -2.597598     31.723402     31.723402     63.446804
     -2.587588     32.675651     32.675651     65.351302
     -2.577578     33.661513     33.661513     67.323025
     -2.567568     34.459939     34.459939     68.919878
     -2.557558     34.831486     34.831486     69.662971
     -2.547548     34.558805     34.558805     69.117610
     -2.537538     33.472189     33.472189     66.944379
     -2.527528     31.496559     31.496559     62.993119
     -2.517518     28.726275     28.726275     57.452551
     -2.507508     25.485409     25.485409     50.970817
     -2.497497     22.312174     22.312174     44.624349
     -2.487487     19.838824     19.838824     39.677647
     -2.477477     18.600552     18.600552     37.201104
     -2.467467     18.855131     18.855131     37.710262
     -2.457457     20.498048     20.498048     40.996097
     -2.447447     23.115774     23.115774     46.231548
     -2.437437     26.156049     26.156049     52.312098
     -2.427427     29.139776     29.139776     58.279553
     -2.417417     31.818752     31.818752     63.637505
     -2.407407     34.207084     34.207084     68.414167
     -2.397397     36.472893     36.472893     72.945786
     -2.387387     38.744685     38.744685     77.489370
     -2.377377     40.931336     40.931336     81.862673
     -2.367367     42.653234     42.653234     85.306467
     -2.357357     43.332797     43.332797     86.665593
     -2.347347     42.416230     42.416230     84.832460
     -2.337337     39.630818     39.630818     79.261636
     -2.327327     35.158895     35.158895     70.317790
     -2.317317     29.646152     29.646152     59.292304
     -2.307307     24.040337     24.040337     48.080674
     -2.297297     19.332743     19.332743     38.665486
     -2.287287     16.307580     16.307580     32.615160
     -2.277277     15.382202     15.382202     30.764405
     -2.267267     16.567872     16.567872     33.135745
     -2.257257     19.531798     19.531798     39.063596
     -2.247247     23.717291     23.717291     47.434582
     -2.237237     28.477788     28.477788     56.955577
     -2.227227     33.189997     33.189997     66.379994
     -2.217217     37.324624     37.324624     74.649247
     -2.207207     40.470641     40.470641     80.941283
     -2.197197     42.329868     42.329868     84.659736
     -2.187187     42.712925     42.712925     85.425849
     -2.177177     41.561951     41.561951     83.123902
     -2.167167     38.996829     38.996829     77.993658
     -2.157157     35.347088     35.347088     70.694175
     -2.147147     31.119925     31.119925     62.239851
     -2.137137     26.883456     26.883456     53.766911
     -2.127127     23.100121     23.100121     46.200242
     -2.117117     19.988853     19.988853     39.977705
     -2.107107     17.489960     17.489960     34.979920
     -2.097097     15.351871     15.351871     30.703743
     -2.087087     13.289800     13.289800     26.579601
     -2.077077     11.129994     11.129994     22.259988
     -2.067067      8.871336      8.871336     17.742672
     -2.057057      6.651214      6.651214     13.302428
     -2.047047      4.654968      4.654968      9.309936
     -2.037037      3.027035      3.027035      6.054070
     -2.027027      1.824293      1.824293      3.648587
     -2.017017      1.018704      1.018704      2.037407
     -2.007007      0.530954      0.530954      1.061907
     -1.996997      0.270520      0.270520      0.541041
     -1.986987      0.166040      0.166040      0.332079
     -1.976977      0.182152      0.182152      0.364305
     -1.966967      0.326449      0.326449      0.652897
     -1.956957      0.650475      0.650475      1.300951
     -1.946947      1.244524      1.244524      2.489048
     -1.936937      2.221764      2.221764      4.443527
     -1.926927      3.687455      3.687455      7.374909
     -1.916917      5.695332      5.695332     11.390664
     -1.906907      8.203393      8.203393     16.406786
     -1.896897     11.048615     11.048615     22.097230
     -1.886887     13.957752     13.957752     27.915503
     -1.876877     16.598079     16.598079     33.196157
     -1.866867     18.654718     18.654718     37.309436
     -1.856857     19.910112     19.910112     39.820225
     -1.846847     20.301192     20.301192     40.602385
     -1.836837     19.937243     19.937243     39.874486
     -1.826827     19.070811     19.070811     38.141623
     -1.816817     18.024870     18.024870     36.049740
     -1.806807     17.094939     17.094939     34.189878
     -1.796797     16.461536     16.461536     32.923072
     -1.786787     16.152383     16.152383     32.304765
     -1.776777     16.072985     16.072985     32.145970
     -1.766767     16.084909     16.084909     32.169818
     -1.756757     16.080412     16.080412     32.160824
     -1.746747     16.006820     16.006820     32.013639
     -1.736737     15.834671     15.834671     31.669343
     -1.726727     15.509458     15.509458     31.018915
     -1.716717     14.940259     14.940259     29.880518
     -1.706707     14.047850     14.047850     28.095699
     -1.696697     12.844223     12.844223     25.688445
     -1.686687     11.484914     11.484914     22.969827
     -1.676677     10.247525     10.247525     20.495051
     -1.666667      9.434261      9.434261     18.868521
     -1.656657      9.241968      9.241968     18.483936
     -1.646647      9.663214      9.663214     19.326428
     -1.636637     10.468536     10.468536     20.937072
     -1.626627     11.283495     11.283495     22.566990
