# EIG2DOS: Utility for SIESTA to obtain the electronic density of states
#  E. Artacho, Apr 1999, A. Garcia, Apr 2012
#  Nick R. Papior, Feb 2017
# ------------------------------------------
# Eigenvalues calculated from a non-polarized calculation
# Eigenvalues read from siesta.EIG
# Kpoint weights read from siesta.KP
# Using smearing parameter:   0.0500
# Using 1000 points in the energy range
# Selected bands: 1 to: 2981
# Emin, Emax in file for selected band(s):    -27.0339702    218.3126060
# Nbands, Nspin, Nk   =   2981     1     1
# E_F                 =    -4.2960 eV --> (shifted to ZERO)
# Broadening          =     0.0500 eV
#
#        E            N(up)  (=)   N(down)         Ntot
     -5.000000     46.587832     46.587832     93.175663
     -4.989990     49.463697     49.463697     98.927393
     -4.979980     50.737107     50.737107    101.474214
     -4.969970     50.377044     50.377044    100.754088
     -4.959960     48.564971     48.564971     97.129941
     -4.949950     45.632546     45.632546     91.265092
     -4.939940     41.996442     41.996442     83.992885
     -4.929930     38.120292     38.120292     76.240583
     -4.919920     34.509836     34.509836     69.019672
     -4.909910     31.719876     31.719876     63.439752
     -4.899900     30.332834     30.332834     60.665668
     -4.889890     30.869248     30.869248     61.738495
     -4.879880     33.619845     33.619845     67.239690
     -4.869870     38.445078     38.445078     76.890156
     -4.859860     44.644175     44.644175     89.288350
     -4.849850     51.006254     51.006254    102.012508
     -4.839840     56.090090     56.090090    112.180180
     -4.829830     58.657573     58.657573    117.315147
     -4.819820     58.081251     58.081251    116.162503
     -4.809810     54.535655     54.535655    109.071311
     -4.799800     48.884817     48.884817     97.769635
     -4.789790     42.333843     42.333843     84.667685
     -4.779780     36.021386     36.021386     72.042773
     -4.769770     30.728955     30.728955     61.457910
     -4.759760     26.788690     26.788690     53.577381
     -4.749750     24.158772     24.158772     48.317545
     -4.739740     22.574320     22.574320     45.148639
     -4.729730     21.688607     21.688607     43.377215
     -4.719720     21.163403     21.163403     42.326807
     -4.709710     20.708799     20.708799     41.417599
     -4.699700     20.094301     20.094301     40.188602
     -4.689690     19.156918     19.156918     38.313835
     -4.679680     17.824864     17.824864     35.649728
     -4.669670     16.159658     16.159658     32.319317
     -4.659660     14.399548     14.399548     28.799096
     -4.649650     12.973747     12.973747     25.947494
     -4.639640     12.459026     12.459026     24.918051
     -4.629630     13.467057     13.467057     26.934114
     -4.619620     16.474716     16.474716     32.949432
     -4.609610     21.634139     21.634139     43.268278
     -4.599600     28.622019     28.622019     57.244037
     -4.589590     36.600141     36.600141     73.200282
     -4.579580     44.344299     44.344299     88.688597
     -4.569570     50.543620     50.543620    101.087240
     -4.559560     54.190369     54.190369    108.380738
     -4.549550     54.914698     54.914698    109.829396
     -4.539540     53.117384     53.117384    106.234769
     -4.529530     49.830300     49.830300     99.660601
     -4.519520     46.353822     46.353822     92.707645
     -4.509510     43.818448     43.818448     87.636896
     -4.499499     42.843682     42.843682     85.687364
     -4.489489     43.412846     43.412846     86.825692
     -4.479479     44.982298     44.982298     89.964596
     -4.469469     46.749434     46.749434     93.498868
     -4.459459     47.955613     47.955613     95.911227
     -4.449449     48.109807     48.109807     96.219615
     -4.439439     47.071672     47.071672     94.143344
     -4.429429     45.000290     45.000290     90.000580
     -4.419419     42.227335     42.227335     84.454670
     -4.409409     39.130230     39.130230     78.260460
     -4.399399     36.057574     36.057574     72.115149
     -4.389389     33.311679     33.311679     66.623358
     -4.379379     31.152429     31.152429     62.304858
     -4.369369     29.780481     29.780481     59.560961
     -4.359359     29.288998     29.288998     58.577996
     -4.349349     29.615233     29.615233     59.230467
     -4.339339     30.539924     30.539924     61.079848
     -4.329329     31.757862     31.757862     63.515725
     -4.319319     32.995395     32.995395     65.990790
     -4.309309     34.116921     34.116921     68.233842
     -4.299299     35.166559     35.166559     70.333118
     -4.289289     36.326007     36.326007     72.652014
     -4.279279     37.808003     37.808003     75.616006
     -4.269269     39.725981     39.725981     79.451963
     -4.259259     41.984799     41.984799     83.969598
     -4.249249     44.235381     44.235381     88.470762
     -4.239239     45.928240     45.928240     91.856479
     -4.229229     46.473993     46.473993     92.947986
     -4.219219     45.467830     45.467830     90.935660
     -4.209209     42.882817     42.882817     85.765634
     -4.199199     39.127220     39.127220     78.254440
     -4.189189     34.918236     34.918236     69.836473
     -4.179179     31.023070     31.023070     62.046140
     -4.169169     27.994413     27.994413     55.988826
     -4.159159     26.028700     26.028700     52.057400
     -4.149149     25.002588     25.002588     50.005175
     -4.139139     24.645861     24.645861     49.291723
     -4.129129     24.744944     24.744944     49.489887
     -4.119119     25.267310     25.267310     50.534620
     -4.109109     26.344489     26.344489     52.688978
     -4.099099     28.123631     28.123631     56.247262
     -4.089089     30.566701     30.566701     61.133402
     -4.079079     33.314096     33.314096     66.628192
     -4.069069     35.711038     35.711038     71.422076
     -4.059059     37.016094     37.016094     74.032188
     -4.049049     36.705870     36.705870     73.411739
     -4.039039     34.721962     34.721962     69.443924
     -4.029029     31.526875     31.526875     63.053750
     -4.019019     27.939453     27.939453     55.878906
     -4.009009     24.842173     24.842173     49.684346
     -3.998999     22.912792     22.912792     45.825583
     -3.988989     22.496581     22.496581     44.993162
     -3.978979     23.636216     23.636216     47.272432
     -3.968969     26.187092     26.187092     52.374183
     -3.958959     29.922834     29.922834     59.845668
     -3.948949     34.580961     34.580961     69.161921
     -3.938939     39.865170     39.865170     79.730339
     -3.928929     45.453852     45.453852     90.907703
     -3.918919     51.043562     51.043562    102.087124
     -3.908909     56.406684     56.406684    112.813368
     -3.898899     61.410662     61.410662    122.821324
     -3.888889     65.961180     65.961180    131.922359
     -3.878879     69.884873     69.884873    139.769746
     -3.868869     72.821191     72.821191    145.642382
     -3.858859     74.208806     74.208806    148.417612
     -3.848849     73.413626     73.413626    146.827253
     -3.838839     69.969656     69.969656    139.939312
     -3.828829     63.832109     63.832109    127.664219
     -3.818819     55.518090     55.518090    111.036180
     -3.808809     46.052784     46.052784     92.105568
     -3.798799     36.727780     36.727780     73.455559
     -3.788789     28.763176     28.763176     57.526353
     -3.778779     23.000897     23.000897     46.001793
     -3.768769     19.730612     19.730612     39.461225
     -3.758759     18.686415     18.686415     37.372831
     -3.748749     19.190145     19.190145     38.380290
     -3.738739     20.381367     20.381367     40.762735
     -3.728729     21.466486     21.466486     42.932971
     -3.718719     21.928417     21.928417     43.856835
     -3.708709     21.652396     21.652396     43.304792
     -3.698699     20.939383     20.939383     41.878766
     -3.688689     20.399099     20.399099     40.798197
     -3.678679     20.742582     20.742582     41.485165
     -3.668669     22.526888     22.526888     45.053777
     -3.658659     25.931104     25.931104     51.862208
     -3.648649     30.646884     30.646884     61.293768
     -3.638639     35.935008     35.935008     71.870015
     -3.628629     40.836025     40.836025     81.672050
     -3.618619     44.455022     44.455022     88.910043
     -3.608609     46.206966     46.206966     92.413931
     -3.598599     45.933443     45.933443     91.866885
     -3.588589     43.869866     43.869866     87.739731
     -3.578579     40.509916     40.509916     81.019831
     -3.568569     36.440541     36.440541     72.881082
     -3.558559     32.201809     32.201809     64.403617
     -3.548549     28.191282     28.191282     56.382564
     -3.538539     24.614300     24.614300     49.228600
     -3.528529     21.483655     21.483655     42.967310
     -3.518519     18.673956     18.673956     37.347913
     -3.508509     16.020285     16.020285     32.040570
     -3.498498     13.425278     13.425278     26.850557
     -3.488488     10.927681     10.927681     21.855363
     -3.478478      8.702603      8.702603     17.405207
     -3.468468      6.998300      6.998300     13.996600
     -3.458458      6.041746      6.041746     12.083492
     -3.448448      5.950758      5.950758     11.901515
     -3.438438      6.679330      6.679330     13.358660
     -3.428428      8.009891      8.009891     16.019782
     -3.418418      9.598201      9.598201     19.196403
     -3.408408     11.067575     11.067575     22.135150
     -3.398398     12.131785     12.131785     24.263569
     -3.388388     12.705409     12.705409     25.410819
     -3.378378     12.953376     12.953376     25.906753
     -3.368368     13.250841     13.250841     26.501683
     -3.358358     14.064069     14.064069     28.128137
     -3.348348     15.798337     15.798337     31.596674
     -3.338338     18.667018     18.667018     37.334036
     -3.328328     22.614756     22.614756     45.229512
     -3.318318     27.298397     27.298397     54.596794
     -3.308308     32.117111     32.117111     64.234222
     -3.298298     36.292703     36.292703     72.585406
     -3.288288     39.010637     39.010637     78.021273
     -3.278278     39.615422     39.615422     79.230843
     -3.268268     37.810894     37.810894     75.621789
     -3.258258     33.780965     33.780965     67.561929
     -3.248248     28.159781     28.159781     56.319562
     -3.238238     21.847199     21.847199     43.694399
     -3.228228     15.745050     15.745050     31.490101
     -3.218218     10.527128     10.527128     21.054257
     -3.208208      6.527942      6.527942     13.055884
     -3.198198      3.766728      3.766728      7.533455
     -3.188188      2.061786      2.061786      4.123572
     -3.178178      1.168159      1.168159      2.336319
     -3.168168      0.887765      0.887765      1.775530
     -3.158158      1.131682      1.131682      2.263364
     -3.148148      1.936300      1.936300      3.872600
     -3.138138      3.440831      3.440831      6.881662
     -3.128128      5.830551      5.830551     11.661103
     -3.118118      9.250555      9.250555     18.501110
     -3.108108     13.705924     13.705924     27.411847
     -3.098098     18.981808     18.981808     37.963616
     -3.088088     24.626505     24.626505     49.253011
     -3.078078     30.026586     30.026586     60.053172
     -3.068068     34.562355     34.562355     69.124709
     -3.058058     37.782822     37.782822     75.565643
     -3.048048     39.515611     39.515611     79.031223
     -3.038038     39.854630     39.854630     79.709260
     -3.028028     39.039339     39.039339     78.078678
     -3.018018     37.309477     37.309477     74.618955
     -3.008008     34.835239     34.835239     69.670477
     -2.997998     31.767630     31.767630     63.535261
     -2.987988     28.364076     28.364076     56.728153
     -2.977978     25.085822     25.085822     50.171643
     -2.967968     22.578196     22.578196     45.156391
     -2.957958     21.518533     21.518533     43.037066
     -2.947948     22.395682     22.395682     44.791363
     -2.937938     25.320465     25.320465     50.640931
     -2.927928     29.946666     29.946666     59.893331
     -2.917918     35.530220     35.530220     71.060440
     -2.907908     41.102640     41.102640     82.205280
     -2.897898     45.702634     45.702634     91.405267
     -2.887888     48.600244     48.600244     97.200489
     -2.877878     49.454702     49.454702     98.909404
     -2.867868     48.365200     48.365200     96.730400
     -2.857858     45.800854     45.800854     91.601708
     -2.847848     42.430094     42.430094     84.860187
     -2.837838     38.903828     38.903828     77.807655
     -2.827828     35.667531     35.667531     71.335063
     -2.817818     32.870982     32.870982     65.741963
     -2.807808     30.406414     30.406414     60.812827
     -2.797798     28.049467     28.049467     56.098933
     -2.787788     25.629480     25.629480     51.258960
     -2.777778     23.143260     23.143260     46.286521
     -2.767768     20.758964     20.758964     41.517929
     -2.757758     18.718532     18.718532     37.437063
     -2.747748     17.204083     17.204083     34.408167
     -2.737738     16.252251     16.252251     32.504502
     -2.727728     15.768042     15.768042     31.536083
     -2.717718     15.624810     15.624810     31.249620
     -2.707708     15.779415     15.779415     31.558829
     -2.697698     16.319565     16.319565     32.639130
     -2.687688     17.403971     17.403971     34.807942
     -2.677678     19.128793     19.128793     38.257587
     -2.667668     21.408203     21.408203     42.816407
     -2.657658     23.954344     23.954344     47.908689
     -2.647648     26.380784     26.380784     52.761568
     -2.637638     28.372343     28.372343     56.744686
     -2.627628     29.818291     29.818291     59.636581
     -2.617618     30.828906     30.828906     61.657811
     -2.607608     31.632561     31.632561     63.265123
     -2.597598     32.426402     32.426402     64.852805
     -2.587588     33.273429     33.273429     66.546858
     -2.577578     34.091883     34.091883     68.183766
     -2.567568     34.712098     34.712098     69.424196
     -2.557558     34.940455     34.940455     69.880910
     -2.547548     34.593393     34.593393     69.186785
     -2.537538     33.515478     33.515478     67.030956
     -2.527528     31.620329     31.620329     63.240658
     -2.517518     28.966575     28.966575     57.933150
     -2.507508     25.829412     25.829412     51.658824
     -2.497497     22.702545     22.702545     45.405090
     -2.487487     20.193344     20.193344     40.386688
     -2.477477     18.837703     18.837703     37.675406
     -2.467467     18.914990     18.914990     37.829980
     -2.457457     20.352027     20.352027     40.704054
     -2.447447     22.764811     22.764811     45.529622
     -2.437437     25.621558     25.621558     51.243116
     -2.427427     28.453623     28.453623     56.907246
     -2.417417     31.017937     31.017937     62.035874
     -2.407407     33.336001     33.336001     66.672003
     -2.397397     35.591516     35.591516     71.183031
     -2.387387     37.936260     37.936260     75.872519
     -2.377377     40.300917     40.300917     80.601833
     -2.367367     42.311072     42.311072     84.622145
     -2.357357     43.364297     43.364297     86.728595
     -2.347347     42.849205     42.849205     85.698409
     -2.337337     40.415419     40.415419     80.830838
     -2.327327     36.171780     36.171780     72.343561
     -2.317317     30.719407     30.719407     61.438813
     -2.307307     25.003800     25.003800     50.007600
     -2.297297     20.052873     20.052873     40.105745
     -2.287287     16.709574     16.709574     33.419149
     -2.277277     15.451491     15.451491     30.902982
     -2.267267     16.336182     16.336182     32.672365
     -2.257257     19.057552     19.057552     38.115104
     -2.247247     23.069492     23.069492     46.138984
     -2.237237     27.728553     27.728553     55.457106
     -2.227227     32.415449     32.415449     64.830897
     -2.217217     36.608768     36.608768     73.217536
     -2.207207     39.904444     39.904444     79.808888
     -2.197197     41.999912     41.999912     83.999825
     -2.187187     42.680549     42.680549     85.361098
     -2.177177     41.841167     41.841167     83.682334
     -2.167167     39.542848     39.542848     79.085695
     -2.157157     36.064018     36.064018     72.128036
     -2.147147     31.887454     31.887454     63.774908
     -2.137137     27.592741     27.592741     55.185483
     -2.127127     23.684074     23.684074     47.368148
     -2.117117     20.434388     20.434388     40.868776
     -2.107107     17.828529     17.828529     35.657058
     -2.097097     15.634898     15.634898     31.269796
     -2.087087     13.561927     13.561927     27.123855
     -2.077077     11.412166     11.412166     22.824332
     -2.067067      9.158841      9.158841     18.317683
     -2.057057      6.923580      6.923580     13.847161
     -2.047047      4.889798      4.889798      9.779597
     -2.037037      3.210329      3.210329      6.420659
     -2.027027      1.953917      1.953917      3.907834
     -2.017017      1.102043      1.102043      2.204086
     -2.007007      0.580062      0.580062      1.160123
     -1.996997      0.297810      0.297810      0.595620
     -1.986987      0.182017      0.182017      0.364035
     -1.976977      0.195140      0.195140      0.390280
     -1.966967      0.343400      0.343400      0.686800
     -1.956957      0.677782      0.677782      1.355564
     -1.946947      1.287877      1.287877      2.575754
     -1.936937      2.284531      2.284531      4.569061
     -1.926927      3.767763      3.767763      7.535526
     -1.916917      5.783110      5.783110     11.566220
     -1.906907      8.279524      8.279524     16.559048
     -1.896897     11.088348     11.088348     22.176697
     -1.886887     13.938900     13.938900     27.877799
     -1.876877     16.511687     16.511687     33.023374
     -1.866867     18.513358     18.513358     37.026716
     -1.856857     19.748600     19.748600     39.497199
     -1.846847     20.167117     20.167117     40.334235
     -1.836837     19.872867     19.872867     39.745734
     -1.826827     19.091049     19.091049     38.182098
     -1.816817     18.096336     18.096336     36.192671
     -1.806807     17.118790     17.118790     34.237579
     -1.796797     16.260713     16.260713     32.521425
     -1.786787     15.464669     15.464669     30.929338
     -1.776777     14.555901     14.555901     29.111802
     -1.766767     13.344048     13.344048     26.688096
     -1.756757     11.733598     11.733598     23.467195
     -1.746747      9.786783      9.786783     19.573567
     -1.736737      7.712588      7.712588     15.425175
     -1.726727      5.799595      5.799595     11.599189
     -1.716717      4.337371      4.337371      8.674742
     -1.706707      3.564751      3.564751      7.129502
     -1.696697      3.653215      3.653215      7.306429
     -1.686687      4.704169      4.704169      9.408338
     -1.676677      6.731301      6.731301     13.462601
     -1.666667      9.617548      9.617548     19.235096
     -1.656657     13.067474     13.067474     26.134948
     -1.646647     16.597845     16.597845     33.195691
     -1.636637     19.603912     19.603912     39.207823
     -1.626627     21.503953     21.503953     43.007906
