# EIG2DOS: Utility for SIESTA to obtain the electronic density of states
#  E. Artacho, Apr 1999, A. Garcia, Apr 2012
#  Nick R. Papior, Feb 2017
# ------------------------------------------
# Eigenvalues calculated from a non-polarized calculation
# Eigenvalues read from siesta.EIG
# Kpoint weights read from siesta.KP
# Using smearing parameter:   0.0500
# Using 1000 points in the energy range
# Selected bands: 1 to: 2981
# Emin, Emax in file for selected band(s):    -27.0228392    218.3081070
# Nbands, Nspin, Nk   =   2981     1     1
# E_F                 =    -4.3061 eV --> (shifted to ZERO)
# Broadening          =     0.0500 eV
#
#        E            N(up)  (=)   N(down)         Ntot
     -5.000000     40.457053     40.457053     80.914106
     -4.989990     45.436151     45.436151     90.872303
     -4.979980     49.567021     49.567021     99.134042
     -4.969970     52.267533     52.267533    104.535066
     -4.959960     53.104031     53.104031    106.208061
     -4.949950     51.931726     51.931726    103.863452
     -4.939940     48.966999     48.966999     97.933997
     -4.929930     44.766517     44.766517     89.533035
     -4.919920     40.130284     40.130284     80.260568
     -4.909910     35.969717     35.969717     71.939435
     -4.899900     33.171844     33.171844     66.343687
     -4.889890     32.459815     32.459815     64.919630
     -4.879880     34.234227     34.234227     68.468454
     -4.869870     38.406322     38.406322     76.812643
     -4.859860     44.290096     44.290096     88.580191
     -4.849850     50.653121     50.653121    101.306241
     -4.839840     55.985284     55.985284    111.970568
     -4.829830     58.933110     58.933110    117.866220
     -4.819820     58.732357     58.732357    117.464714
     -4.809810     55.440542     55.440542    110.881083
     -4.799800     49.860185     49.860185     99.720370
     -4.789790     43.202071     43.202071     86.404141
     -4.779780     36.662429     36.662429     73.324858
     -4.769770     31.102145     31.102145     62.204290
     -4.759760     26.926041     26.926041     53.852082
     -4.749750     24.141091     24.141091     48.282182
     -4.739740     22.501831     22.501831     45.003663
     -4.729730     21.653587     21.653587     43.307174
     -4.719720     21.229175     21.229175     42.458350
     -4.709710     20.898469     20.898469     41.796937
     -4.699700     20.391149     20.391149     40.782298
     -4.689690     19.514697     19.514697     39.029394
     -4.679680     18.181977     18.181977     36.363953
     -4.669670     16.449880     16.449880     32.899760
     -4.659660     14.555289     14.555289     29.110577
     -4.649650     12.924042     12.924042     25.848083
     -4.639640     12.129752     12.129752     24.259504
     -4.629630     12.791887     12.791887     25.583774
     -4.619620     15.420511     15.420511     30.841021
     -4.609610     20.234927     20.234927     40.469853
     -4.599600     27.005395     27.005395     54.010791
     -4.589590     34.985559     34.985559     69.971118
     -4.579580     43.000251     43.000251     86.000502
     -4.569570     49.710074     49.710074     99.420149
     -4.559560     53.994689     53.994689    107.989377
     -4.549550     55.319450     55.319450    110.638899
     -4.539540     53.927662     53.927662    107.855325
     -4.529530     50.760515     50.760515    101.521029
     -4.519520     47.124993     47.124993     94.249986
     -4.509510     44.243462     44.243462     88.486925
     -4.499499     42.865840     42.865840     85.731680
     -4.489489     43.085462     43.085462     86.170925
     -4.479479     44.401173     44.401173     88.802347
     -4.469469     45.966047     45.966047     91.932094
     -4.459459     46.904859     46.904859     93.809717
     -4.449449     46.584298     46.584298     93.168596
     -4.439439     44.765743     44.765743     89.531485
     -4.429429     41.627863     41.627863     83.255725
     -4.419419     37.687233     37.687233     75.374466
     -4.409409     33.658374     33.658374     67.316749
     -4.399399     30.287521     30.287521     60.575042
     -4.389389     28.184260     28.184260     56.368520
     -4.379379     27.675749     27.675749     55.351499
     -4.369369     28.718226     28.718226     57.436452
     -4.359359     30.903559     30.903559     61.807117
     -4.349349     33.577688     33.577688     67.155376
     -4.339339     36.043787     36.043787     72.087575
     -4.329329     37.779583     37.779583     75.559166
     -4.319319     38.585743     38.585743     77.171486
     -4.309309     38.612633     38.612633     77.225267
     -4.299299     38.268338     38.268338     76.536676
     -4.289289     38.057076     38.057076     76.114152
     -4.279279     38.409435     38.409435     76.818870
     -4.269269     39.547562     39.547562     79.095123
     -4.259259     41.404759     41.404759     82.809518
     -4.249249     43.611327     43.611327     87.222654
     -4.239239     45.563380     45.563380     91.126761
     -4.229229     46.583881     46.583881     93.167762
     -4.219219     46.147404     46.147404     92.294807
     -4.209209     44.088202     44.088202     88.176403
     -4.199199     40.689218     40.689218     81.378437
     -4.189189     36.591839     36.591839     73.183679
     -4.179179     32.558282     32.558282     65.116565
     -4.169169     29.201641     29.201641     58.403282
     -4.159159     26.814630     26.814630     53.629260
     -4.149149     25.367218     25.367218     50.734436
     -4.139139     24.648817     24.648817     49.297635
     -4.129129     24.461000     24.461000     48.922000
     -4.119119     24.753442     24.753442     49.506883
     -4.109109     25.633895     25.633895     51.267791
     -4.099099     27.248137     27.248137     54.496275
     -4.089089     29.592633     29.592633     59.185266
     -4.079079     32.366206     32.366206     64.732413
     -4.069069     34.962414     34.962414     69.924827
     -4.059059     36.640375     36.640375     73.280751
     -4.049049     36.811967     36.811967     73.623933
     -4.039039     35.305073     35.305073     70.610146
     -4.029029     32.462558     32.462558     64.925116
     -4.019019     29.023658     29.023658     58.047315
     -4.009009     25.855512     25.855512     51.711024
     -3.998999     23.677943     23.677943     47.355885
     -3.988989     22.907565     22.907565     45.815130
     -3.978979     23.657802     23.657802     47.315605
     -3.968969     25.837279     25.837279     51.674559
     -3.958959     29.253303     29.253303     58.506605
     -3.948949     33.662401     33.662401     67.324803
     -3.938939     38.775745     38.775745     77.551490
     -3.928929     44.267106     44.267106     88.534213
     -3.918919     49.817081     49.817081     99.634161
     -3.908909     55.178524     55.178524    110.357047
     -3.898899     60.210222     60.210222    120.420444
     -3.888889     64.832960     64.832960    129.665920
     -3.878879     68.912535     68.912535    137.825070
     -3.868869     72.133905     72.133905    144.267810
     -3.858859     73.957794     73.957794    147.915588
     -3.848849     73.722431     73.722431    147.444862
     -3.838839     70.878224     70.878224    141.756448
     -3.828829     65.261647     65.261647    130.523295
     -3.818819     57.275712     57.275712    114.551423
     -3.808809     47.876499     47.876499     95.752999
     -3.798799     38.354228     38.354228     76.708456
     -3.788789     29.992569     29.992569     59.985138
     -3.778779     23.738356     23.738356     47.476712
     -3.768769     19.995230     19.995230     39.990460
     -3.758759     18.591093     18.591093     37.182185
     -3.748749     18.901970     18.901970     37.803940
     -3.738739     20.074022     20.074022     40.148044
     -3.728729     21.275446     21.275446     42.550893
     -3.718719     21.918332     21.918332     43.836664
     -3.708709     21.803956     21.803956     43.607912
     -3.698699     21.159487     21.159487     42.318974
     -3.688689     20.552749     20.552749     41.105497
     -3.678679     20.698561     20.698561     41.397122
     -3.668669     22.203705     22.203705     44.407411
     -3.658659     25.327719     25.327719     50.655439
     -3.648649     29.846570     29.846570     59.693139
     -3.638639     35.080518     35.080518     70.161036
     -3.628629     40.086217     40.086217     80.172434
     -3.618619     43.940830     43.940830     87.881659
     -3.608609     46.003188     46.003188     92.006376
     -3.598599     46.052924     46.052924     92.105849
     -3.588589     44.275113     44.275113     88.550227
     -3.578579     41.131597     41.131597     82.263194
     -3.568569     37.194910     37.194910     74.389819
     -3.558559     33.005243     33.005243     66.010485
     -3.548549     28.973290     28.973290     57.946580
     -3.538539     25.328383     25.328383     50.656766
     -3.528529     22.112042     22.112042     44.224084
     -3.518519     19.222487     19.222487     38.444974
     -3.508509     16.504535     16.504535     33.009070
     -3.498498     13.854516     13.854516     27.709033
     -3.488488     11.294681     11.294681     22.589362
     -3.478478      8.983719      8.983719     17.967439
     -3.468468      7.162711      7.162711     14.325421
     -3.458458      6.065178      6.065178     12.130356
     -3.448448      5.828552      5.828552     11.657105
     -3.438438      6.434763      6.434763     12.869526
     -3.428428      7.694576      7.694576     15.389151
     -3.418418      9.282417      9.282417     18.564833
     -3.408408     10.821009     10.821009     21.642018
     -3.398398     11.999654     11.999654     23.999309
     -3.388388     12.688756     12.688756     25.377513
     -3.378378     13.002168     13.002168     26.004336
     -3.368368     13.273493     13.273493     26.546987
     -3.358358     13.950154     13.950154     27.900307
     -3.348348     15.447202     15.447202     30.894405
     -3.338338     18.015776     18.015776     36.031552
     -3.328328     21.662002     21.662002     43.324005
     -3.318318     26.120475     26.120475     52.240949
     -3.308308     30.870477     30.870477     61.740955
     -3.298298     35.193415     35.193415     70.386829
     -3.288288     38.286781     38.286781     76.573562
     -3.278278     39.441969     39.441969     78.883939
     -3.268268     38.251096     38.251096     76.502192
     -3.258258     34.761906     34.761906     69.523812
     -3.248248     29.496042     29.496042     58.992083
     -3.238238     23.302726     23.302726     46.605452
     -3.228228     17.104770     17.104770     34.209540
     -3.218218     11.648235     11.648235     23.296469
     -3.208208      7.355331      7.355331     14.710661
     -3.198198      4.316421      4.316421      8.632842
     -3.188188      2.388391      2.388391      4.776781
     -3.178178      1.333039      1.333039      2.666078
     -3.168168      0.937532      0.937532      1.875064
     -3.158158      1.088668      1.088668      2.177336
     -3.148148      1.798417      1.798417      3.596834
     -3.138138      3.188035      3.188035      6.376070
     -3.128128      5.436657      5.436657     10.873314
     -3.118118      8.699675      8.699675     17.399350
     -3.108108     13.011023     13.011023     26.022045
     -3.098098     18.199529     18.199529     36.399058
     -3.088088     23.860088     23.860088     47.720177
     -3.078078     29.410314     29.410314     58.820627
     -3.068068     34.227726     34.227726     68.455453
     -3.058058     37.816264     37.816264     75.632529
     -3.048048     39.924505     39.924505     79.849010
     -3.038038     40.557314     40.557314     81.114627
     -3.028028     39.884408     39.884408     79.768816
     -3.018018     38.115266     38.115266     76.230532
     -3.008008     35.430750     35.430750     70.861499
     -2.997998     32.017905     32.017905     64.035811
     -2.987988     28.175317     28.175317     56.350634
     -2.977978     24.400276     24.400276     48.800551
     -2.967968     21.375481     21.375481     42.750961
     -2.957958     19.833188     19.833188     39.666376
     -2.947948     20.344071     20.344071     40.688141
     -2.937938     23.115385     23.115385     46.230769
     -2.927928     27.877192     27.877192     55.754383
     -2.917918     33.901057     33.901057     67.802113
     -2.907908     40.152140     40.152140     80.304279
     -2.897898     45.534869     45.534869     91.069738
     -2.887888     49.161929     49.161929     98.323857
     -2.877878     50.564919     50.564919    101.129838
     -2.867868     49.780295     49.780295     99.560589
     -2.857858     47.284413     47.284413     94.568826
     -2.847848     43.803370     43.803370     87.606740
     -2.837838     40.067098     40.067098     80.134196
     -2.827828     36.596012     36.596012     73.192023
     -2.817818     33.594248     33.594248     67.188496
     -2.807808     30.980036     30.980036     61.960072
     -2.797798     28.526596     28.526596     57.053191
     -2.787788     26.040154     26.040154     52.080308
     -2.777778     23.487979     23.487979     46.975957
     -2.767768     21.018092     21.018092     42.036183
     -2.757758     18.871288     18.871288     37.742577
     -2.747748     17.244877     17.244877     34.489754
     -2.737738     16.192891     16.192891     32.385782
     -2.727728     15.623120     15.623120     31.246240
     -2.717718     15.389725     15.389725     30.779450
     -2.707708     15.418187     15.418187     30.836374
     -2.697698     15.776345     15.776345     31.552690
     -2.687688     16.638073     16.638073     33.276146
     -2.677678     18.155962     18.155962     36.311923
     -2.667668     20.322060     20.322060     40.644120
     -2.657658     22.909334     22.909334     45.818668
     -2.647648     25.539229     25.539229     51.078459
     -2.637638     27.840919     27.840919     55.681837
     -2.627628     29.607821     29.607821     59.215643
     -2.617618     30.858651     30.858651     61.717302
     -2.607608     31.773891     31.773891     63.547782
     -2.597598     32.559199     32.559199     65.118397
     -2.587588     33.326371     33.326371     66.652742
     -2.577578     34.054143     34.054143     68.108287
     -2.567568     34.623655     34.623655     69.247310
     -2.557558     34.875449     34.875449     69.750898
     -2.547548     34.643306     34.643306     69.286613
     -2.537538     33.768138     33.768138     67.536276
     -2.527528     32.130094     32.130094     64.260188
     -2.517518     29.721992     29.721992     59.443984
     -2.507508     26.735773     26.735773     53.471545
     -2.497497     23.595661     23.595661     47.191322
     -2.487487     20.885824     20.885824     41.771648
     -2.477477     19.180314     19.180314     38.360629
     -2.467467     18.846200     18.846200     37.692401
     -2.457457     19.914151     19.914151     39.828302
     -2.447447     22.081277     22.081277     44.162554
     -2.437437     24.847416     24.847416     49.694833
     -2.427427     27.722120     27.722120     55.444240
     -2.417417     30.405597     30.405597     60.811195
     -2.407407     32.858331     32.858331     65.716662
     -2.397397     35.226663     35.226663     70.453327
     -2.387387     37.661981     37.661981     75.323963
     -2.377377     40.125970     40.125970     80.251940
     -2.367367     42.286293     42.286293     84.572586
     -2.357357     43.568094     43.568094     87.136189
     -2.347347     43.353234     43.353234     86.706467
     -2.337337     41.245197     41.245197     82.490394
     -2.327327     37.280436     37.280436     74.560871
     -2.317317     31.987939     31.987939     63.975878
     -2.307307     26.269072     26.269072     52.538145
     -2.297297     21.151160     21.151160     42.302320
     -2.287287     17.516712     17.516712     35.033424
     -2.277277     15.904344     15.904344     31.808687
     -2.267267     16.431168     16.431168     32.862336
     -2.257257     18.833074     18.833074     37.666147
     -2.247247     22.584584     22.584584     45.169168
     -2.237237     27.048531     27.048531     54.097061
     -2.227227     31.609138     31.609138     63.218276
     -2.217217     35.754458     35.754458     71.508916
     -2.207207     39.096129     39.096129     78.192258
     -2.197197     41.344241     41.344241     82.688482
     -2.187187     42.279334     42.279334     84.558669
     -2.177177     41.763049     41.763049     83.526098
     -2.167167     39.796444     39.796444     79.592887
     -2.157157     36.587978     36.587978     73.175957
     -2.147147     32.566833     32.566833     65.133665
     -2.137137     28.297926     28.297926     56.595852
     -2.127127     24.315533     24.315533     48.631067
     -2.117117     20.952081     20.952081     41.904163
     -2.107107     18.252615     18.252615     36.505230
     -2.097097     16.019967     16.019967     32.039935
     -2.087087     13.960688     13.960688     27.921376
     -2.077077     11.847997     11.847997     23.695993
     -2.067067      9.618818      9.618818     19.237637
     -2.057057      7.370671      7.370671     14.741342
     -2.047047      5.283431      5.283431     10.566862
     -2.037037      3.523269      3.523269      7.046539
     -2.027027      2.178842      2.178842      4.357683
     -2.017017      1.248330      1.248330      2.496661
     -2.007007      0.665586      0.665586      1.331171
     -1.996997      0.340694      0.340694      0.681389
     -1.986987      0.194992      0.194992      0.389984
     -1.976977      0.182712      0.182712      0.365423
     -1.966967      0.300959      0.300959      0.601918
     -1.956957      0.592125      0.592125      1.184251
     -1.946947      1.139590      1.139590      2.279180
     -1.936937      2.053207      2.053207      4.106414
     -1.926927      3.440306      3.440306      6.880613
     -1.916917      5.363328      5.363328     10.726655
     -1.906907      7.794999      7.794999     15.589997
     -1.896897     10.589976     10.589976     21.179952
     -1.886887     13.490789     13.490789     26.981577
     -1.876877     16.173650     16.173650     32.347301
     -1.866867     18.322395     18.322395     36.644790
     -1.856857     19.706814     19.706814     39.413627
     -1.846847     20.240911     20.240911     40.481821
     -1.836837     20.003862     20.003862     40.007724
     -1.826827     19.215380     19.215380     38.430759
     -1.816817     18.166584     18.166584     36.333168
     -1.806807     17.121539     17.121539     34.243078
     -1.796797     16.222678     16.222678     32.445357
     -1.786787     15.443128     15.443128     30.886257
     -1.776777     14.615304     14.615304     29.230609
     -1.766767     13.527723     13.527723     27.055446
     -1.756757     12.042516     12.042516     24.085032
     -1.746747     10.173245     10.173245     20.346489
     -1.736737      8.087519      8.087519     16.175037
     -1.726727      6.044406      6.044406     12.088812
     -1.716717      4.311217      4.311217      8.622434
     -1.706707      3.106577      3.106577      6.213154
     -1.696697      2.589782      2.589782      5.179564
     -1.686687      2.881158      2.881158      5.762316
     -1.676677      4.076863      4.076863      8.153726
     -1.666667      6.225582      6.225582     12.451164
     -1.656657      9.261664      9.261664     18.523328
     -1.646647     12.925982     12.925982     25.851963
     -1.636637     16.731608     16.731608     33.463216
     -1.626627     20.026016     20.026016     40.052031
