# EIG2DOS: Utility for SIESTA to obtain the electronic density of states
#  E. Artacho, Apr 1999, A. Garcia, Apr 2012
#  Nick R. Papior, Feb 2017
# ------------------------------------------
# Eigenvalues calculated from a non-polarized calculation
# Eigenvalues read from siesta.EIG
# Kpoint weights read from siesta.KP
# Using smearing parameter:   0.0500
# Using 1000 points in the energy range
# Selected bands: 1 to: 2981
# Emin, Emax in file for selected band(s):    -27.0910646    218.3569800
# Nbands, Nspin, Nk   =   2981     1     1
# E_F                 =    -4.2471 eV --> (shifted to ZERO)
# Broadening          =     0.0500 eV
#
#        E            N(up)  (=)   N(down)         Ntot
     -5.000000     33.360687     33.360687     66.721373
     -4.989990     37.425539     37.425539     74.851078
     -4.979980     41.057651     41.057651     82.115302
     -4.969970     43.657122     43.657122     87.314244
     -4.959960     44.760557     44.760557     89.521114
     -4.949950     44.179366     44.179366     88.358731
     -4.939940     42.064127     42.064127     84.128254
     -4.929930     38.880834     38.880834     77.761669
     -4.919920     35.324004     35.324004     70.648009
     -4.909910     32.203946     32.203946     64.407892
     -4.899900     30.326712     30.326712     60.653424
     -4.889890     30.358099     30.358099     60.716198
     -4.879880     32.660459     32.660459     65.320918
     -4.869870     37.126689     37.126689     74.253378
     -4.859860     43.085621     43.085621     86.171241
     -4.849850     49.368917     49.368917     98.737835
     -4.839840     54.578140     54.578140    109.156279
     -4.829830     57.487722     57.487722    114.975443
     -4.819820     57.427887     57.427887    114.855775
     -4.809810     54.478184     54.478184    108.956367
     -4.799800     49.386727     49.386727     98.773454
     -4.789790     43.264824     43.264824     86.529648
     -4.779780     37.208378     37.208378     74.416756
     -4.769770     32.008057     32.008057     64.016115
     -4.759760     28.035700     28.035700     56.071400
     -4.749750     25.293909     25.293909     50.587817
     -4.739740     23.551575     23.551575     47.103149
     -4.729730     22.483065     22.483065     44.966130
     -4.719720     21.763395     21.763395     43.526789
     -4.709710     21.112556     21.112556     42.225112
     -4.699700     20.308681     20.308681     40.617361
     -4.689690     19.197786     19.197786     38.395572
     -4.679680     17.720194     17.720194     35.440388
     -4.669670     15.954782     15.954782     31.909564
     -4.659660     14.160804     14.160804     28.321607
     -4.649650     12.785421     12.785421     25.570843
     -4.639640     12.410531     12.410531     24.821063
     -4.629630     13.631602     13.631602     27.263205
     -4.619620     16.885390     16.885390     33.770781
     -4.609610     22.267221     22.267221     44.534443
     -4.599600     29.399382     29.399382     58.798763
     -4.589590     37.420676     37.420676     74.841351
     -4.579580     45.145838     45.145838     90.291676
     -4.569570     51.382268     51.382268    102.764535
     -4.559560     55.308709     55.308709    110.617417
     -4.549550     56.762496     56.762496    113.524992
     -4.539540     56.294936     56.294936    112.589872
     -4.529530     54.947015     54.947015    109.894030
     -4.519520     53.827857     53.827857    107.655713
     -4.509510     53.676048     53.676048    107.352096
     -4.499499     54.593972     54.593972    109.187943
     -4.489489     56.060840     56.060840    112.121680
     -4.479479     57.196791     57.196791    114.393581
     -4.469469     57.139373     57.139373    114.278745
     -4.459459     55.360599     55.360599    110.721198
     -4.449449     51.806564     51.806564    103.613128
     -4.439439     46.843190     46.843190     93.686379
     -4.429429     41.081134     41.081134     82.162268
     -4.419419     35.186261     35.186261     70.372522
     -4.409409     29.753375     29.753375     59.506750
     -4.399399     25.258915     25.258915     50.517831
     -4.389389     22.055770     22.055770     44.111540
     -4.379379     20.360955     20.360955     40.721911
     -4.369369     20.216357     20.216357     40.432714
     -4.359359     21.447165     21.447165     42.894331
     -4.349349     23.666239     23.666239     47.332478
     -4.339339     26.356025     26.356025     52.712049
     -4.329329     29.014066     29.014066     58.028132
     -4.319319     31.305629     31.305629     62.611258
     -4.309309     33.156239     33.156239     66.312479
     -4.299299     34.742701     34.742701     69.485401
     -4.289289     36.384727     36.384727     72.769453
     -4.279279     38.376423     38.376423     76.752846
     -4.269269     40.815874     40.815874     81.631748
     -4.259259     43.494235     43.494235     86.988471
     -4.249249     45.896042     45.896042     91.792085
     -4.239239     47.334365     47.334365     94.668731
     -4.229229     47.193104     47.193104     94.386208
     -4.219219     45.188418     45.188418     90.376836
     -4.209209     41.529021     41.529021     83.058041
     -4.199199     36.885165     36.885165     73.770329
     -4.189189     32.165826     32.165826     64.331652
     -4.179179     28.203844     28.203844     56.407688
     -4.169169     25.496413     25.496413     50.992825
     -4.159159     24.113516     24.113516     48.227033
     -4.149149     23.794602     23.794602     47.589203
     -4.139139     24.161546     24.161546     48.323091
     -4.129129     24.931402     24.931402     49.862804
     -4.119119     26.027190     26.027190     52.054380
     -4.109109     27.541235     27.541235     55.082469
     -4.099099     29.576419     29.576419     59.152838
     -4.089089     32.051587     32.051587     64.103175
     -4.079079     34.584475     34.584475     69.168950
     -4.069069     36.538672     36.538672     73.077343
     -4.059059     37.240349     37.240349     74.480697
     -4.049049     36.271827     36.271827     72.543654
     -4.039039     33.692643     33.692643     67.385287
     -4.029029     30.067737     30.067737     60.135473
     -4.019019     26.285144     26.285144     52.570288
     -4.009009     23.258182     23.258182     46.516365
     -3.998999     21.658384     21.658384     43.316767
     -3.988989     21.788559     21.788559     43.577117
     -3.978979     23.613416     23.613416     47.226832
     -3.968969     26.882747     26.882747     53.765493
     -3.958959     31.257834     31.257834     62.515669
     -3.948949     36.387591     36.387591     72.775183
     -3.938939     41.937855     41.937855     83.875710
     -3.928929     47.608559     47.608559     95.217119
     -3.918919     53.160377     53.160377    106.320754
     -3.908909     58.435633     58.435633    116.871267
     -3.898899     63.337446     63.337446    126.674893
     -3.888889     67.749983     67.749983    135.499966
     -3.878879     71.430083     71.430083    142.860166
     -3.868869     73.939578     73.939578    147.879156
     -3.858859     74.685362     74.685362    149.370724
     -3.848849     73.085168     73.085168    146.170335
     -3.838839     68.806627     68.806627    137.613255
     -3.828829     61.976369     61.976369    123.952737
     -3.818819     53.255946     53.255946    106.511892
     -3.808809     43.735409     43.735409     87.470818
     -3.798799     34.675138     34.675138     69.350275
     -3.788789     27.189959     27.189959     54.379918
     -3.778779     21.986067     21.986067     43.972133
     -3.768769     19.229648     19.229648     38.459296
     -3.758759     18.570537     18.570537     37.141073
     -3.748749     19.294206     19.294206     38.588412
     -3.738739     20.547589     20.547589     41.095178
     -3.728729     21.577900     21.577900     43.155801
     -3.718719     21.929683     21.929683     43.859367
     -3.708709     21.556535     21.556535     43.113069
     -3.698699     20.819212     20.819212     41.638424
     -3.688689     20.363668     20.363668     40.727336
     -3.678679     20.902315     20.902315     41.804629
     -3.668669     22.955430     22.955430     45.910860
     -3.658659     26.635111     26.635111     53.270223
     -3.648649     31.554637     31.554637     63.109275
     -3.638639     36.909514     36.909514     73.819028
     -3.628629     41.709236     41.709236     83.418473
     -3.618619     45.071129     45.071129     90.142257
     -3.608609     46.459387     46.459387     92.918775
     -3.598599     45.784234     45.784234     91.568468
     -3.588589     43.349000     43.349000     86.698000
     -3.578579     39.699646     39.699646     79.399293
     -3.568569     35.452826     35.452826     70.905653
     -3.558559     31.155144     31.155144     62.310288
     -3.548549     27.190581     27.190581     54.381162
     -3.538539     23.736181     23.736181     47.472361
     -3.528529     20.769223     20.769223     41.538447
     -3.518519     18.130159     18.130159     36.260317
     -3.508509     15.628472     15.628472     31.256943
     -3.498498     13.153186     13.153186     26.306371
     -3.488488     10.740361     10.740361     21.480721
     -3.478478      8.569418      8.569418     17.138836
     -3.468468      6.895738      6.895738     13.791475
     -3.458458      5.953733      5.953733     11.907465
     -3.448448      5.868488      5.868488     11.736976
     -3.438438      6.601615      6.601615     13.203231
     -3.428428      7.943723      7.943723     15.887446
     -3.418418      9.558496      9.558496     19.116992
     -3.408408     11.075278     11.075278     22.150555
     -3.398398     12.210268     12.210268     24.420536
     -3.388388     12.875837     12.875837     25.751673
     -3.378378     13.230034     13.230034     26.460068
     -3.368368     13.637490     13.637490     27.274980
     -3.358358     14.552298     14.552298     29.104596
     -3.348348     16.368498     16.368498     32.736996
     -3.338338     19.291121     19.291121     38.582242
     -3.328328     23.259103     23.259103     46.518207
     -3.318318     27.923318     27.923318     55.846637
     -3.308308     32.673602     32.673602     65.347205
     -3.298298     36.720203     36.720203     73.440405
     -3.288288     39.242635     39.242635     78.485269
     -3.278278     39.596250     39.596250     79.192500
     -3.268268     37.518636     37.518636     75.037273
     -3.258258     33.244250     33.244250     66.488499
     -3.248248     27.457051     27.457051     54.914102
     -3.238238     21.086639     21.086639     42.173278
     -3.228228     15.035254     15.035254     30.070507
     -3.218218      9.954488      9.954488     19.908976
     -3.208208      6.153474      6.153474     12.306949
     -3.198198      3.646059      3.646059      7.292118
     -3.188188      2.283080      2.283080      4.566160
     -3.178178      1.896595      1.896595      3.793190
     -3.168168      2.400695      2.400695      4.801390
     -3.158158      3.824533      3.824533      7.649066
     -3.148148      6.278497      6.278497     12.556994
     -3.138138      9.870117      9.870117     19.740233
     -3.128128     14.597350     14.597350     29.194701
     -3.118118     20.256087     20.256087     40.512175
     -3.108108     26.401418     26.401418     52.802836
     -3.098098     32.391371     32.391371     64.782742
     -3.088088     37.515313     37.515313     75.030627
     -3.078078     41.174252     41.174252     82.348503
     -3.068068     43.050723     43.050723     86.101447
     -3.058058     43.197250     43.197250     86.394501
     -3.048048     41.994966     41.994966     83.989932
     -3.038038     39.986841     39.986841     79.973682
     -3.028028     37.653429     37.653429     75.306857
     -3.018018     35.238403     35.238403     70.476806
     -3.008008     32.715105     32.715105     65.430210
     -2.997998     29.912822     29.912822     59.825644
     -2.987988     26.731874     26.731874     53.463749
     -2.977978     23.326333     23.326333     46.652667
     -2.967968     20.154358     20.154358     40.308716
     -2.957958     17.871212     17.871212     35.742423
     -2.947948     17.118190     17.118190     34.236380
     -2.937938     18.298510     18.298510     36.597020
     -2.927928     21.421363     21.421363     42.842726
     -2.917918     26.059937     26.059937     52.119874
     -2.907908     31.432585     31.432585     62.865171
     -2.897898     36.586526     36.586526     73.173052
     -2.887888     40.636913     40.636913     81.273825
     -2.877878     42.991901     42.991901     85.983803
     -2.867868     43.488412     43.488412     86.976824
     -2.857858     42.386889     42.386889     84.773779
     -2.847848     40.225582     40.225582     80.451165
     -2.837838     37.594670     37.594670     75.189340
     -2.827828     34.927132     34.927132     69.854264
     -2.817818     32.394373     32.394373     64.788746
     -2.807808     29.941871     29.941871     59.883743
     -2.797798     27.429820     27.429820     54.859639
     -2.787788     24.793142     24.793142     49.586283
     -2.777778     22.131683     22.131683     44.263367
     -2.767768     19.686289     19.686289     39.372579
     -2.757758     17.724286     17.724286     35.448572
     -2.747748     16.409832     16.409832     32.819665
     -2.737738     15.740474     15.740474     31.480948
     -2.727728     15.587208     15.587208     31.174415
     -2.717718     15.807644     15.807644     31.615289
     -2.707708     16.352899     16.352899     32.705798
     -2.697698     17.291591     17.291591     34.583183
     -2.687688     18.729865     18.729865     37.459730
     -2.677678     20.679862     20.679862     41.359724
     -2.667668     22.970592     22.970592     45.941183
     -2.657658     25.272999     25.272999     50.545997
     -2.647648     27.236337     27.236337     54.472673
     -2.637638     28.655490     28.655490     57.310979
     -2.627628     29.563819     29.563819     59.127638
     -2.617618     30.193310     30.193310     60.386619
     -2.607608     30.830454     30.830454     61.660909
     -2.597598     31.659730     31.659730     63.319460
     -2.587588     32.682381     32.682381     65.364761
     -2.577578     33.735647     33.735647     67.471295
     -2.567568     34.570391     34.570391     69.140783
     -2.557558     34.925327     34.925327     69.850655
     -2.547548     34.570305     34.570305     69.140609
     -2.537538     33.338319     33.338319     66.676638
     -2.527528     31.178323     31.178323     62.356647
     -2.517518     28.227930     28.227930     56.455860
     -2.507508     24.860932     24.860932     49.721864
     -2.497497     21.653752     21.653752     43.307504
     -2.487487     19.251975     19.251975     38.503949
     -2.477477     18.177461     18.177461     36.354921
     -2.467467     18.657174     18.657174     37.314348
     -2.457457     20.551857     20.551857     41.103715
     -2.447447     23.419667     23.419667     46.839333
     -2.437437     26.689819     26.689819     53.379639
     -2.427427     29.871648     29.871648     59.743296
     -2.417417     32.706787     32.706787     65.413573
     -2.407407     35.195934     35.195934     70.391868
     -2.397397     37.488962     37.488962     74.977924
     -2.387387     39.693614     39.693614     79.387229
     -2.377377     41.701922     41.701922     83.403844
     -2.367367     43.131120     43.131120     86.262241
     -2.357357     43.424413     43.424413     86.848827
     -2.347347     42.077877     42.077877     84.155755
     -2.337337     38.891896     38.891896     77.783791
     -2.327327     34.126696     34.126696     68.253393
     -2.317317     28.485718     28.485718     56.971435
     -2.307307     22.934357     22.934357     45.868713
     -2.297297     18.436579     18.436579     36.873157
     -2.287287     15.716610     15.716610     31.433220
     -2.277277     15.121988     15.121988     30.243976
     -2.267267     16.606696     16.606696     33.213391
     -2.257257     19.806101     19.806101     39.612202
     -2.247247     24.157054     24.157054     48.314108
     -2.237237     29.021338     29.021338     58.042677
     -2.227227     33.784433     33.784433     67.568866
     -2.217217     37.916093     37.916093     75.832186
     -2.207207     40.994459     40.994459     81.988917
     -2.197197     42.710667     42.710667     85.421335
     -2.187187     42.878994     42.878994     85.757988
     -2.177177     41.468688     41.468688     82.937376
     -2.167167     38.647286     38.647286     77.294571
     -2.157157     34.797277     34.797277     69.594555
     -2.147147     30.463637     30.463637     60.927273
     -2.137137     26.221994     26.221994     52.443989
     -2.127127     22.510561     22.510561     45.021122
     -2.117117     19.505135     19.505135     39.010270
     -2.107107     17.104013     17.104013     34.208026
     -2.097097     15.031255     15.031255     30.062510
     -2.087087     13.000623     13.000623     26.001247
     -2.077077     10.853326     10.853326     21.706652
     -2.067067      8.607204      8.607204     17.214407
     -2.057057      6.412037      6.412037     12.824074
     -2.047047      4.455030      4.455030      8.910061
     -2.037037      2.874424      2.874424      5.748847
     -2.027027      1.718260      1.718260      3.436520
     -2.017017      0.951643      0.951643      1.903287
     -2.007007      0.492329      0.492329      0.984658
     -1.996997      0.250317      0.250317      0.500634
     -1.986987      0.156657      0.156657      0.313315
     -1.976977      0.178838      0.178838      0.357677
     -1.966967      0.326938      0.326938      0.653875
     -1.956957      0.654461      0.654461      1.308922
     -1.946947      1.253307      1.253307      2.506613
     -1.936937      2.238118      2.238118      4.476236
     -1.926927      3.715535      3.715535      7.431070
     -1.916917      5.740306      5.740306     11.480611
     -1.906907      8.270441      8.270441     16.540882
     -1.896897     11.141152     11.141152     22.282303
     -1.886887     14.075285     14.075285     28.150569
     -1.876877     16.735114     16.735114     33.470228
     -1.866867     18.803147     18.803147     37.606293
     -1.856857     20.067924     20.067924     40.135849
     -1.846847     20.489340     20.489340     40.978679
     -1.836837     20.223451     20.223451     40.446903
     -1.826827     19.594114     19.594114     39.188229
     -1.816817     19.008429     19.008429     38.016857
     -1.806807     18.829786     18.829786     37.659573
     -1.796797     19.244971     19.244971     38.489942
     -1.786787     20.177521     20.177521     40.355041
     -1.776777     21.292075     21.292075     42.584151
     -1.766767     22.099691     22.099691     44.199382
     -1.756757     22.127873     22.127873     44.255747
     -1.746747     21.087538     21.087538     42.175077
     -1.736737     18.970719     18.970719     37.941439
     -1.726727     16.046270     16.046270     32.092539
     -1.716717     12.766954     12.766954     25.533908
     -1.706707      9.635681      9.635681     19.271362
     -1.696697      7.085353      7.085353     14.170705
     -1.686687      5.406459      5.406459     10.812918
     -1.676677      4.724672      4.724672      9.449344
     -1.666667      5.007847      5.007847     10.015694
     -1.656657      6.080776      6.080776     12.161552
     -1.646647      7.643395      7.643395     15.286789
     -1.636637      9.307024      9.307024     18.614048
     -1.626627     10.665456     10.665456     21.330911
