# EIG2DOS: Utility for SIESTA to obtain the electronic density of states
#  E. Artacho, Apr 1999, A. Garcia, Apr 2012
#  Nick R. Papior, Feb 2017
# ------------------------------------------
# Eigenvalues calculated from a non-polarized calculation
# Eigenvalues read from siesta.EIG
# Kpoint weights read from siesta.KP
# Using smearing parameter:   0.0500
# Using 1000 points in the energy range
# Selected bands: 1 to: 2981
# Emin, Emax in file for selected band(s):    -27.3564608    218.3972150
# Nbands, Nspin, Nk   =   2981     1     1
# E_F                 =    -4.1982 eV --> (shifted to ZERO)
# Broadening          =     0.0500 eV
#
#        E            N(up)  (=)   N(down)         Ntot
     -5.000000     32.896140     32.896140     65.792280
     -4.989990     37.802910     37.802910     75.605819
     -4.979980     42.237773     42.237773     84.475545
     -4.969970     45.427812     45.427812     90.855625
     -4.959960     46.773495     46.773495     93.546989
     -4.949950     46.049884     46.049884     92.099768
     -4.939940     43.487204     43.487204     86.974408
     -4.929930     39.714942     39.714942     79.429884
     -4.919920     35.613925     35.613925     71.227850
     -4.909910     32.140014     32.140014     64.280028
     -4.899900     30.158304     30.158304     60.316609
     -4.889890     30.290536     30.290536     60.581072
     -4.879880     32.770138     32.770138     65.540276
     -4.869870     37.328975     37.328975     74.657949
     -4.859860     43.177282     43.177282     86.354565
     -4.849850     49.138231     49.138231     98.276462
     -4.839840     53.941571     53.941571    107.883143
     -4.829830     56.593739     56.593739    113.187478
     -4.819820     56.681159     56.681159    113.362318
     -4.809810     54.474657     54.474657    108.949315
     -4.799800     50.786850     50.786850    101.573699
     -4.789790     46.646271     46.646271     93.292542
     -4.779780     42.930636     42.930636     85.861271
     -4.769770     40.107930     40.107930     80.215860
     -4.759760     38.171703     38.171703     76.343406
     -4.749750     36.764136     36.764136     73.528271
     -4.739740     35.403777     35.403777     70.807555
     -4.729730     33.705170     33.705170     67.410340
     -4.719720     31.501047     31.501047     63.002094
     -4.709710     28.838404     28.838404     57.676809
     -4.699700     25.886667     25.886667     51.773333
     -4.689690     22.835357     22.835357     45.670713
     -4.679680     19.849830     19.849830     39.699659
     -4.669670     17.104528     17.104528     34.209056
     -4.659660     14.856650     14.856650     29.713299
     -4.649650     13.494321     13.494321     26.988642
     -4.639640     13.505665     13.505665     27.011331
     -4.629630     15.355488     15.355488     30.710977
     -4.619620     19.301561     19.301561     38.603122
     -4.609610     25.216230     25.216230     50.432459
     -4.599600     32.493135     32.493135     64.986269
     -4.589590     40.105253     40.105253     80.210506
     -4.579580     46.832776     46.832776     93.665552
     -4.569570     51.605901     51.605901    103.211801
     -4.559560     53.840727     53.840727    107.681454
     -4.549550     53.628055     53.628055    107.256110
     -4.539540     51.685812     51.685812    103.371623
     -4.529530     49.086013     49.086013     98.172025
     -4.519520     46.865421     46.865421     93.730843
     -4.509510     45.675866     45.675866     91.351732
     -4.499499     45.605688     45.605688     91.211377
     -4.489489     46.224741     46.224741     92.449481
     -4.479479     46.811223     46.811223     93.622445
     -4.469469     46.651276     46.651276     93.302552
     -4.459459     45.287768     45.287768     90.575536
     -4.449449     42.634220     42.634220     85.268440
     -4.439439     38.940283     38.940283     77.880566
     -4.429429     34.660643     34.660643     69.321286
     -4.419419     30.308332     30.308332     60.616663
     -4.409409     26.355190     26.355190     52.710380
     -4.399399     23.193042     23.193042     46.386084
     -4.389389     21.123957     21.123957     42.247915
     -4.379379     20.337818     20.337818     40.675636
     -4.369369     20.864776     20.864776     41.729553
     -4.359359     22.532703     22.532703     45.065406
     -4.349349     24.978406     24.978406     49.956813
     -4.339339     27.738349     27.738349     55.476699
     -4.329329     30.395159     30.395159     60.790319
     -4.319319     32.715999     32.715999     65.431998
     -4.309309     34.715431     34.715431     69.430861
     -4.299299     36.609304     36.609304     73.218608
     -4.289289     38.675130     38.675130     77.350260
     -4.279279     41.073378     41.073378     82.146755
     -4.269269     43.700937     43.700937     87.401873
     -4.259259     46.142126     46.142126     92.284252
     -4.249249     47.755157     47.755157     95.510314
     -4.239239     47.883377     47.883377     95.766754
     -4.229229     46.121207     46.121207     92.242415
     -4.219219     42.522349     42.522349     85.044698
     -4.209209     37.645423     37.645423     75.290845
     -4.199199     32.399633     32.399633     64.799266
     -4.189189     27.749770     27.749770     55.499540
     -4.179179     24.410360     24.410360     48.820719
     -4.169169     22.660960     22.660960     45.321920
     -4.159159     22.349576     22.349576     44.699152
     -4.149149     23.059293     23.059293     46.118586
     -4.139139     24.343580     24.343580     48.687159
     -4.129129     25.916397     25.916397     51.832793
     -4.119119     27.713949     27.713949     55.427898
     -4.109109     29.807676     29.807676     59.615352
     -4.099099     32.219461     32.219461     64.438922
     -4.089089     34.743685     34.743685     69.487369
     -4.079079     36.889051     36.889051     73.778103
     -4.069069     38.000204     38.000204     76.000408
     -4.059059     37.521532     37.521532     75.043065
     -4.049049     35.276034     35.276034     70.552069
     -4.039039     31.610281     31.610281     63.220561
     -4.029029     27.323441     27.323441     54.646882
     -4.019019     23.414308     23.414308     46.828616
     -4.009009     20.771690     20.771690     41.543379
     -3.998999     19.946657     19.946657     39.893314
     -3.988989     21.082108     21.082108     42.164217
     -3.978979     23.985347     23.985347     47.970694
     -3.968969     28.269571     28.269571     56.539143
     -3.958959     33.486905     33.486905     66.973810
     -3.948949     39.214587     39.214587     78.429175
     -3.938939     45.099149     45.099149     90.198298
     -3.928929     50.879036     50.879036    101.758071
     -3.918919     56.391082     56.391082    112.782165
     -3.908909     61.545203     61.545203    123.090407
     -3.898899     66.253508     66.253508    132.507016
     -3.888889     70.330506     70.330506    140.661012
     -3.878879     73.416661     73.416661    146.833322
     -3.868869     74.985766     74.985766    149.971533
     -3.858859     74.463814     74.463814    148.927629
     -3.848849     71.429609     71.429609    142.859217
     -3.838839     65.818984     65.818984    131.637968
     -3.828829     58.042908     58.042908    116.085817
     -3.818819     48.960899     48.960899     97.921798
     -3.808809     39.708711     39.708711     79.417423
     -3.798799     31.435406     31.435406     62.870812
     -3.788789     25.035644     25.035644     50.071287
     -3.778779     20.958807     20.958807     41.917614
     -3.768769     19.144530     19.144530     38.289060
     -3.758759     19.091713     19.091713     38.183425
     -3.748749     20.031680     20.031680     40.063360
     -3.738739     21.154537     21.154537     42.309074
     -3.728729     21.831229     21.831229     43.662458
     -3.718719     21.778641     21.778641     43.557281
     -3.708709     21.127705     21.127705     42.255410
     -3.698699     20.373729     20.373729     40.747457
     -3.688689     20.214019     20.214019     40.428037
     -3.678679     21.309224     21.309224     42.618449
     -3.668669     24.035329     24.035329     48.070658
     -3.658659     28.309959     28.309959     56.619917
     -3.648649     33.564318     33.564318     67.128636
     -3.638639     38.884248     38.884248     77.768495
     -3.628629     43.274834     43.274834     86.549669
     -3.618619     45.946927     45.946927     91.893855
     -3.608609     46.515479     46.515479     93.030959
     -3.598599     45.046942     45.046942     90.093883
     -3.588589     41.966664     41.966664     83.933328
     -3.578579     37.891027     37.891027     75.782054
     -3.568569     33.455754     33.455754     66.911508
     -3.558559     29.182987     29.182987     58.365974
     -3.548549     25.399185     25.399185     50.798370
     -3.538539     22.205843     22.205843     44.411687
     -3.528529     19.508228     19.508228     39.016456
     -3.518519     17.101967     17.101967     34.203933
     -3.508509     14.795301     14.795301     29.590603
     -3.498498     12.521892     12.521892     25.043783
     -3.488488     10.397748     10.397748     20.795496
     -3.478478      8.700908      8.700908     17.401815
     -3.468468      7.785955      7.785955     15.571911
     -3.458458      7.965433      7.965433     15.930865
     -3.448448      9.391390      9.391390     18.782780
     -3.438438     11.965311     11.965311     23.930622
     -3.428428     15.305139     15.305139     30.610277
     -3.418418     18.798606     18.798606     37.597211
     -3.408408     21.754516     21.754516     43.509032
     -3.398398     23.620805     23.620805     47.241610
     -3.388388     24.190252     24.190252     48.380505
     -3.378378     23.699077     23.699077     47.398155
     -3.368368     22.762565     22.762565     45.525129
     -3.358358     22.167979     22.167979     44.335957
     -3.348348     22.610582     22.610582     45.221164
     -3.338338     24.473352     24.473352     48.946704
     -3.328328     27.714549     27.714549     55.429097
     -3.318318     31.875356     31.875356     63.750713
     -3.308308     36.188580     36.188580     72.377160
     -3.298298     39.763077     39.763077     79.526154
     -3.288288     41.812916     41.812916     83.625832
     -3.278278     41.876942     41.876942     83.753884
     -3.268268     39.949705     39.949705     79.899411
     -3.258258     36.456827     36.456827     72.913654
     -3.248248     32.073178     32.073178     64.146356
     -3.238238     27.467167     27.467167     54.934335
     -3.228228     23.096688     23.096688     46.193376
     -3.218218     19.146344     19.146344     38.292687
     -3.208208     15.606457     15.606457     31.212913
     -3.198198     12.416938     12.416938     24.833876
     -3.188188      9.583451      9.583451     19.166902
     -3.178178      7.217190      7.217190     14.434381
     -3.168168      5.509099      5.509099     11.018199
     -3.158158      4.679904      4.679904      9.359808
     -3.148148      4.936989      4.936989      9.873978
     -3.138138      6.439075      6.439075     12.878149
     -3.128128      9.250933      9.250933     18.501867
     -3.118118     13.279270     13.279270     26.558540
     -3.108108     18.209626     18.209626     36.419253
     -3.098098     23.488778     23.488778     46.977557
     -3.088088     28.393895     28.393895     56.787791
     -3.078078     32.192146     32.192146     64.384293
     -3.068068     34.340419     34.340419     68.680838
     -3.058058     34.638872     34.638872     69.277744
     -3.048048     33.263253     33.263253     66.526506
     -3.038038     30.659928     30.659928     61.319856
     -3.028028     27.360905     27.360905     54.721809
     -3.018018     23.816721     23.816721     47.633441
     -3.008008     20.325966     20.325966     40.651932
     -2.997998     17.075771     17.075771     34.151543
     -2.987988     14.242319     14.242319     28.484637
     -2.977978     12.074969     12.074969     24.149938
     -2.967968     10.909848     10.909848     21.819696
     -2.957958     11.104448     11.104448     22.208897
     -2.947948     12.922544     12.922544     25.845089
     -2.937938     16.413983     16.413983     32.827967
     -2.927928     21.331927     21.331927     42.663854
     -2.917918     27.120936     27.120936     54.241872
     -2.907908     32.994833     32.994833     65.989666
     -2.897898     38.099013     38.099013     76.198026
     -2.887888     41.718584     41.718584     83.437167
     -2.877878     43.464487     43.464487     86.928975
     -2.867868     43.364165     43.364165     86.728329
     -2.857858     41.813160     41.813160     83.626320
     -2.847848     39.401656     39.401656     78.803312
     -2.837838     36.688444     36.688444     73.376888
     -2.827828     34.021946     34.021946     68.043891
     -2.817818     31.485084     31.485084     62.970167
     -2.807808     28.977113     28.977113     57.954225
     -2.797798     26.374820     26.374820     52.749640
     -2.787788     23.677483     23.677483     47.354967
     -2.777778     21.056145     21.056145     42.112291
     -2.767768     18.787993     18.787993     37.575986
     -2.757758     17.125014     17.125014     34.250027
     -2.747748     16.182154     16.182154     32.364307
     -2.737738     15.912753     15.912753     31.825506
     -2.727728     16.179131     16.179131     32.358262
     -2.717718     16.862025     16.862025     33.724050
     -2.707708     17.926760     17.926760     35.853521
     -2.697698     19.396164     19.396164     38.792329
     -2.687688     21.250577     21.250577     42.501154
     -2.677678     23.334900     23.334900     46.669801
     -2.667668     25.355882     25.355882     50.711764
     -2.657658     26.992425     26.992425     53.984851
     -2.647648     28.058227     28.058227     56.116453
     -2.637638     28.610764     28.610764     57.221529
     -2.627628     28.929688     28.929688     57.859376
     -2.617618     29.372068     29.372068     58.744136
     -2.607608     30.190538     30.190538     60.381076
     -2.597598     31.416873     31.416873     62.833746
     -2.587588     32.860741     32.860741     65.721482
     -2.577578     34.196758     34.196758     68.393515
     -2.567568     35.071598     35.071598     70.143196
     -2.557558     35.180411     35.180411     70.360823
     -2.547548     34.310903     34.310903     68.621806
     -2.537538     32.384419     32.384419     64.768839
     -2.527528     29.510055     29.510055     59.020110
     -2.517518     26.028221     26.028221     52.056442
     -2.507508     22.495934     22.495934     44.991868
     -2.497497     19.583338     19.583338     39.166677
     -2.487487     17.899126     17.899126     35.798251
     -2.477477     17.807531     17.807531     35.615063
     -2.467467     19.312928     19.312928     38.625856
     -2.457457     22.063811     22.063811     44.127623
     -2.447447     25.479946     25.479946     50.959893
     -2.437437     28.955528     28.955528     57.911056
     -2.427427     32.057272     32.057272     64.114543
     -2.417417     34.634076     34.634076     69.268151
     -2.407407     36.789084     36.789084     73.578168
     -2.397397     38.725315     38.725315     77.450631
     -2.387387     40.537917     40.537917     81.075835
     -2.377377     42.059510     42.059510     84.119019
     -2.367367     42.848682     42.848682     85.697364
     -2.357357     42.345807     42.345807     84.691614
     -2.347347     40.133147     40.133147     80.266294
     -2.337337     36.174842     36.174842     72.349684
     -2.327327     30.916224     30.916224     61.832449
     -2.317317     25.193103     25.193103     50.386205
     -2.307307     19.997671     19.997671     39.995343
     -2.297297     16.209885     16.209885     32.419770
     -2.287287     14.399396     14.399396     28.798791
     -2.277277     14.748381     14.748381     29.496763
     -2.267267     17.083284     17.083284     34.166569
     -2.257257     20.969036     20.969036     41.938072
     -2.247247     25.819100     25.819100     51.638201
     -2.237237     30.992591     30.992591     61.985182
     -2.227227     35.867973     35.867973     71.735945
     -2.217217     39.894363     39.894363     79.788726
     -2.207207     42.627975     42.627975     85.255949
     -2.197197     43.764750     43.764750     87.529499
     -2.187187     43.177927     43.177927     86.355854
     -2.177177     40.957113     40.957113     81.914226
     -2.167167     37.426772     37.426772     74.853544
     -2.157157     33.111281     33.111281     66.222563
     -2.147147     28.627501     28.627501     57.255003
     -2.137137     24.525536     24.525536     49.051073
     -2.127127     21.140749     21.140749     42.281499
     -2.117117     18.530819     18.530819     37.061638
     -2.107107     16.533835     16.533835     33.067671
     -2.097097     14.916281     14.916281     29.832563
     -2.087087     13.527175     13.527175     27.054350
     -2.077077     12.372659     12.372659     24.745318
     -2.067067     11.575285     11.575285     23.150569
     -2.057057     11.251270     11.251270     22.502541
     -2.047047     11.384609     11.384609     22.769218
     -2.037037     11.774397     11.774397     23.548794
     -2.027027     12.086624     12.086624     24.173248
     -2.017017     11.982419     11.982419     23.964839
     -2.007007     11.255083     11.255083     22.510166
     -1.996997      9.908519      9.908519     19.817037
     -1.986987      8.146438      8.146438     16.292876
     -1.976977      6.290612      6.290612     12.581223
     -1.966967      4.677811      4.677811      9.355622
     -1.956957      3.583206      3.583206      7.166412
     -1.946947      3.189830      3.189830      6.379660
     -1.936937      3.591749      3.591749      7.183497
     -1.926927      4.803730      4.803730      9.607460
     -1.916917      6.758473      6.758473     13.516945
     -1.906907      9.293574      9.293574     18.587148
     -1.896897     12.147145     12.147145     24.294291
     -1.886887     14.981460     14.981460     29.962920
     -1.876877     17.439314     17.439314     34.878628
     -1.866867     19.219400     19.219400     38.438800
     -1.856857     20.146769     20.146769     40.293538
     -1.846847     20.215600     20.215600     40.431200
     -1.836837     19.588940     19.588940     39.177879
     -1.826827     18.549448     18.549448     37.098896
     -1.816817     17.408035     17.408035     34.816071
     -1.806807     16.395846     16.395846     32.791692
     -1.796797     15.581986     15.581986     31.163971
     -1.786787     14.858781     14.858781     29.717561
     -1.776777     14.008603     14.008603     28.017205
     -1.766767     12.822806     12.822806     25.645612
     -1.756757     11.212585     11.212585     22.425171
     -1.746747      9.256696      9.256696     18.513392
     -1.736737      7.169573      7.169573     14.339147
     -1.726727      5.218403      5.218403     10.436806
     -1.716717      3.639501      3.639501      7.279002
     -1.706707      2.592551      2.592551      5.185101
     -1.696697      2.159267      2.159267      4.318534
     -1.686687      2.364508      2.364508      4.729016
     -1.676677      3.189484      3.189484      6.378969
     -1.666667      4.560234      4.560234      9.120467
     -1.656657      6.319331      6.319331     12.638662
     -1.646647      8.209145      8.209145     16.418289
     -1.636637      9.897332      9.897332     19.794664
     -1.626627     11.055733     11.055733     22.111466
