# EIG2DOS: Utility for SIESTA to obtain the electronic density of states
#  E. Artacho, Apr 1999, A. Garcia, Apr 2012
#  Nick R. Papior, Feb 2017
# ------------------------------------------
# Eigenvalues calculated from a non-polarized calculation
# Eigenvalues read from siesta.EIG
# Kpoint weights read from siesta.KP
# Using smearing parameter:   0.0500
# Using 1000 points in the energy range
# Selected bands: 1 to: 2981
# Emin, Emax in file for selected band(s):    -27.2425644    218.3674330
# Nbands, Nspin, Nk   =   2981     1     1
# E_F                 =    -4.2321 eV --> (shifted to ZERO)
# Broadening          =     0.0500 eV
#
#        E            N(up)  (=)   N(down)         Ntot
     -5.000000     31.663340     31.663340     63.326679
     -4.989990     36.195922     36.195922     72.391844
     -4.979980     40.473862     40.473862     80.947725
     -4.969970     43.815627     43.815627     87.631254
     -4.959960     45.617870     45.617870     91.235741
     -4.949950     45.551641     45.551641     91.103282
     -4.939940     43.680180     43.680180     87.360361
     -4.929930     40.460644     40.460644     80.921287
     -4.919920     36.646769     36.646769     73.293537
     -4.909910     33.140611     33.140611     66.281222
     -4.899900     30.833456     30.833456     61.666911
     -4.889890     30.446627     30.446627     60.893254
     -4.879880     32.368517     32.368517     64.737035
     -4.869870     36.505993     36.505993     73.011985
     -4.859860     42.209477     42.209477     84.418954
     -4.849850     48.346860     48.346860     96.693720
     -4.839840     53.558649     53.558649    107.117298
     -4.829830     56.636926     56.636926    113.273852
     -4.819820     56.888458     56.888458    113.776916
     -4.809810     54.327706     54.327706    108.655412
     -4.799800     49.617658     49.617658     99.235316
     -4.789790     43.796249     43.796249     87.592498
     -4.779780     37.921705     37.921705     75.843410
     -4.769770     32.787305     32.787305     65.574610
     -4.759760     28.794820     28.794820     57.589640
     -4.749750     25.984807     25.984807     51.969613
     -4.739740     24.157793     24.157793     48.315587
     -4.729730     23.008960     23.008960     46.017920
     -4.719720     22.227314     22.227314     44.454627
     -4.709710     21.549100     21.549100     43.098200
     -4.699700     20.782296     20.782296     41.564593
     -4.689690     19.826943     19.826943     39.653886
     -4.679680     18.706048     18.706048     37.412096
     -4.669670     17.600315     17.600315     35.200630
     -4.659660     16.859889     16.859889     33.719779
     -4.649650     16.962814     16.962814     33.925628
     -4.639640     18.409081     18.409081     36.818162
     -4.629630     21.570690     21.570690     43.141380
     -4.619620     26.542687     26.542687     53.085374
     -4.609610     33.045020     33.045020     66.090040
     -4.599600     40.412281     40.412281     80.824561
     -4.589590     47.687668     47.687668     95.375336
     -4.579580     53.814158     53.814158    107.628316
     -4.569570     57.888335     57.888335    115.776671
     -4.559560     59.412100     59.412100    118.824199
     -4.549550     58.457361     58.457361    116.914721
     -4.539540     55.668707     55.668707    111.337414
     -4.529530     52.078326     52.078326    104.156653
     -4.519520     48.781935     48.781935     97.563870
     -4.509510     46.589275     46.589275     93.178550
     -4.499499     45.781920     45.781920     91.563841
     -4.489489     46.070089     46.070089     92.140179
     -4.479479     46.756031     46.756031     93.512062
     -4.469469     47.025088     47.025088     94.050176
     -4.459459     46.239006     46.239006     92.478013
     -4.449449     44.120103     44.120103     88.240205
     -4.439439     40.778054     40.778054     81.556108
     -4.429429     36.607320     36.607320     73.214640
     -4.419419     32.132436     32.132436     64.264871
     -4.409409     27.878239     27.878239     55.756478
     -4.399399     24.300059     24.300059     48.600118
     -4.389389     21.757572     21.757572     43.515144
     -4.379379     20.491811     20.491811     40.983623
     -4.369369     20.582170     20.582170     41.164341
     -4.359359     21.900936     21.900936     43.801872
     -4.349349     24.110370     24.110370     48.220739
     -4.339339     26.736366     26.736366     53.472733
     -4.329329     29.309300     29.309300     58.618599
     -4.319319     31.518007     31.518007     63.036014
     -4.309309     33.307765     33.307765     66.615529
     -4.299299     34.875351     34.875351     69.750703
     -4.289289     36.557766     36.557766     73.115531
     -4.279279     38.652672     38.652672     77.305344
     -4.269269     41.234900     41.234900     82.469801
     -4.259259     44.041577     44.041577     88.083154
     -4.249249     46.486304     46.486304     92.972608
     -4.239239     47.823925     47.823925     95.647851
     -4.229229     47.423592     47.423592     94.847184
     -4.219219     45.043525     45.043525     90.087050
     -4.209209     40.977741     40.977741     81.955483
     -4.199199     35.991637     35.991637     71.983273
     -4.189189     31.064602     31.064602     62.129204
     -4.179179     27.056658     27.056658     54.113315
     -4.169169     24.451674     24.451674     48.903348
     -4.159159     23.282240     23.282240     46.564480
     -4.149149     23.244015     23.244015     46.488030
     -4.139139     23.918944     23.918944     47.837887
     -4.129129     24.989601     24.989601     49.979203
     -4.119119     26.347330     26.347330     52.694661
     -4.109109     28.054380     28.054380     56.108760
     -4.099099     30.188617     30.188617     60.377234
     -4.089089     32.656055     32.656055     65.312109
     -4.079079     35.080163     35.080163     70.160326
     -4.069069     36.849527     36.849527     73.699055
     -4.059059     37.327740     37.327740     74.655480
     -4.049049     36.135642     36.135642     72.271285
     -4.039039     33.362866     33.362866     66.725731
     -4.029029     29.593411     29.593411     59.186822
     -4.019019     25.727635     25.727635     51.455270
     -4.009009     22.690207     22.690207     45.380414
     -3.998999     21.163730     21.163730     42.327460
     -3.988989     21.455128     21.455128     42.910255
     -3.978979     23.516621     23.516621     47.033242
     -3.968969     27.064352     27.064352     54.128703
     -3.958959     31.710772     31.710772     63.421545
     -3.948949     37.055740     37.055740     74.111481
     -3.938939     42.731967     42.731967     85.463934
     -3.928929     48.430907     48.430907     96.861814
     -3.918919     53.926811     53.926811    107.853622
     -3.908909     59.086653     59.086653    118.173306
     -3.898899     63.837053     63.837053    127.674107
     -3.888889     68.077828     68.077828    136.155656
     -3.878879     71.574862     71.574862    143.149723
     -3.868869     73.898843     73.898843    147.797687
     -3.858859     74.471126     74.471126    148.942252
     -3.848849     72.729781     72.729781    145.459561
     -3.838839     68.362704     68.362704    136.725407
     -3.828829     61.508230     61.508230    123.016459
     -3.818819     52.825467     52.825467    105.650935
     -3.808809     43.388472     43.388472     86.776944
     -3.798799     34.434177     34.434177     68.868354
     -3.788789     27.054389     27.054389     54.108778
     -3.778779     21.938459     21.938459     43.876919
     -3.768769     19.243797     19.243797     38.487595
     -3.758759     18.618250     18.618250     37.236500
     -3.748749     19.349625     19.349625     38.699249
     -3.738739     20.589420     20.589420     41.178840
     -3.728729     21.590458     21.590458     43.180917
     -3.718719     21.903372     21.903372     43.806743
     -3.708709     21.488019     21.488019     42.976038
     -3.698699     20.711478     20.711478     41.422956
     -3.688689     20.226193     20.226193     40.452386
     -3.678679     20.751369     20.751369     41.502738
     -3.668669     22.813811     22.813811     45.627621
     -3.658659     26.529956     26.529956     53.059913
     -3.648649     31.512185     31.512185     63.024370
     -3.638639     36.947219     36.947219     73.894439
     -3.628629     41.827910     41.827910     83.655820
     -3.618619     45.251125     45.251125     90.502250
     -3.608609     46.663897     46.663897     93.327795
     -3.598599     45.969517     45.969517     91.939035
     -3.588589     43.477708     43.477708     86.955416
     -3.578579     39.751611     39.751611     79.503222
     -3.568569     35.428997     35.428997     70.857994
     -3.558559     31.073877     31.073877     62.147754
     -3.548549     27.078983     27.078983     54.157966
     -3.538539     23.620774     23.620774     47.241547
     -3.528529     20.669380     20.669380     41.338759
     -3.518519     18.055608     18.055608     36.111216
     -3.508509     15.580197     15.580197     31.160395
     -3.498498     13.126090     13.126090     26.252181
     -3.488488     10.726214     10.726214     21.452428
     -3.478478      8.559270      8.559270     17.118540
     -3.468468      6.881664      6.881664     13.763329
     -3.458458      5.930160      5.930160     11.860320
     -3.448448      5.833347      5.833347     11.666695
     -3.438438      6.557306      6.557306     13.114612
     -3.428428      7.897477      7.897477     15.794954
     -3.418418      9.521607      9.521607     19.043214
     -3.408408     11.060925     11.060925     22.121850
     -3.398398     12.230308     12.230308     24.460616
     -3.388388     12.937595     12.937595     25.875190
     -3.378378     13.334577     13.334577     26.669155
     -3.368368     13.781183     13.781183     27.562365
     -3.358358     14.733841     14.733841     29.467683
     -3.348348     16.603920     16.603920     33.207841
     -3.338338     19.638138     19.638138     39.276276
     -3.328328     23.848382     23.848382     47.696764
     -3.318318     28.987059     28.987059     57.974118
     -3.308308     34.554035     34.554035     69.108070
     -3.298298     39.837681     39.837681     79.675363
     -3.288288     44.011337     44.011337     88.022674
     -3.278278     46.297011     46.297011     92.594022
     -3.268268     46.166192     46.166192     92.332383
     -3.258258     43.504595     43.504595     87.009189
     -3.248248     38.663799     38.663799     77.327597
     -3.238238     32.369443     32.369443     64.738886
     -3.228228     25.523933     25.523933     51.047866
     -3.218218     18.986855     18.986855     37.973711
     -3.208208     13.414080     13.414080     26.828159
     -3.198198      9.196193      9.196193     18.392387
     -3.188188      6.487485      6.487485     12.974970
     -3.178178      5.283837      5.283837     10.567673
     -3.168168      5.501528      5.501528     11.003056
     -3.158158      7.024548      7.024548     14.049096
     -3.148148      9.713157      9.713157     19.426315
     -3.138138     13.387327     13.387327     26.774653
     -3.128128     17.805744     17.805744     35.611487
     -3.118118     22.654465     22.654465     45.308929
     -3.108108     27.548778     27.548778     55.097557
     -3.098098     32.048863     32.048863     64.097727
     -3.088088     35.695679     35.695679     71.391359
     -3.078078     38.076329     38.076329     76.152657
     -3.068068     38.914700     38.914700     77.829400
     -3.058058     38.156538     38.156538     76.313075
     -3.048048     36.000725     36.000725     72.001450
     -3.038038     32.844100     32.844100     65.688200
     -3.028028     29.154470     29.154470     58.308940
     -3.018018     25.334117     25.334117     50.668234
     -3.008008     21.646089     21.646089     43.292179
     -2.997998     18.236772     18.236772     36.473545
     -2.987988     15.227757     15.227757     30.455514
     -2.977978     12.810534     12.810534     25.621068
     -2.967968     11.282492     11.282492     22.564985
     -2.957958     11.001143     11.001143     22.002285
     -2.947948     12.275475     12.275475     24.550951
     -2.937938     15.237038     15.237038     30.474076
     -2.927928     19.736934     19.736934     39.473869
     -2.917918     25.307671     25.307671     50.615342
     -2.907908     31.215091     31.215091     62.430182
     -2.897898     36.602460     36.602460     73.204919
     -2.887888     40.695190     40.695190     81.390381
     -2.877878     43.001828     43.001828     86.003657
     -2.867868     43.434779     43.434779     86.869559
     -2.857858     42.297333     42.297333     84.594666
     -2.847848     40.137503     40.137503     80.275006
     -2.837838     37.529481     37.529481     75.058963
     -2.827828     34.878181     34.878181     69.756362
     -2.817818     32.330619     32.330619     64.661238
     -2.807808     29.823642     29.823642     59.647284
     -2.797798     27.228398     27.228398     54.456795
     -2.787788     24.504995     24.504995     49.009990
     -2.777778     21.781494     21.781494     43.562987
     -2.767768     19.318862     19.318862     38.637725
     -2.757758     17.390796     17.390796     34.781592
     -2.747748     16.155799     16.155799     32.311597
     -2.737738     15.600480     15.600480     31.200960
     -2.727728     15.586201     15.586201     31.172402
     -2.717718     15.963917     15.963917     31.927834
     -2.707708     16.676589     16.676589     33.353178
     -2.697698     17.775919     17.775919     35.551839
     -2.687688     19.338710     19.338710     38.677421
     -2.677678     21.340638     21.340638     42.681277
     -2.667668     23.581443     23.581443     47.162887
     -2.657658     25.726600     25.726600     51.453200
     -2.647648     27.452358     27.452358     54.904716
     -2.637638     28.606864     28.606864     57.213728
     -2.627628     29.283831     29.283831     58.567662
     -2.617618     29.760697     29.760697     59.521393
     -2.607608     30.341307     30.341307     60.682614
     -2.597598     31.200050     31.200050     62.400101
     -2.587588     32.311129     32.311129     64.622257
     -2.577578     33.479598     33.479598     66.959197
     -2.567568     34.426308     34.426308     68.852616
     -2.557558     34.865186     34.865186     69.730372
     -2.547548     34.548951     34.548951     69.097902
     -2.537538     33.304896     33.304896     66.609792
     -2.527528     31.090785     31.090785     62.181570
     -2.517518     28.066317     28.066317     56.132635
     -2.507508     24.633819     24.633819     49.267639
     -2.497497     21.395047     21.395047     42.790095
     -2.487487     19.010005     19.010005     38.020010
     -2.477477     18.001449     18.001449     36.002898
     -2.467467     18.586041     18.586041     37.172082
     -2.457457     20.607808     20.607808     41.215616
     -2.447447     23.606512     23.606512     47.213024
     -2.437437     26.994712     26.994712     53.989423
     -2.427427     30.268608     30.268608     60.537217
     -2.417417     33.160377     33.160377     66.320754
     -2.407407     35.663730     35.663730     71.327460
     -2.397397     37.922714     37.922714     75.845428
     -2.387387     40.040922     40.040922     80.081845
     -2.377377     41.911376     41.911376     83.822753
     -2.367367     43.162501     43.162501     86.325002
     -2.357357     43.261761     43.261761     86.523522
     -2.347347     41.739565     41.739565     83.479130
     -2.337337     38.431435     38.431435     76.862870
     -2.327327     33.621948     33.621948     67.243896
     -2.317317     28.020146     28.020146     56.040291
     -2.307307     22.577878     22.577878     45.155755
     -2.297297     18.232956     18.232956     36.465911
     -2.287287     15.680167     15.680167     31.360333
     -2.277277     15.241884     15.241884     30.483768
     -2.267267     16.854766     16.854766     33.709532
     -2.257257     20.144655     20.144655     40.289311
     -2.247247     24.544650     24.544650     49.089300
     -2.237237     29.416076     29.416076     58.832151
     -2.227227     34.145384     34.145384     68.290768
     -2.217217     38.204258     38.204258     76.408515
     -2.207207     41.174968     41.174968     82.349937
     -2.197197     42.757337     42.757337     85.514674
     -2.187187     42.780655     42.780655     85.561310
     -2.177177     41.234770     41.234770     82.469540
     -2.167167     38.309186     38.309186     76.618372
     -2.157157     34.403103     34.403103     68.806207
     -2.147147     30.066789     30.066789     60.133577
     -2.137137     25.867323     25.867323     51.734646
     -2.127127     22.223568     22.223568     44.447136
     -2.117117     19.288620     19.288620     38.577240
     -2.107107     16.943085     16.943085     33.886170
     -2.097097     14.903659     14.903659     29.807319
     -2.087087     12.887202     12.887202     25.774403
     -2.077077     10.744176     10.744176     21.488351
     -2.067067      8.502037      8.502037     17.004075
     -2.057057      6.316313      6.316313     12.632625
     -2.047047      4.374953      4.374953      8.749906
     -2.037037      2.813446      2.813446      5.626891
     -2.027027      1.676064      1.676064      3.352129
     -2.017017      0.925074      0.925074      1.850148
     -2.007007      0.477088      0.477088      0.954177
     -1.996997      0.242502      0.242502      0.485004
     -1.986987      0.153930      0.153930      0.307859
     -1.976977      0.181832      0.181832      0.363665
     -1.966967      0.342254      0.342254      0.684508
     -1.956957      0.701264      0.701264      1.402528
     -1.946947      1.375822      1.375822      2.751644
     -1.936937      2.525349      2.525349      5.050697
     -1.926927      4.326115      4.326115      8.652230
     -1.916917      6.924120      6.924120     13.848239
     -1.906907     10.371371     10.371371     20.742743
     -1.896897     14.562123     14.562123     29.124247
     -1.886887     19.194118     19.194118     38.388237
     -1.876877     23.780163     23.780163     47.560325
     -1.866867     27.724630     27.724630     55.449261
     -1.856857     30.458299     30.458299     60.916598
     -1.846847     31.597675     31.597675     63.195349
     -1.836837     31.072060     31.072060     62.144120
     -1.826827     29.158486     29.158486     58.316972
     -1.816817     26.393279     26.393279     52.786559
     -1.806807     23.384265     23.384265     46.768530
     -1.796797     20.601901     20.601901     41.203802
     -1.786787     18.244953     18.244953     36.489905
     -1.776777     16.239637     16.239637     32.479274
     -1.766767     14.359449     14.359449     28.718897
     -1.756757     12.390841     12.390841     24.781682
     -1.746747     10.255862     10.255862     20.511725
     -1.736737      8.041036      8.041036     16.082072
     -1.726727      5.941846      5.941846     11.883693
     -1.716717      4.174088      4.174088      8.348175
     -1.706707      2.905788      2.905788      5.811577
     -1.696697      2.234349      2.234349      4.468697
     -1.686687      2.198171      2.198171      4.396342
     -1.676677      2.793080      2.793080      5.586160
     -1.666667      3.969001      3.969001      7.938001
     -1.656657      5.604561      5.604561     11.209122
     -1.646647      7.481318      7.481318     14.962635
     -1.636637      9.289863      9.289863     18.579727
     -1.626627     10.688715     10.688715     21.377429
