# EIG2DOS: Utility for SIESTA to obtain the electronic density of states
#  E. Artacho, Apr 1999, A. Garcia, Apr 2012
#  Nick R. Papior, Feb 2017
# ------------------------------------------
# Eigenvalues calculated from a non-polarized calculation
# Eigenvalues read from siesta.EIG
# Kpoint weights read from siesta.KP
# Using smearing parameter:   0.0500
# Using 1000 points in the energy range
# Selected bands: 1 to: 2981
# Emin, Emax in file for selected band(s):    -27.0771563    218.3328090
# Nbands, Nspin, Nk   =   2981     1     1
# E_F                 =    -4.2774 eV --> (shifted to ZERO)
# Broadening          =     0.0500 eV
#
#        E            N(up)  (=)   N(down)         Ntot
     -5.000000     35.236412     35.236412     70.472823
     -4.989990     38.074597     38.074597     76.149193
     -4.979980     40.753618     40.753618     81.507236
     -4.969970     42.742656     42.742656     85.485313
     -4.959960     43.597590     43.597590     87.195179
     -4.949950     43.089661     43.089661     86.179322
     -4.939940     41.273921     41.273921     82.547842
     -4.929930     38.487871     38.487871     76.975741
     -4.919920     35.297383     35.297383     70.594767
     -4.909910     32.414950     32.414950     64.829901
     -4.899900     30.600701     30.600701     61.201402
     -4.889890     30.535024     30.535024     61.070047
     -4.879880     32.650231     32.650231     65.300462
     -4.869870     36.943232     36.943232     73.886465
     -4.859860     42.844217     42.844217     85.688433
     -4.849850     49.241754     49.241754     98.483508
     -4.839840     54.722071     54.722071    109.444141
     -4.829830     57.975231     57.975231    115.950463
     -4.819820     58.213792     58.213792    116.427584
     -4.809810     55.416879     55.416879    110.833758
     -4.799800     50.288489     50.288489    100.576979
     -4.789790     43.961961     43.961961     87.923922
     -4.779780     37.602929     37.602929     75.205859
     -4.769770     32.088122     32.088122     64.176244
     -4.759760     27.864246     27.864246     55.728492
     -4.749750     24.981931     24.981931     49.963862
     -4.739740     23.226247     23.226247     46.452494
     -4.729730     22.257522     22.257522     44.515045
     -4.719720     21.713049     21.713049     43.426098
     -4.709710     21.262780     21.262780     42.525560
     -4.699700     20.636543     20.636543     41.273087
     -4.689690     19.645155     19.645155     39.290311
     -4.679680     18.210283     18.210283     36.420567
     -4.669670     16.403450     16.403450     32.806900
     -4.659660     14.478686     14.478686     28.957373
     -4.649650     12.874182     12.874182     25.748364
     -4.639640     12.161915     12.161915     24.323831
     -4.629630     12.938819     12.938819     25.877638
     -4.619620     15.671631     15.671631     31.343262
     -4.609610     20.526128     20.526128     41.052257
     -4.599600     27.229551     27.229551     54.459102
     -4.589590     35.027498     35.027498     70.054997
     -4.579580     42.788354     42.788354     85.576707
     -4.569570     49.265517     49.265517     98.531034
     -4.559560     53.457011     53.457011    106.914022
     -4.549550     54.937580     54.937580    109.875159
     -4.539540     54.023213     54.023213    108.046427
     -4.529530     51.682421     51.682421    103.364842
     -4.519520     49.211594     49.211594     98.423189
     -4.509510     47.792357     47.792357     95.584713
     -4.499499     48.097103     48.097103     96.194206
     -4.489489     50.084857     50.084857    100.169714
     -4.479479     53.049538     53.049538    106.099076
     -4.469469     55.885826     55.885826    111.771651
     -4.459459     57.463659     57.463659    114.927319
     -4.449449     56.975761     56.975761    113.951521
     -4.439439     54.147844     54.147844    108.295688
     -4.429429     49.264396     49.264396     98.528793
     -4.419419     43.035994     43.035994     86.071989
     -4.409409     36.384471     36.384471     72.768943
     -4.399399     30.228881     30.228881     60.457762
     -4.389389     25.323183     25.323183     50.646367
     -4.379379     22.154840     22.154840     44.309679
     -4.369369     20.892557     20.892557     41.785113
     -4.359359     21.378659     21.378659     42.757317
     -4.349349     23.177350     23.177350     46.354699
     -4.339339     25.688576     25.688576     51.377153
     -4.329329     28.311505     28.311505     56.623010
     -4.319319     30.609977     30.609977     61.219953
     -4.309309     32.420653     32.420653     64.841307
     -4.299299     33.863552     33.863552     67.727104
     -4.289289     35.252273     35.252273     70.504546
     -4.279279     36.935721     36.935721     73.871442
     -4.269269     39.122010     39.122010     78.244020
     -4.259259     41.740568     41.740568     83.481136
     -4.249249     44.395360     44.395360     88.790719
     -4.239239     46.445724     46.445724     92.891447
     -4.229229     47.211030     47.211030     94.422061
     -4.219219     46.235203     46.235203     92.470407
     -4.209209     43.498060     43.498060     86.996121
     -4.199199     39.464080     39.464080     78.928160
     -4.189189     34.930598     34.930598     69.861196
     -4.179179     30.741750     30.741750     61.483501
     -4.169169     27.506213     27.506213     55.012427
     -4.159159     25.448984     25.448984     50.897968
     -4.149149     24.448030     24.448030     48.896059
     -4.139139     24.209174     24.209174     48.418348
     -4.129129     24.473026     24.473026     48.946052
     -4.119119     25.148185     25.148185     50.296370
     -4.109109     26.311619     26.311619     52.623238
     -4.099099     28.082808     28.082808     56.165615
     -4.089089     30.439360     30.439360     60.878721
     -4.079079     33.077829     33.077829     66.155658
     -4.069069     35.413912     35.413912     70.827825
     -4.059059     36.752896     36.752896     73.505792
     -4.049049     36.566832     36.566832     73.133665
     -4.039039     34.743297     34.743297     69.486595
     -4.029029     31.673052     31.673052     63.346104
     -4.019019     28.127489     28.127489     56.254977
     -4.009009     24.991291     24.991291     49.982583
     -3.998999     22.987533     22.987533     45.975066
     -3.988989     22.518074     22.518074     45.036147
     -3.978979     23.658963     23.658963     47.317925
     -3.968969     26.260316     26.260316     52.520632
     -3.958959     30.061675     30.061675     60.123350
     -3.948949     34.761748     34.761748     69.523497
     -3.938939     40.041324     40.041324     80.082649
     -3.928929     45.577934     45.577934     91.155868
     -3.918919     51.082465     51.082465    102.164931
     -3.908909     56.346395     56.346395    112.692790
     -3.898899     61.255364     61.255364    122.510729
     -3.888889     65.732945     65.732945    131.465889
     -3.878879     69.625594     69.625594    139.251188
     -3.868869     72.592840     72.592840    145.185679
     -3.858859     74.086187     74.086187    148.172373
     -3.848849     73.467056     73.467056    146.934112
     -3.838839     70.241406     70.241406    140.482812
     -3.828829     64.316013     64.316013    128.632025
     -3.818819     56.152617     56.152617    112.305234
     -3.808809     46.733007     46.733007     93.466014
     -3.798799     37.333355     37.333355     74.666709
     -3.788789     29.192464     29.192464     58.384929
     -3.778779     23.199171     23.199171     46.398341
     -3.768769     19.703307     19.703307     39.406615
     -3.758759     18.494183     18.494183     36.988367
     -3.748749     18.928195     18.928195     37.856390
     -3.738739     20.149635     20.149635     40.299270
     -3.728729     21.339201     21.339201     42.678401
     -3.718719     21.931665     21.931665     43.863329
     -3.708709     21.756320     21.756320     43.512641
     -3.698699     21.067979     21.067979     42.135958
     -3.688689     20.455660     20.455660     40.911320
     -3.678679     20.643833     20.643833     41.287665
     -3.668669     22.234853     22.234853     44.469706
     -3.658659     25.470864     25.470864     50.941728
     -3.648649     30.102106     30.102106     60.204212
     -3.638639     35.421586     35.421586     70.843172
     -3.628629     40.464044     40.464044     80.928088
     -3.618619     44.295007     44.295007     88.590014
     -3.608609     46.273935     46.273935     92.547870
     -3.598599     46.192575     46.192575     92.385150
     -3.588589     44.256904     44.256904     88.513808
     -3.578579     40.954492     40.954492     81.908984
     -3.568569     36.883468     36.883468     73.766935
     -3.558559     32.604001     32.604001     65.208002
     -3.548549     28.536475     28.536475     57.072951
     -3.538539     24.907629     24.907629     49.815257
     -3.528529     21.745945     21.745945     43.491890
     -3.518519     18.931201     18.931201     37.862402
     -3.508509     16.290341     16.290341     32.580683
     -3.498498     13.706800     13.706800     27.413601
     -3.488488     11.196423     11.196423     22.392846
     -3.478478      8.916992      8.916992     17.833984
     -3.468468      7.112091      7.112091     14.224181
     -3.458458      6.019385      6.019385     12.038770
     -3.448448      5.781224      5.781224     11.562447
     -3.438438      6.385023      6.385023     12.770046
     -3.428428      7.647382      7.647382     15.294764
     -3.418418      9.248162      9.248162     18.496323
     -3.408408     10.813866     10.813866     21.627732
     -3.398398     12.034582     12.034582     24.069163
     -3.388388     12.777605     12.777605     25.555210
     -3.378378     13.149673     13.149673     26.299346
     -3.368368     13.474109     13.474109     26.948217
     -3.358358     14.186872     14.186872     28.373744
     -3.348348     15.693553     15.693553     31.387107
     -3.338338     18.241504     18.241504     36.483007
     -3.328328     21.841176     21.841176     43.682351
     -3.318318     26.238728     26.238728     52.477455
     -3.308308     30.927512     30.927512     61.855024
     -3.298298     35.199090     35.199090     70.398180
     -3.288288     38.253125     38.253125     76.506251
     -3.278278     39.376305     39.376305     78.752610
     -3.268268     38.154653     38.154653     76.309306
     -3.258258     34.634174     34.634174     69.268348
     -3.248248     29.340959     29.340959     58.681918
     -3.238238     23.131855     23.131855     46.263710
     -3.228228     16.935342     16.935342     33.870683
     -3.218218     11.497845     11.497845     22.995690
     -3.208208      7.237194      7.237194     14.474388
     -3.198198      4.238465      4.238465      8.476930
     -3.188188      2.357441      2.357441      4.714882
     -3.178178      1.363756      1.363756      2.727511
     -3.168168      1.065406      1.065406      2.130813
     -3.158158      1.386429      1.386429      2.772858
     -3.148148      2.394122      2.394122      4.788244
     -3.138138      4.279939      4.279939      8.559877
     -3.128128      7.295141      7.295141     14.590281
     -3.118118     11.642668     11.642668     23.285335
     -3.108108     17.340710     17.340710     34.681419
     -3.098098     24.098882     24.098882     48.197764
     -3.088088     31.268433     31.268433     62.536866
     -3.078078     37.921211     37.921211     75.842422
     -3.068068     43.066304     43.066304     86.132609
     -3.058058     45.942213     45.942213     91.884426
     -3.048048     46.265931     46.265931     92.531861
     -3.038038     44.321139     44.321139     88.642277
     -3.028028     40.837711     40.837711     81.675422
     -3.018018     36.718235     36.718235     73.436470
     -3.008008     32.741512     32.741512     65.483024
     -2.997998     29.373389     29.373389     58.746779
     -2.987988     26.747482     26.747482     53.494965
     -2.977978     24.789665     24.789665     49.579330
     -2.967968     23.400561     23.400561     46.801122
     -2.957958     22.600228     22.600228     45.200455
     -2.947948     22.569280     22.569280     45.138560
     -2.937938     23.570572     23.570572     47.141143
     -2.927928     25.788005     25.788005     51.576010
     -2.917918     29.158909     29.158909     58.317818
     -2.907908     33.286945     33.286945     66.573891
     -2.897898     37.492740     37.492740     74.985480
     -2.887888     40.997012     40.997012     81.994024
     -2.877878     43.164738     43.164738     86.329477
     -2.867868     43.704485     43.704485     87.408971
     -2.857858     42.734768     42.734768     85.469535
     -2.847848     40.691286     40.691286     81.382572
     -2.837838     38.123264     38.123264     76.246527
     -2.827828     35.476326     35.476326     70.952653
     -2.817818     32.959710     32.959710     65.919420
     -2.807808     30.548508     30.548508     61.097017
     -2.797798     28.102094     28.102094     56.204188
     -2.787788     25.523276     25.523276     51.046552
     -2.777778     22.867750     22.867750     45.735501
     -2.767768     20.346857     20.346857     40.693715
     -2.757758     18.230003     18.230003     36.460005
     -2.747748     16.711055     16.711055     33.422110
     -2.737738     15.822571     15.822571     31.645142
     -2.727728     15.450574     15.450574     30.901147
     -2.717718     15.438413     15.438413     30.876826
     -2.707708     15.709843     15.709843     31.419686
     -2.697698     16.326644     16.326644     32.653288
     -2.687688     17.436976     17.436976     34.873952
     -2.677678     19.143295     19.143295     38.286591
     -2.667668     21.376258     21.376258     42.752516
     -2.657658     23.863531     23.863531     47.727062
     -2.647648     26.224474     26.224474     52.448949
     -2.637638     28.139329     28.139329     56.278659
     -2.627628     29.490472     29.490472     58.980944
     -2.617618     30.390276     30.390276     60.780551
     -2.607608     31.084631     31.084631     62.169262
     -2.597598     31.800033     31.800033     63.600065
     -2.587588     32.628769     32.628769     65.257537
     -2.577578     33.505664     33.505664     67.011327
     -2.567568     34.259207     34.259207     68.518413
     -2.557558     34.678601     34.678601     69.357201
     -2.547548     34.554808     34.554808     69.109617
     -2.537538     33.703034     33.703034     67.406069
     -2.527528     32.003638     32.003638     64.007276
     -2.517518     29.478284     29.478284     58.956569
     -2.507508     26.368008     26.368008     52.736015
     -2.497497     23.148863     23.148863     46.297726
     -2.487487     20.441339     20.441339     40.882678
     -2.477477     18.830111     18.830111     37.660222
     -2.467467     18.668402     18.668402     37.336803
     -2.457457     19.958190     19.958190     39.916381
     -2.447447     22.364902     22.364902     44.729804
     -2.437437     25.362405     25.362405     50.724810
     -2.427427     28.442858     28.442858     56.885715
     -2.417417     31.294517     31.294517     62.589034
     -2.407407     33.864448     33.864448     67.728896
     -2.397397     36.277928     36.277928     72.555856
     -2.387387     38.657710     38.657710     77.315420
     -2.377377     40.938975     40.938975     81.877949
     -2.367367     42.782010     42.782010     85.564020
     -2.357357     43.639410     43.639410     87.278821
     -2.347347     42.959001     42.959001     85.918002
     -2.337337     40.434664     40.434664     80.869328
     -2.327327     36.189914     36.189914     72.379829
     -2.317317     30.808615     30.808615     61.617231
     -2.307307     25.198496     25.198496     50.396992
     -2.297297     20.347471     20.347471     40.694943
     -2.287287     17.070969     17.070969     34.141939
     -2.277277     15.836123     15.836123     31.672246
     -2.267267     16.702646     16.702646     33.405291
     -2.257257     19.371622     19.371622     38.743245
     -2.247247     23.303935     23.303935     46.607871
     -2.237237     27.861839     27.861839     55.723678
     -2.227227     32.432181     32.432181     64.864363
     -2.217217     36.502518     36.502518     73.005036
     -2.207207     39.681968     39.681968     79.363936
     -2.197197     41.684475     41.684475     83.368951
     -2.187187     42.311321     42.311321     84.622642
     -2.177177     41.466521     41.466521     82.933041
     -2.167167     39.208444     39.208444     78.416888
     -2.157157     35.800475     35.800475     71.600951
     -2.147147     31.703984     31.703984     63.407969
     -2.137137     27.480388     27.480388     54.960775
     -2.127127     23.626430     23.626430     47.252860
     -2.117117     20.419016     20.419016     40.838032
     -2.107107     17.852282     17.852282     35.704564
     -2.097097     15.700929     15.700929     31.401859
     -2.087087     13.671814     13.671814     27.343627
     -2.077077     11.559220     11.559220     23.118439
     -2.067067      9.326972      9.326972     18.653944
     -2.057057      7.091825      7.091825     14.183649
     -2.047047      5.039175      5.039175     10.078350
     -2.037037      3.329052      3.329052      6.658104
     -2.027027      2.038829      2.038829      4.077658
     -2.017017      1.156600      1.156600      2.313200
     -2.007007      0.610622      0.610622      1.221243
     -1.996997      0.309914      0.309914      0.619828
     -1.986987      0.177433      0.177433      0.354867
     -1.976977      0.169649      0.169649      0.339297
     -1.966967      0.285217      0.285217      0.570434
     -1.956957      0.567188      0.567188      1.134375
     -1.946947      1.099487      1.099487      2.198975
     -1.936937      1.993834      1.993834      3.987669
     -1.926927      3.362144      3.362144      6.724287
     -1.916917      5.274537      5.274537     10.549073
     -1.906907      7.712871      7.712871     15.425742
     -1.896897     10.538477     10.538477     21.076955
     -1.886887     13.493252     13.493252     26.986504
     -1.876877     16.242351     16.242351     32.484701
     -1.866867     18.449442     18.449442     36.898884
     -1.856857     19.861599     19.861599     39.723198
     -1.846847     20.377167     20.377167     40.754334
     -1.836837     20.075262     20.075262     40.150525
     -1.826827     19.195038     19.195038     38.390077
     -1.816817     18.065105     18.065105     36.130209
     -1.806807     17.000653     17.000653     34.001307
     -1.796797     16.204972     16.204972     32.409943
     -1.786787     15.719879     15.719879     31.439757
     -1.776777     15.451933     15.451933     30.903866
     -1.766767     15.260120     15.260120     30.520240
     -1.756757     15.051076     15.051076     30.102153
     -1.746747     14.821144     14.821144     29.642287
     -1.736737     14.621005     14.621005     29.242009
     -1.726727     14.474951     14.474951     28.949902
     -1.716717     14.321239     14.321239     28.642479
     -1.706707     14.025582     14.025582     28.051164
     -1.696697     13.466150     13.466150     26.932301
     -1.686687     12.634661     12.634661     25.269322
     -1.676677     11.682444     11.682444     23.364887
     -1.666667     10.872817     10.872817     21.745635
     -1.656657     10.458498     10.458498     20.916997
     -1.646647     10.548344     10.548344     21.096689
     -1.636637     11.035709     11.035709     22.071418
     -1.626627     11.629377     11.629377     23.258754
