# EIG2DOS: Utility for SIESTA to obtain the electronic density of states
#  E. Artacho, Apr 1999, A. Garcia, Apr 2012
#  Nick R. Papior, Feb 2017
# ------------------------------------------
# Eigenvalues calculated from a non-polarized calculation
# Eigenvalues read from siesta.EIG
# Kpoint weights read from siesta.KP
# Using smearing parameter:   0.0500
# Using 1000 points in the energy range
# Selected bands: 1 to: 2981
# Emin, Emax in file for selected band(s):    -27.0855086    218.3505840
# Nbands, Nspin, Nk   =   2981     1     1
# E_F                 =    -4.2559 eV --> (shifted to ZERO)
# Broadening          =     0.0500 eV
#
#        E            N(up)  (=)   N(down)         Ntot
     -5.000000     34.189129     34.189129     68.378257
     -4.989990     37.956240     37.956240     75.912481
     -4.979980     41.278957     41.278957     82.557915
     -4.969970     43.576077     43.576077     87.152154
     -4.959960     44.423491     44.423491     88.846982
     -4.949950     43.672174     43.672174     87.344347
     -4.939940     41.493260     41.493260     82.986521
     -4.929930     38.346264     38.346264     76.692527
     -4.919920     34.897627     34.897627     69.795254
     -4.909910     31.921538     31.921538     63.843076
     -4.899900     30.193140     30.193140     60.386281
     -4.889890     30.359291     30.359291     60.718582
     -4.879880     32.774256     32.774256     65.548512
     -4.869870     37.327681     37.327681     74.655362
     -4.859860     43.344034     43.344034     86.688068
     -4.849850     49.647747     49.647747     99.295494
     -4.839840     54.833798     54.833798    109.667595
     -4.829830     57.676878     57.676878    115.353756
     -4.819820     57.518498     57.518498    115.036997
     -4.809810     54.459078     54.459078    108.918156
     -4.799800     49.270228     49.270228     98.540455
     -4.789790     43.080740     43.080740     86.161481
     -4.779780     36.992557     36.992557     73.985113
     -4.769770     31.791172     31.791172     63.582344
     -4.759760     27.836830     27.836830     55.673660
     -4.749750     25.120113     25.120113     50.240225
     -4.739740     23.401691     23.401691     46.803382
     -4.729730     22.352899     22.352899     44.705799
     -4.719720     21.650024     21.650024     43.300049
     -4.709710     21.016555     21.016555     42.033111
     -4.699700     20.233869     20.233869     40.467738
     -4.689690     19.148682     19.148682     38.297364
     -4.679680     17.698087     17.698087     35.396174
     -4.669670     15.954119     15.954119     31.908239
     -4.659660     14.167977     14.167977     28.335954
     -4.649650     12.781509     12.781509     25.563018
     -4.639640     12.378051     12.378051     24.756102
     -4.629630     13.563250     13.563250     27.126501
     -4.619620     16.790646     16.790646     33.581293
     -4.609610     22.171562     22.171562     44.343124
     -4.599600     29.331813     29.331813     58.663626
     -4.589590     37.389263     37.389263     74.778526
     -4.579580     45.107257     45.107257     90.214514
     -4.569570     51.217685     51.217685    102.435371
     -4.559560     54.821267     54.821267    109.642535
     -4.549550     55.708980     55.708980    111.417961
     -4.539540     54.455191     54.455191    108.910382
     -4.529530     52.219974     52.219974    104.439947
     -4.519520     50.325302     50.325302    100.650604
     -4.509510     49.771657     49.771657     99.543314
     -4.499499     50.887396     50.887396    101.774792
     -4.489489     53.243617     53.243617    106.487233
     -4.479479     55.853333     55.853333    111.706666
     -4.469469     57.558193     57.558193    115.116386
     -4.459459     57.438452     57.438452    114.876903
     -4.449449     55.089606     55.089606    110.179213
     -4.439439     50.684172     50.684172    101.368344
     -4.429429     44.839287     44.839287     89.678574
     -4.419419     38.387100     38.387100     76.774200
     -4.409409     32.158897     32.158897     64.317794
     -4.399399     26.848280     26.848280     53.696560
     -4.389389     22.952355     22.952355     45.904711
     -4.379379     20.749728     20.749728     41.499456
     -4.369369     20.281623     20.281623     40.563246
     -4.359359     21.340113     21.340113     42.680225
     -4.349349     23.496486     23.496486     46.992972
     -4.339339     26.195814     26.195814     52.391628
     -4.329329     28.905369     28.905369     57.810737
     -4.319319     31.265027     31.265027     62.530053
     -4.309309     33.176910     33.176910     66.353821
     -4.299299     34.795974     34.795974     69.591947
     -4.289289     36.425172     36.425172     72.850343
     -4.279279     38.353729     38.353729     76.707458
     -4.269269     40.693212     40.693212     81.386424
     -4.259259     43.267412     43.267412     86.534825
     -4.249249     45.603795     45.603795     91.207590
     -4.239239     47.051628     47.051628     94.103255
     -4.229229     47.006911     47.006911     94.013822
     -4.219219     45.166178     45.166178     90.332355
     -4.209209     41.694187     41.694187     83.388374
     -4.199199     37.211649     37.211649     74.423299
     -4.189189     32.591965     32.591965     65.183929
     -4.179179     28.656576     28.656576     57.313151
     -4.169169     25.912954     25.912954     51.825908
     -4.159159     24.452222     24.452222     48.904444
     -4.149149     24.034643     24.034643     48.069285
     -4.139139     24.296908     24.296908     48.593816
     -4.129129     24.965583     24.965583     49.931166
     -4.119119     25.971752     25.971752     51.943503
     -4.109109     27.417102     27.417102     54.834204
     -4.099099     29.414370     29.414370     58.828739
     -4.089089     31.888932     31.888932     63.777865
     -4.079079     34.457738     34.457738     68.915475
     -4.069069     36.475069     36.475069     72.950139
     -4.059059     37.252053     37.252053     74.504106
     -4.049049     36.355466     36.355466     72.710932
     -4.039039     33.833348     33.833348     67.666697
     -4.029029     30.244501     30.244501     60.489001
     -4.019019     26.474226     26.474226     52.948452
     -4.009009     23.433719     23.433719     46.867437
     -3.998999     21.792288     21.792288     43.584575
     -3.988989     21.852760     21.852760     43.705521
     -3.978979     23.585639     23.585639     47.171277
     -3.968969     26.753764     26.753764     53.507528
     -3.958959     31.036083     31.036083     62.072167
     -3.948949     36.097809     36.097809     72.195618
     -3.938939     41.613626     41.613626     83.227251
     -3.928929     47.282113     47.282113     94.564226
     -3.918919     52.854449     52.854449    105.708897
     -3.908909     58.160925     58.160925    116.321851
     -3.898899     63.096127     63.096127    126.192253
     -3.888889     67.542596     67.542596    135.085192
     -3.878879     71.261806     71.261806    142.523612
     -3.868869     73.822477     73.822477    147.644955
     -3.858859     74.635615     74.635615    149.271230
     -3.848849     73.116721     73.116721    146.233441
     -3.838839     68.924315     68.924315    137.848631
     -3.828829     62.171545     62.171545    124.343091
     -3.818819     53.506468     53.506468    107.012936
     -3.808809     44.010019     44.010019     88.020039
     -3.798799     34.940656     34.940656     69.881313
     -3.788789     27.418753     27.418753     54.837507
     -3.778779     22.161367     22.161367     44.322735
     -3.768769     19.347326     19.347326     38.694653
     -3.758759     18.637397     18.637397     37.274794
     -3.748749     19.323998     19.323998     38.647996
     -3.738739     20.556312     20.556312     41.112624
     -3.728729     21.579645     21.579645     43.159291
     -3.718719     21.933672     21.933672     43.867344
     -3.708709     21.565566     21.565566     43.131131
     -3.698699     20.829566     20.829566     41.659132
     -3.688689     20.366494     20.366494     40.732987
     -3.678679     20.886413     20.886413     41.772827
     -3.668669     22.911039     22.911039     45.822078
     -3.658659     26.557795     26.557795     53.115589
     -3.648649     31.448031     31.448031     62.896061
     -3.638639     36.785738     36.785738     73.571476
     -3.628629     41.586533     41.586533     83.173066
     -3.618619     44.969432     44.969432     89.938864
     -3.608609     46.395450     46.395450     92.790901
     -3.598599     45.768023     45.768023     91.536045
     -3.588589     43.382277     43.382277     86.764554
     -3.578579     39.776616     39.776616     79.553232
     -3.568569     35.562090     35.562090     71.124180
     -3.558559     31.282212     31.282212     62.564425
     -3.548549     27.320493     27.320493     54.640986
     -3.538539     23.855934     23.855934     47.711868
     -3.528529     20.869676     20.869676     41.739352
     -3.518519     18.207016     18.207016     36.414032
     -3.508509     15.682167     15.682167     31.364335
     -3.498498     13.187818     13.187818     26.375636
     -3.488488     10.762151     10.762151     21.524303
     -3.478478      8.585175      8.585175     17.170351
     -3.468468      6.911592      6.911592     13.823184
     -3.458458      5.974145      5.974145     11.948289
     -3.448448      5.895422      5.895422     11.790844
     -3.438438      6.633901      6.633901     13.267803
     -3.428428      7.976861      7.976861     15.953722
     -3.418418      9.585260      9.585260     19.170519
     -3.408408     11.087283     11.087283     22.174566
     -3.398398     12.200243     12.200243     24.400486
     -3.388388     12.839966     12.839966     25.679931
     -3.378378     13.169664     13.169664     26.339328
     -3.368368     13.559705     13.559705     27.119410
     -3.358358     14.469131     14.469131     28.938263
     -3.348348     16.294748     16.294748     32.589497
     -3.338338     19.240939     19.240939     38.481878
     -3.328328     23.242016     23.242016     46.484032
     -3.318318     27.940981     27.940981     55.881963
     -3.308308     32.718854     32.718854     65.437707
     -3.298298     36.779297     36.779297     73.558594
     -3.288288     39.300025     39.300025     78.600050
     -3.278278     39.639822     39.639822     79.279644
     -3.268268     37.543008     37.543008     75.086016
     -3.258258     33.250830     33.250830     66.501661
     -3.248248     27.451298     27.451298     54.902596
     -3.238238     21.074040     21.074040     42.148081
     -3.228228     15.017353     15.017353     30.034707
     -3.218218      9.925023      9.925023     19.850046
     -3.208208      6.093424      6.093424     12.186849
     -3.198198      3.516284      3.516284      7.032569
     -3.188188      2.014994      2.014994      4.029988
     -3.178178      1.385105      1.385105      2.770210
     -3.168168      1.508105      1.508105      3.016209
     -3.158158      2.406031      2.406031      4.812061
     -3.148148      4.234745      4.234745      8.469490
     -3.138138      7.218035      7.218035     14.436070
     -3.128128     11.530872     11.530872     23.061744
     -3.118118     17.156896     17.156896     34.313791
     -3.108108     23.769530     23.769530     47.539059
     -3.098098     30.700210     30.700210     61.400419
     -3.088088     37.040127     37.040127     74.080254
     -3.078078     41.868669     41.868669     83.737339
     -3.068068     44.533769     44.533769     89.067538
     -3.058058     44.866304     44.866304     89.732609
     -3.048048     43.225194     43.225194     86.450388
     -3.038038     40.342919     40.342919     80.685838
     -3.028028     37.037272     37.037272     74.074544
     -3.018018     33.921337     33.921337     67.842674
     -3.008008     31.242398     31.242398     62.484796
     -2.997998     28.912398     28.912398     57.824797
     -2.987988     26.696056     26.696056     53.392112
     -2.977978     24.449813     24.449813     48.899627
     -2.967968     22.290304     22.290304     44.580609
     -2.957958     20.615037     20.615037     41.230073
     -2.947948     19.971315     19.971315     39.942631
     -2.937938     20.834716     20.834716     41.669431
     -2.927928     23.390604     23.390604     46.781208
     -2.917918     27.406005     27.406005     54.812010
     -2.907908     32.243417     32.243417     64.486833
     -2.897898     37.017199     37.017199     74.034398
     -2.887888     40.841845     40.841845     81.683689
     -2.877878     43.085338     43.085338     86.170677
     -2.867868     43.534616     43.534616     87.069231
     -2.857858     42.410933     42.410933     84.821867
     -2.847848     40.232773     40.232773     80.465547
     -2.837838     37.588461     37.588461     75.176923
     -2.827828     34.919262     34.919262     69.838523
     -2.817818     32.405358     32.405358     64.810717
     -2.807808     29.994019     29.994019     59.988039
     -2.797798     27.537597     27.537597     55.075194
     -2.787788     24.956201     24.956201     49.912402
     -2.777778     22.333914     22.333914     44.667827
     -2.767768     19.900900     19.900900     39.801801
     -2.757758     17.921920     17.921920     35.843841
     -2.747748     16.565571     16.565571     33.131141
     -2.737738     15.836864     15.836864     31.673728
     -2.727728     15.613238     15.613238     31.226476
     -2.717718     15.756225     15.756225     31.512451
     -2.707708     16.220280     16.220280     32.440559
     -2.697698     17.080618     17.080618     34.161236
     -2.687688     18.455811     18.455811     36.911623
     -2.677678     20.374685     20.374685     40.749370
     -2.667668     22.680986     22.680986     45.361972
     -2.657658     25.050444     25.050444     50.100888
     -2.647648     27.122138     27.122138     54.244277
     -2.637638     28.667507     28.667507     57.335013
     -2.627628     29.691350     29.691350     59.382701
     -2.617618     30.402325     30.402325     60.804649
     -2.607608     31.075869     31.075869     62.151739
     -2.597598     31.898543     31.898543     63.797085
     -2.587588     32.882733     32.882733     65.765465
     -2.577578     33.880553     33.880553     67.761106
     -2.567568     34.657717     34.657717     69.315434
     -2.557558     34.965848     34.965848     69.931695
     -2.547548     34.584260     34.584260     69.168519
     -2.537538     33.350054     33.350054     66.700107
     -2.527528     31.209400     31.209400     62.418800
     -2.517518     28.290670     28.290670     56.581339
     -2.507508     24.954896     24.954896     49.909792
     -2.497497     21.766471     21.766471     43.532941
     -2.487487     19.363165     19.363165     38.726331
     -2.477477     18.264607     18.264607     36.529215
     -2.467467     18.700408     18.700408     37.400815
     -2.457457     20.537144     20.537144     41.074288
     -2.447447     23.340323     23.340323     46.680645
     -2.437437     26.546787     26.546787     53.093575
     -2.427427     29.673004     29.673004     59.346007
     -2.417417     32.466974     32.466974     64.933949
     -2.407407     34.935202     34.935202     69.870405
     -2.397397     37.233021     37.233021     74.466042
     -2.387387     39.472646     39.472646     78.945292
     -2.377377     41.547474     41.547474     83.094948
     -2.367367     43.070035     43.070035     86.140071
     -2.357357     43.470918     43.470918     86.941835
     -2.347347     42.227028     42.227028     84.454056
     -2.337337     39.118029     39.118029     78.236059
     -2.327327     34.388539     34.388539     68.777077
     -2.317317     28.736512     28.736512     57.473024
     -2.307307     23.132951     23.132951     46.265903
     -2.297297     18.555394     18.555394     37.110787
     -2.287287     15.744521     15.744521     31.489041
     -2.277277     15.062706     15.062706     30.125413
     -2.267267     16.474672     16.474672     32.949343
     -2.257257     19.621975     19.621975     39.243950
     -2.247247     23.943943     23.943943     47.887886
     -2.237237     28.802471     28.802471     57.604943
     -2.227227     33.582059     33.582059     67.164117
     -2.217217     37.751080     37.751080     75.502160
     -2.207207     40.885623     40.885623     81.771246
     -2.197197     42.672937     42.672937     85.345873
     -2.187187     42.920299     42.920299     85.840598
     -2.177177     41.586638     41.586638     83.173276
     -2.167167     38.827534     38.827534     77.655069
     -2.157157     35.015299     35.015299     70.030599
     -2.147147     30.690209     30.690209     61.380418
     -2.137137     26.430730     26.430730     52.861460
     -2.127127     22.684496     22.684496     45.368992
     -2.117117     19.639603     19.639603     39.279205
     -2.107107     17.204825     17.204825     34.409651
     -2.097097     15.109518     15.109518     30.219036
     -2.087087     13.066967     13.066967     26.133935
     -2.077077     10.914125     10.914125     21.828250
     -2.067067      8.663863      8.663863     17.327727
     -2.057057      6.462694      6.462694     12.925388
     -2.047047      4.497065      4.497065      8.994130
     -2.037037      2.906346      2.906346      5.812692
     -2.027027      1.740356      1.740356      3.480712
     -2.017017      0.965599      0.965599      1.931197
     -2.007007      0.500439      0.500439      1.000878
     -1.996997      0.254814      0.254814      0.509629
     -1.986987      0.159394      0.159394      0.318787
     -1.976977      0.181298      0.181298      0.362596
     -1.966967      0.330410      0.330410      0.660820
     -1.956957      0.660169      0.660169      1.320338
     -1.946947      1.262311      1.262311      2.524622
     -1.936937      2.250894      2.250894      4.501789
     -1.926927      3.731284      3.731284      7.462567
     -1.916917      5.756282      5.756282     11.512563
     -1.906907      8.281806      8.281806     16.563612
     -1.896897     11.141756     11.141756     22.283511
     -1.886887     14.059279     14.059279     28.118558
     -1.876877     16.698324     16.698324     33.396648
     -1.866867     18.742133     18.742133     37.484267
     -1.856857     19.974228     19.974228     39.948457
     -1.846847     20.337202     20.337202     40.674403
     -1.836837     19.951882     19.951882     39.903765
     -1.826827     19.088752     19.088752     38.177504
     -1.816817     18.094372     18.094372     36.188744
     -1.806807     17.290778     17.290778     34.581555
     -1.796797     16.881644     16.881644     33.763288
     -1.786787     16.902971     16.902971     33.805943
     -1.776777     17.237621     17.237621     34.475243
     -1.766767     17.679383     17.679383     35.358765
     -1.756757     18.007223     18.007223     36.014446
     -1.746747     18.034379     18.034379     36.068757
     -1.736737     17.625943     17.625943     35.251886
     -1.726727     16.706017     16.706017     33.412034
     -1.716717     15.276776     15.276776     30.553551
     -1.706707     13.448008     13.448008     26.896015
     -1.696697     11.451096     11.451096     22.902193
     -1.686687      9.609560      9.609560     19.219119
     -1.676677      8.260765      8.260765     16.521530
     -1.666667      7.652212      7.652212     15.304424
     -1.656657      7.851758      7.851758     15.703515
     -1.646647      8.708384      8.708384     17.416768
     -1.636637      9.883760      9.883760     19.767519
     -1.626627     10.951724     10.951724     21.903447
