# EIG2DOS: Utility for SIESTA to obtain the electronic density of states
#  E. Artacho, Apr 1999, A. Garcia, Apr 2012
#  Nick R. Papior, Feb 2017
# ------------------------------------------
# Eigenvalues calculated from a non-polarized calculation
# Eigenvalues read from siesta.EIG
# Kpoint weights read from siesta.KP
# Using smearing parameter:   0.0500
# Using 1000 points in the energy range
# Selected bands: 1 to: 2981
# Emin, Emax in file for selected band(s):    -27.0558198    218.3142840
# Nbands, Nspin, Nk   =   2981     1     1
# E_F                 =    -4.2945 eV --> (shifted to ZERO)
# Broadening          =     0.0500 eV
#
#        E            N(up)  (=)   N(down)         Ntot
     -5.000000     44.689421     44.689421     89.378841
     -4.989990     48.770029     48.770029     97.540058
     -4.979980     51.331951     51.331951    102.663901
     -4.969970     52.082781     52.082781    104.165561
     -4.959960     51.013980     51.013980    102.027959
     -4.949950     48.388904     48.388904     96.777808
     -4.939940     44.671153     44.671153     89.342306
     -4.929930     40.437226     40.437226     80.874451
     -4.919920     36.312747     36.312747     72.625495
     -4.909910     32.941099     32.941099     65.882197
     -4.899900     30.956576     30.956576     61.913153
     -4.889890     30.915117     30.915117     61.830233
     -4.879880     33.152911     33.152911     66.305822
     -4.869870     37.598265     37.598265     75.196531
     -4.859860     43.627381     43.627381     87.254762
     -4.849850     50.081086     50.081086    100.162172
     -4.839840     55.508671     55.508671    111.017343
     -4.829830     58.587876     58.587876    117.175751
     -4.819820     58.554302     58.554302    117.108604
     -4.809810     55.441795     55.441795    110.883590
     -4.799800     50.021076     50.021076    100.042153
     -4.789790     43.478697     43.478697     86.957393
     -4.779780     37.002857     37.002857     74.005714
     -4.769770     31.461474     31.461474     62.922948
     -4.759760     27.273776     27.273776     54.547552
     -4.749750     24.460397     24.460397     48.920795
     -4.739740     22.784582     22.784582     45.569165
     -4.729730     21.895518     21.895518     43.791036
     -4.719720     21.427187     21.427187     42.854374
     -4.709710     21.049894     21.049894     42.099788
     -4.699700     20.494167     20.494167     40.988334
     -4.689690     19.569572     19.569572     39.139144
     -4.679680     18.193075     18.193075     36.386149
     -4.669670     16.427847     16.427847     32.855694
     -4.659660     14.517894     14.517894     29.035789
     -4.649650     12.893991     12.893991     25.787983
     -4.639640     12.128714     12.128714     24.257428
     -4.629630     12.831810     12.831810     25.663620
     -4.619620     15.495338     15.495338     30.990676
     -4.609610     20.317131     20.317131     40.634262
     -4.599600     27.051301     27.051301     54.102601
     -4.589590     34.950399     34.950399     69.900799
     -4.579580     42.858824     42.858824     85.717648
     -4.569570     49.474304     49.474304     98.948608
     -4.559560     53.718833     53.718833    107.437665
     -4.549550     55.088652     55.088652    110.177303
     -4.539540     53.833582     53.833582    107.667163
     -4.529530     50.873881     50.873881    101.747761
     -4.519520     47.475431     47.475431     94.950861
     -4.509510     44.812672     44.812672     89.625344
     -4.499499     43.595423     43.595423     87.190846
     -4.489489     43.898675     43.898675     87.797350
     -4.479479     45.237810     45.237810     90.475620
     -4.469469     46.827243     46.827243     93.654486
     -4.459459     47.896742     47.896742     95.793484
     -4.449449     47.938412     47.938412     95.876824
     -4.439439     46.808558     46.808558     93.617117
     -4.429429     44.681769     44.681769     89.363537
     -4.419419     41.915190     41.915190     83.830381
     -4.409409     38.904579     38.904579     77.809158
     -4.399399     35.993944     35.993944     71.987887
     -4.389389     33.452614     33.452614     66.905228
     -4.379379     31.487923     31.487923     62.975846
     -4.369369     30.247664     30.247664     60.495329
     -4.359359     29.791320     29.791320     59.582640
     -4.349349     30.050818     30.050818     60.101635
     -4.339339     30.824961     30.824961     61.649923
     -4.329329     31.836280     31.836280     63.672559
     -4.319319     32.836455     32.836455     65.672911
     -4.309309     33.710013     33.710013     67.420025
     -4.299299     34.521992     34.521992     69.043984
     -4.289289     35.483335     35.483335     70.966670
     -4.279279     36.845369     36.845369     73.690737
     -4.269269     38.761099     38.761099     77.522198
     -4.259259     41.161770     41.161770     82.323541
     -4.249249     43.698320     43.698320     87.396639
     -4.239239     45.788371     45.788371     91.576742
     -4.229229     46.779568     46.779568     93.559136
     -4.219219     46.186253     46.186253     92.372505
     -4.209209     43.902283     43.902283     87.804566
     -4.199199     40.280314     40.280314     80.560628
     -4.189189     36.022424     36.022424     72.044847
     -4.179179     31.925576     31.925576     63.851151
     -4.169169     28.606002     28.606002     57.212004
     -4.159159     26.334700     26.334700     52.669400
     -4.149149     25.048442     25.048442     50.096884
     -4.139139     24.504324     24.504324     49.008648
     -4.129129     24.479019     24.479019     48.958037
     -4.119119     24.905239     24.905239     49.810478
     -4.109109     25.879224     25.879224     51.758449
     -4.099099     27.538789     27.538789     55.077578
     -4.089089     29.876541     29.876541     59.753081
     -4.079079     32.593849     32.593849     65.187698
     -4.069069     35.094843     35.094843     70.189686
     -4.059059     36.656093     36.656093     73.312186
     -4.049049     36.709806     36.709806     73.419612
     -4.039039     35.102362     35.102362     70.204725
     -4.029029     32.190452     32.190452     64.380904
     -4.019019     28.722402     28.722402     57.444804
     -4.009009     25.570861     25.570861     51.141722
     -3.998999     23.457478     23.457478     46.914955
     -3.988989     22.794809     22.794809     45.589619
     -3.978979     23.683838     23.683838     47.367676
     -3.968969     26.012633     26.012633     52.025265
     -3.958959     29.564436     29.564436     59.128871
     -3.948949     34.075576     34.075576     68.151152
     -3.938939     39.247300     39.247300     78.494600
     -3.928929     44.755751     44.755751     89.511501
     -3.918919     50.292844     50.292844    100.585688
     -3.908909     55.624797     55.624797    111.249595
     -3.898899     60.618742     60.618742    121.237483
     -3.888889     65.194928     65.194928    130.389855
     -3.878879     69.210946     69.210946    138.421892
     -3.868869     72.341724     72.341724    144.683447
     -3.858859     74.043877     74.043877    148.087754
     -3.848849     73.663116     73.663116    147.326232
     -3.838839     70.669262     70.669262    141.338524
     -3.828829     64.924587     64.924587    129.849174
     -3.818819     56.855373     56.855373    113.710746
     -3.808809     47.430448     47.430448     94.860896
     -3.798799     37.938660     37.938660     75.877321
     -3.788789     29.650024     29.650024     59.300048
     -3.778779     23.490985     23.490985     46.981970
     -3.768769     19.844432     19.844432     39.688864
     -3.758759     18.521916     18.521916     37.043833
     -3.748749     18.889746     18.889746     37.779492
     -3.738739     20.091136     20.091136     40.182273
     -3.728729     21.297133     21.297133     42.594265
     -3.718719     21.927040     21.927040     43.854081
     -3.708709     21.792034     21.792034     43.584069
     -3.698699     21.129798     21.129798     42.259596
     -3.688689     20.516938     20.516938     41.033876
     -3.678679     20.673158     20.673158     41.346316
     -3.668669     22.204945     22.204945     44.409890
     -3.658659     25.366504     25.366504     50.733008
     -3.648649     29.925039     29.925039     59.850079
     -3.638639     35.191154     35.191154     70.382307
     -3.628629     40.213513     40.213513     80.427026
     -3.618619     44.064738     44.064738     88.129477
     -3.608609     46.103162     46.103162     92.206324
     -3.598599     46.111605     46.111605     92.223211
     -3.588589     44.281208     44.281208     88.562415
     -3.578579     41.081789     41.081789     82.163578
     -3.568569     37.094592     37.094592     74.189184
     -3.558559     32.867655     32.867655     65.735310
     -3.548549     28.816850     28.816850     57.633700
     -3.538539     25.172645     25.172645     50.345290
     -3.528529     21.973462     21.973462     43.946924
     -3.518519     19.111378     19.111378     38.222756
     -3.508509     16.424090     16.424090     32.848180
     -3.498498     13.801852     13.801852     27.603705
     -3.488488     11.263098     11.263098     22.526197
     -3.478478      8.965171      8.965171     17.930342
     -3.468468      7.149764      7.149764     14.299528
     -3.458458      6.052264      6.052264     12.104527
     -3.448448      5.812644      5.812644     11.625289
     -3.438438      6.415718      6.415718     12.831436
     -3.428428      7.675191      7.675191     15.350381
     -3.418418      9.268083      9.268083     18.536165
     -3.408408     10.818806     10.818806     21.637612
     -3.398398     12.016854     12.016854     24.033707
     -3.388388     12.730885     12.730885     25.461769
     -3.378378     13.070950     13.070950     26.141901
     -3.368368     13.365121     13.365121     26.730241
     -3.358358     14.054532     14.054532     28.109063
     -3.348348     15.548976     15.548976     31.097951
     -3.338338     18.097623     18.097623     36.195246
     -3.328328     21.709694     21.709694     43.419389
     -3.318318     26.127853     26.127853     52.255706
     -3.308308     30.841811     30.841811     61.683622
     -3.298298     35.141503     35.141503     70.283005
     -3.288288     38.227449     38.227449     76.454899
     -3.278278     39.387795     39.387795     78.775589
     -3.268268     38.207636     38.207636     76.415272
     -3.258258     34.728006     34.728006     69.456013
     -3.248248     29.467213     29.467213     58.934426
     -3.238238     23.275028     23.275028     46.550055
     -3.228228     17.076999     17.076999     34.153999
     -3.218218     11.621881     11.621881     23.243762
     -3.208208      7.333313      7.333313     14.666625
     -3.198198      4.302188      4.302188      8.604376
     -3.188188      2.386628      2.386628      4.773255
     -3.178178      1.352683      1.352683      2.705367
     -3.168168      0.997635      0.997635      1.995270
     -3.158158      1.227729      1.227729      2.455458
     -3.148148      2.087554      2.087554      4.175108
     -3.138138      3.746826      3.746826      7.493652
     -3.128128      6.446984      6.446984     12.893968
     -3.118118     10.407753     10.407753     20.815505
     -3.108108     15.703326     15.703326     31.406652
     -3.098098     22.139233     22.139233     44.278465
     -3.088088     29.182217     29.182217     58.364435
     -3.078078     35.997286     35.997286     71.994572
     -3.068068     41.614461     41.614461     83.228922
     -3.058058     45.188206     45.188206     90.376413
     -3.048048     46.254555     46.254555     92.509109
     -3.038038     44.874319     44.874319     89.748638
     -3.028028     41.595890     41.595890     83.191781
     -3.018018     37.257745     37.257745     74.515490
     -3.008008     32.726450     32.726450     65.452900
     -2.997998     28.683954     28.683954     57.367908
     -2.987988     25.533618     25.533618     51.067237
     -2.977978     23.425447     23.425447     46.850894
     -2.967968     22.352393     22.352393     44.704787
     -2.957958     22.258332     22.258332     44.516664
     -2.947948     23.111095     23.111095     46.222190
     -2.937938     24.913039     24.913039     49.826078
     -2.927928     27.644276     27.644276     55.288552
     -2.917918     31.164634     31.164634     62.329268
     -2.907908     35.131507     35.131507     70.263013
     -2.897898     38.998347     38.998347     77.996694
     -2.887888     42.125110     42.125110     84.250219
     -2.877878     43.968856     43.968856     87.937713
     -2.867868     44.268406     44.268406     88.536812
     -2.857858     43.129055     43.129055     86.258111
     -2.847848     40.960550     40.960550     81.921101
     -2.837838     38.296707     38.296707     76.593413
     -2.827828     35.584888     35.584888     71.169776
     -2.817818     33.045323     33.045323     66.090646
     -2.807808     30.659753     30.659753     61.319505
     -2.797798     28.279855     28.279855     56.559711
     -2.787788     25.785504     25.785504     51.571008
     -2.777778     23.202199     23.202199     46.404399
     -2.767768     20.715697     20.715697     41.431394
     -2.757758     18.583388     18.583388     37.166776
     -2.747748     17.002041     17.002041     34.004083
     -2.737738     16.015775     16.015775     32.031549
     -2.727728     15.521667     15.521667     31.043333
     -2.717718     15.367994     15.367994     30.735988
     -2.707708     15.479403     15.479403     30.958806
     -2.697698     15.923327     15.923327     31.846655
     -2.687688     16.867684     16.867684     33.735368
     -2.677678     18.450753     18.450753     36.901506
     -2.667668     20.645170     20.645170     41.290340
     -2.657658     23.207845     23.207845     46.415690
     -2.647648     25.756713     25.756713     51.513426
     -2.637638     27.934332     27.934332     55.868664
     -2.627628     29.560898     29.560898     59.121796
     -2.617618     30.685683     30.685683     61.371367
     -2.607608     31.513092     31.513092     63.026185
     -2.597598     32.259983     32.259983     64.519966
     -2.587588     33.036491     33.036491     66.072982
     -2.577578     33.810463     33.810463     67.620926
     -2.567568     34.447114     34.447114     68.894228
     -2.557558     34.769286     34.769286     69.538571
     -2.547548     34.594252     34.594252     69.188503
     -2.537538     33.751171     33.751171     67.502342
     -2.527528     32.116650     32.116650     64.233300
     -2.517518     29.689508     29.689508     59.379016
     -2.507508     26.675029     26.675029     53.350057
     -2.497497     23.513047     23.513047     47.026094
     -2.487487     20.800103     20.800103     41.600207
     -2.477477     19.115965     19.115965     38.231931
     -2.467467     18.826439     18.826439     37.652878
     -2.457457     19.956125     19.956125     39.912249
     -2.447447     22.194419     22.194419     44.388837
     -2.437437     25.034494     25.034494     50.068989
     -2.427427     27.981408     27.981408     55.962815
     -2.417417     30.731974     30.731974     61.463948
     -2.407407     33.241450     33.241450     66.482899
     -2.397397     35.646042     35.646042     71.292083
     -2.387387     38.081655     38.081655     76.163309
     -2.377377     40.493507     40.493507     80.987015
     -2.367367     42.540359     42.540359     85.080718
     -2.357357     43.654655     43.654655     87.309310
     -2.347347     43.244878     43.244878     86.489756
     -2.337337     40.954650     40.954650     81.909300
     -2.327327     36.861026     36.861026     73.722052
     -2.317317     31.519981     31.519981     63.039962
     -2.307307     25.838038     25.838038     51.676076
     -2.297297     20.826807     20.826807     41.653615
     -2.287287     17.340472     17.340472     34.680943
     -2.277277     15.887201     15.887201     31.774402
     -2.267267     16.559532     16.559532     33.119065
     -2.257257     19.077963     19.077963     38.155926
     -2.247247     22.909904     22.909904     45.819807
     -2.237237     27.416049     27.416049     54.832098
     -2.227227     31.979922     31.979922     63.959843
     -2.217217     36.088464     36.088464     72.176927
     -2.207207     39.352803     39.352803     78.705607
     -2.197197     41.486612     41.486612     82.973224
     -2.187187     42.281862     42.281862     84.563723
     -2.177177     41.620500     41.620500     83.241000
     -2.167167     39.529091     39.529091     79.058182
     -2.157157     36.239118     36.239118     72.478235
     -2.147147     32.191927     32.191927     64.383853
     -2.137137     27.948905     27.948905     55.897811
     -2.127127     24.026530     24.026530     48.053060
     -2.117117     20.732473     20.732473     41.464945
     -2.107107     18.089842     18.089842     36.179684
     -2.097097     15.889957     15.889957     31.779914
     -2.087087     13.840406     13.840406     27.680813
     -2.077077     11.724411     11.724411     23.448822
     -2.067067      9.491210      9.491210     18.982419
     -2.057057      7.247003      7.247003     14.494005
     -2.047047      5.174087      5.174087     10.348173
     -2.037037      3.435752      3.435752      6.871503
     -2.027027      2.115425      2.115425      4.230851
     -2.017017      1.206590      1.206590      2.413180
     -2.007007      0.640429      0.640429      1.280857
     -1.996997      0.326416      0.326416      0.652831
     -1.986987      0.186486      0.186486      0.372972
     -1.976977      0.175718      0.175718      0.351435
     -1.966967      0.291702      0.291702      0.583405
     -1.956957      0.576878      0.576878      1.153755
     -1.946947      1.114668      1.114668      2.229337
     -1.936937      2.015772      2.015772      4.031544
     -1.926927      3.389963      3.389963      6.779927
     -1.916917      5.303985      5.303985     10.607970
     -1.906907      7.735861      7.735861     15.471722
     -1.896897     10.544416     10.544416     21.088833
     -1.886887     13.472532     13.472532     26.945063
     -1.876877     16.191151     16.191151     32.382302
     -1.866867     18.373738     18.373738     36.747476
     -1.856857     19.777880     19.777880     39.555761
     -1.846847     20.308394     20.308394     40.616788
     -1.836837     20.042479     20.042479     40.084958
     -1.826827     19.206584     19.206584     38.413168
     -1.816817     18.105374     18.105374     36.210747
     -1.806807     17.018821     17.018821     34.037643
     -1.796797     16.102511     16.102511     32.205023
     -1.786787     15.336191     15.336191     30.672383
     -1.776777     14.551622     14.551622     29.103244
     -1.766767     13.532708     13.532708     27.065416
     -1.756757     12.140410     12.140410     24.280819
     -1.746747     10.400536     10.400536     20.801071
     -1.736737      8.515422      8.515422     17.030844
     -1.726727      6.803920      6.803920     13.607840
     -1.716717      5.607458      5.607458     11.214916
     -1.706707      5.203803      5.203803     10.407606
     -1.696697      5.750090      5.750090     11.500181
     -1.686687      7.254155      7.254155     14.508310
     -1.676677      9.565485      9.565485     19.130970
     -1.666667     12.384169     12.384169     24.768338
     -1.656657     15.294868     15.294868     30.589736
     -1.646647     17.831342     17.831342     35.662684
     -1.636637     19.565041     19.565041     39.130081
     -1.626627     20.198136     20.198136     40.396271
