# EIG2DOS: Utility for SIESTA to obtain the electronic density of states
#  E. Artacho, Apr 1999, A. Garcia, Apr 2012
#  Nick R. Papior, Feb 2017
# ------------------------------------------
# Eigenvalues calculated from a non-polarized calculation
# Eigenvalues read from siesta.EIG
# Kpoint weights read from siesta.KP
# Using smearing parameter:   0.0500
# Using 1000 points in the energy range
# Selected bands: 1 to: 2981
# Emin, Emax in file for selected band(s):    -27.1780193    218.3416270
# Nbands, Nspin, Nk   =   2981     1     1
# E_F                 =    -4.2680 eV --> (shifted to ZERO)
# Broadening          =     0.0500 eV
#
#        E            N(up)  (=)   N(down)         Ntot
     -5.000000     35.152812     35.152812     70.305624
     -4.989990     38.275338     38.275338     76.550676
     -4.979980     40.994131     40.994131     81.988263
     -4.969970     42.817057     42.817057     85.634113
     -4.959960     43.389032     43.389032     86.778065
     -4.949950     42.584538     42.584538     85.169077
     -4.939940     40.544423     40.544423     81.088846
     -4.929930     37.656912     37.656912     75.313825
     -4.919920     34.502082     34.502082     69.004164
     -4.909910     31.779390     31.779390     63.558780
     -4.899900     30.219489     30.219489     60.438979
     -4.889890     30.462346     30.462346     60.924693
     -4.879880     32.889224     32.889224     65.778448
     -4.869870     37.436925     37.436925     74.873849
     -4.859860     43.476287     43.476287     86.952574
     -4.849850     49.855979     49.855979     99.711959
     -4.839840     55.161087     55.161087    110.322174
     -4.829830     58.126706     58.126706    116.253413
     -4.819820     58.044304     58.044304    116.088608
     -4.809810     54.977429     54.977429    109.954858
     -4.799800     49.689358     49.689358     99.378717
     -4.789790     43.329828     43.329828     86.659655
     -4.779780     37.040093     37.040093     74.080186
     -4.769770     31.648988     31.648988     63.297975
     -4.759760     27.552927     27.552927     55.105855
     -4.749750     24.765189     24.765189     49.530379
     -4.739740     23.052854     23.052854     46.105707
     -4.729730     22.077159     22.077159     44.154319
     -4.719720     21.490933     21.490933     42.981866
     -4.709710     20.987872     20.987872     41.975744
     -4.699700     20.322341     20.322341     40.644681
     -4.689690     19.324152     19.324152     38.648303
     -4.679680     17.925784     17.925784     35.851568
     -4.669670     16.203395     16.203395     32.406791
     -4.659660     14.414022     14.414022     28.828043
     -4.649650     13.000141     13.000141     26.000283
     -4.639640     12.537350     12.537350     25.074700
     -4.629630     13.619271     13.619271     27.238542
     -4.619620     16.697167     16.697167     33.394334
     -4.609610     21.912668     21.912668     43.825335
     -4.599600     28.977176     28.977176     57.954351
     -4.589590     37.154611     37.154611     74.309222
     -4.579580     45.384226     45.384226     90.768453
     -4.569570     52.532008     52.532008    105.064016
     -4.559560     57.697881     57.697881    115.395763
     -4.549550     60.465790     60.465790    120.931580
     -4.539540     60.995215     60.995215    121.990431
     -4.529530     59.916799     59.916799    119.833597
     -4.519520     58.078369     58.078369    116.156738
     -4.509510     56.246295     56.246295    112.492590
     -4.499499     54.874144     54.874144    109.748288
     -4.489489     54.010613     54.010613    108.021227
     -4.479479     53.357435     53.357435    106.714870
     -4.469469     52.433648     52.433648    104.867297
     -4.459459     50.773614     50.773614    101.547229
     -4.449449     48.087789     48.087789     96.175579
     -4.439439     44.342477     44.342477     88.684954
     -4.429429     39.753854     39.753854     79.507708
     -4.419419     34.723993     34.723993     69.447986
     -4.409409     29.757028     29.757028     59.514056
     -4.399399     25.379943     25.379943     50.759886
     -4.389389     22.069262     22.069262     44.138524
     -4.379379     20.173881     20.173881     40.347763
     -4.369369     19.836237     19.836237     39.672474
     -4.359359     20.938170     20.938170     41.876339
     -4.349349     23.109705     23.109705     46.219411
     -4.339339     25.821372     25.821372     51.642744
     -4.329329     28.539959     28.539959     57.079918
     -4.319319     30.890219     30.890219     61.780439
     -4.309309     32.756584     32.756584     65.513168
     -4.299299     34.284777     34.284777     68.569555
     -4.289289     35.785572     35.785572     71.571144
     -4.279279     37.577647     37.577647     75.155293
     -4.269269     39.822055     39.822055     79.644109
     -4.259259     42.401908     42.401908     84.803817
     -4.249249     44.894752     44.894752     89.789505
     -4.239239     46.667562     46.667562     93.335124
     -4.229229     47.084808     47.084808     94.169616
     -4.219219     45.762655     45.762655     91.525311
     -4.209209     42.758292     42.758292     85.516585
     -4.199199     38.592752     38.592752     77.185504
     -4.189189     34.080167     34.080167     68.160335
     -4.179179     30.038351     30.038351     60.076703
     -4.169169     27.019917     27.019917     54.039833
     -4.159159     25.187284     25.187284     50.374568
     -4.149149     24.371728     24.371728     48.743456
     -4.139139     24.261062     24.261062     48.522123
     -4.129129     24.606204     24.606204     49.212409
     -4.119119     25.342388     25.342388     50.684775
     -4.109109     26.571097     26.571097     53.142194
     -4.099099     28.417113     28.417113     56.834226
     -4.089089     30.836940     30.836940     61.673880
     -4.079079     33.487949     33.487949     66.975897
     -4.069069     35.750418     35.750418     71.500835
     -4.059059     36.922297     36.922297     73.844594
     -4.049049     36.508368     36.508368     73.016737
     -4.039039     34.459618     34.459618     68.919236
     -4.029029     31.234008     31.234008     62.468016
     -4.019019     27.644646     27.644646     55.289292
     -4.009009     24.577255     24.577255     49.154510
     -3.998999     22.721119     22.721119     45.442238
     -3.988989     22.430117     22.430117     44.860233
     -3.978979     23.739730     23.739730     47.479459
     -3.968969     26.478238     26.478238     52.956475
     -3.958959     30.380992     30.380992     60.761983
     -3.948949     35.152706     35.152706     70.305411
     -3.938939     40.484052     40.484052     80.968104
     -3.928929     46.063830     46.063830     92.127660
     -3.918919     51.613936     51.613936    103.227872
     -3.908909     56.931700     56.931700    113.863400
     -3.898899     61.895463     61.895463    123.790926
     -3.888889     66.402891     66.402891    132.805782
     -3.878879     70.260013     70.260013    140.520027
     -3.868869     73.087145     73.087145    146.174290
     -3.858859     74.319324     74.319324    148.638648
     -3.848849     73.340256     73.340256    146.680512
     -3.838839     69.717460     69.717460    139.434920
     -3.828829     63.441350     63.441350    126.882701
     -3.818819     55.051602     55.051602    110.103205
     -3.808809     45.576280     45.576280     91.152559
     -3.798799     36.292804     36.292804     72.585608
     -3.788789     28.399205     28.399205     56.798409
     -3.778779     22.717145     22.717145     45.434289
     -3.768769     19.523457     19.523457     39.046913
     -3.758759     18.547048     18.547048     37.094095
     -3.748749     19.108889     19.108889     38.217778
     -3.738739     20.348165     20.348165     40.696330
     -3.728729     21.469474     21.469474     42.938949
     -3.718719     21.953212     21.953212     43.906424
     -3.708709     21.683705     21.683705     43.367411
     -3.698699     20.964805     20.964805     41.929611
     -3.688689     20.413415     20.413415     40.826831
     -3.678679     20.750323     20.750323     41.500645
     -3.668669     22.541426     22.541426     45.082853
     -3.658659     25.969908     25.969908     51.939816
     -3.648649     30.724236     30.724236     61.448471
     -3.638639     36.054927     36.054927     72.109853
     -3.628629     40.988414     40.988414     81.976828
     -3.618619     44.616815     44.616815     89.233631
     -3.608609     46.347826     46.347826     92.695652
     -3.598599     46.023616     46.023616     92.047231
     -3.588589     43.887367     43.887367     87.774734
     -3.578579     40.445233     40.445233     80.890465
     -3.568569     36.298483     36.298483     72.596966
     -3.558559     32.000897     32.000897     64.001794
     -3.548549     27.960904     27.960904     55.921808
     -3.538539     24.389540     24.389540     48.779080
     -3.528529     21.298049     21.298049     42.596099
     -3.518519     18.551530     18.551530     37.103059
     -3.508509     15.969239     15.969239     31.938479
     -3.498498     13.435699     13.435699     26.871398
     -3.488488     10.974251     10.974251     21.948503
     -3.478478      8.751419      8.751419     17.502838
     -3.468468      7.015618      7.015618     14.031237
     -3.458458      6.002483      6.002483     12.004967
     -3.448448      5.845258      5.845258     11.690517
     -3.438438      6.517334      6.517334     13.034669
     -3.428428      7.820439      7.820439     15.640878
     -3.418418      9.424187      9.424187     18.848375
     -3.408408     10.954917     10.954917     21.909834
     -3.398398     12.115626     12.115626     24.231251
     -3.388388     12.797927     12.797927     25.595854
     -3.378378     13.137813     13.137813     26.275625
     -3.368368     13.483988     13.483988     26.967976
     -3.358358     14.286251     14.286251     28.572503
     -3.348348     15.947976     15.947976     31.895951
     -3.338338     18.696546     18.696546     37.393093
     -3.328328     22.504844     22.504844     45.009688
     -3.318318     27.066879     27.066879     54.133757
     -3.308308     31.818608     31.818608     63.637216
     -3.298298     36.006870     36.006870     72.013739
     -3.288288     38.822262     38.822262     77.644525
     -3.278278     39.596005     39.596005     79.192011
     -3.268268     38.014138     38.014138     76.028276
     -3.258258     34.260485     34.260485     68.520969
     -3.248248     29.006815     29.006815     58.013630
     -3.238238     23.233629     23.233629     46.467257
     -3.228228     17.948290     17.948290     35.896580
     -3.218218     13.913151     13.913151     27.826303
     -3.208208     11.479817     11.479817     22.959634
     -3.198198     10.568465     10.568465     21.136930
     -3.188188     10.774817     10.774817     21.549635
     -3.178178     11.556718     11.556718     23.113435
     -3.168168     12.443680     12.443680     24.887360
     -3.158158     13.211949     13.211949     26.423899
     -3.148148     13.970829     13.970829     27.941658
     -3.138138     15.122437     15.122437     30.244873
     -3.128128     17.193829     17.193829     34.387658
     -3.118118     20.590041     20.590041     41.180083
     -3.108108     25.358017     25.358017     50.716034
     -3.098098     31.061898     31.061898     62.123795
     -3.088088     36.837605     36.837605     73.675211
     -3.078078     41.625320     41.625320     83.250641
     -3.068068     44.498582     44.498582     88.997164
     -3.058058     44.957040     44.957040     89.914081
     -3.048048     43.058813     43.058813     86.117625
     -3.038038     39.341347     39.341347     78.682695
     -3.028028     34.581636     34.581636     69.163273
     -3.018018     29.520703     29.520703     59.041406
     -3.008008     24.680910     24.680910     49.361820
     -2.997998     20.338883     20.338883     40.677766
     -2.987988     16.626164     16.626164     33.252327
     -2.977978     13.669595     13.669595     27.339190
     -2.967968     11.682358     11.682358     23.364715
     -2.957958     10.961199     10.961199     21.922398
     -2.947948     11.799076     11.799076     23.598152
     -2.937938     14.356152     14.356152     28.712303
     -2.927928     18.540856     18.540856     37.081711
     -2.917918     23.946780     23.946780     47.893559
     -2.907908     29.878173     29.878173     59.756347
     -2.897898     35.474500     35.474500     70.949001
     -2.887888     39.910268     39.910268     79.820537
     -2.877878     42.609246     42.609246     85.218491
     -2.867868     43.392805     43.392805     86.785610
     -2.857858     42.498462     42.498462     84.996923
     -2.847848     40.455993     40.455993     80.911986
     -2.837838     37.871981     37.871981     75.743962
     -2.827828     35.216165     35.216165     70.432331
     -2.817818     32.700825     32.700825     65.401649
     -2.807808     30.297081     30.297081     60.594162
     -2.797798     27.863461     27.863461     55.726923
     -2.787788     25.307930     25.307930     50.615860
     -2.777778     22.693284     22.693284     45.386568
     -2.767768     20.232996     20.232996     40.465992
     -2.757758     18.189542     18.189542     36.379085
     -2.747748     16.743434     16.743434     33.486869
     -2.737738     15.916088     15.916088     31.832176
     -2.727728     15.593768     15.593768     31.187537
     -2.717718     15.633950     15.633950     31.267899
     -2.707708     15.980310     15.980310     31.960621
     -2.697698     16.704721     16.704721     33.409441
     -2.687688     17.941807     17.941807     35.883614
     -2.677678     19.755413     19.755413     39.510826
     -2.667668     22.027636     22.027636     44.055272
     -2.657658     24.453043     24.453043     48.906086
     -2.647648     26.654569     26.654569     53.309138
     -2.637638     28.355929     28.355929     56.711858
     -2.627628     29.504608     29.504608     59.009215
     -2.617618     30.270028     30.270028     60.540056
     -2.607608     30.923186     30.923186     61.846373
     -2.597598     31.678195     31.678195     63.356391
     -2.587588     32.589947     32.589947     65.179894
     -2.577578     33.550115     33.550115     67.100229
     -2.567568     34.352218     34.352218     68.704436
     -2.557558     34.763394     34.763394     69.526789
     -2.547548     34.565810     34.565810     69.131620
     -2.537538     33.581326     33.581326     67.162653
     -2.527528     31.716445     31.716445     63.432891
     -2.517518     29.037983     29.037983     58.075967
     -2.507508     25.840273     25.840273     51.680546
     -2.497497     22.641052     22.641052     45.282104
     -2.487487     20.071515     20.071515     40.143029
     -2.477477     18.688029     18.688029     37.376058
     -2.467467     18.785018     18.785018     37.570036
     -2.457457     20.296755     20.296755     40.593510
     -2.447447     22.836827     22.836827     45.673654
     -2.437437     25.860212     25.860212     51.720425
     -2.427427     28.875636     28.875636     57.751272
     -2.417417     31.611384     31.611384     63.222767
     -2.407407     34.058112     34.058112     68.116224
     -2.397397     36.370036     36.370036     72.740073
     -2.387387     38.675347     38.675347     77.350694
     -2.377377     40.894095     40.894095     81.788190
     -2.367367     42.662616     42.662616     85.325233
     -2.357357     43.415365     43.415365     86.830731
     -2.347347     42.599170     42.599170     85.198340
     -2.337337     39.927450     39.927450     79.854900
     -2.327327     35.557628     35.557628     71.115255
     -2.317317     30.108588     30.108588     60.217176
     -2.307307     24.510037     24.510037     49.020074
     -2.297297     19.750684     19.750684     39.501368
     -2.287287     16.627099     16.627099     33.254197
     -2.277277     15.577267     15.577267     31.154535
     -2.267267     16.632865     16.632865     33.265730
     -2.257257     19.475526     19.475526     38.951053
     -2.247247     23.556077     23.556077     47.112153
     -2.237237     28.231564     28.231564     56.463127
     -2.227227     32.882591     32.882591     65.765183
     -2.217217     36.986503     36.986503     73.973006
     -2.207207     40.140666     40.140666     80.281332
     -2.197197     42.052785     42.052785     84.105570
     -2.187187     42.531348     42.531348     85.062697
     -2.177177     41.504792     41.504792     83.009584
     -2.167167     39.069027     39.069027     78.138054
     -2.157157     35.526274     35.526274     71.052547
     -2.147147     31.363169     31.363169     62.726339
     -2.137137     27.142307     27.142307     54.284615
     -2.127127     23.337400     23.337400     46.674799
     -2.117117     20.189260     20.189260     40.378520
     -2.107107     17.659821     17.659821     35.319643
     -2.097097     15.509300     15.509300     31.018601
     -2.087087     13.451543     13.451543     26.903085
     -2.077077     11.302088     11.302088     22.604177
     -2.067067      9.047433      9.047433     18.094867
     -2.057057      6.817542      6.817542     13.635084
     -2.047047      4.797732      4.797732      9.595464
     -2.037037      3.137976      3.137976      6.275951
     -2.027027      1.902380      1.902380      3.804759
     -2.017017      1.068490      1.068490      2.136980
     -2.007007      0.559470      0.559470      1.118939
     -1.996997      0.284401      0.284401      0.568803
     -1.986987      0.169694      0.169694      0.339388
     -1.976977      0.176904      0.176904      0.353808
     -1.966967      0.310299      0.310299      0.620598
     -1.956957      0.618310      0.618310      1.236620
     -1.946947      1.188987      1.188987      2.377974
     -1.936937      2.135208      2.135208      4.270416
     -1.926927      3.565099      3.565099      7.130197
     -1.916917      5.539037      5.539037     11.078075
     -1.906907      8.024724      8.024724     16.049447
     -1.896897     10.869846     10.869846     21.739692
     -1.886887     13.810791     13.810791     27.621582
     -1.876877     16.523573     16.523573     33.047146
     -1.866867     18.705645     18.705645     37.411290
     -1.856857     20.164088     20.164088     40.328176
     -1.846847     20.882084     20.882084     41.764168
     -1.836837     21.039352     21.039352     42.078704
     -1.826827     20.969817     20.969817     41.939634
     -1.816817     21.053600     21.053600     42.107200
     -1.806807     21.565591     21.565591     43.131182
     -1.796797     22.534627     22.534627     45.069255
     -1.786787     23.684363     23.684363     47.368727
     -1.776777     24.505260     24.505260     49.010519
     -1.766767     24.445483     24.445483     48.890965
     -1.756757     23.139629     23.139629     46.279259
     -1.746747     20.565537     20.565537     41.131074
     -1.736737     17.055340     17.055340     34.110680
     -1.726727     13.166273     13.166273     26.332546
     -1.716717      9.487577      9.487577     18.975154
     -1.706707      6.479028      6.479028     12.958055
     -1.696697      4.399799      4.399799      8.799598
     -1.686687      3.325681      3.325681      6.651363
     -1.676677      3.208533      3.208533      6.417065
     -1.666667      3.925645      3.925645      7.851291
     -1.656657      5.293073      5.293073     10.586146
     -1.646647      7.053874      7.053874     14.107748
     -1.636637      8.876193      8.876193     17.752386
     -1.626627     10.393621     10.393621     20.787242
