# EIG2DOS: Utility for SIESTA to obtain the electronic density of states
#  E. Artacho, Apr 1999, A. Garcia, Apr 2012
#  Nick R. Papior, Feb 2017
# ------------------------------------------
# Eigenvalues calculated from a non-polarized calculation
# Eigenvalues read from siesta.EIG
# Kpoint weights read from siesta.KP
# Using smearing parameter:   0.0500
# Using 1000 points in the energy range
# Selected bands: 1 to: 2981
# Emin, Emax in file for selected band(s):    -27.1004060    218.3288940
# Nbands, Nspin, Nk   =   2981     1     1
# E_F                 =    -4.2797 eV --> (shifted to ZERO)
# Broadening          =     0.0500 eV
#
#        E            N(up)  (=)   N(down)         Ntot
     -5.000000     42.542441     42.542441     85.084881
     -4.989990     44.059436     44.059436     88.118872
     -4.979980     44.992551     44.992551     89.985101
     -4.969970     45.190629     45.190629     90.381257
     -4.959960     44.498635     44.498635     88.997270
     -4.949950     42.852712     42.852712     85.705424
     -4.939940     40.353999     40.353999     80.707998
     -4.929930     37.297854     37.297854     74.595709
     -4.919920     34.160763     34.160763     68.321527
     -4.909910     31.555719     31.555719     63.111439
     -4.899900     30.155252     30.155252     60.310505
     -4.889890     30.566776     30.566776     61.133552
     -4.879880     33.153435     33.153435     66.306871
     -4.869870     37.835911     37.835911     75.671821
     -4.859860     43.963898     43.963898     87.927796
     -4.849850     50.362207     50.362207    100.724414
     -4.839840     55.599783     55.599783    111.199567
     -4.829830     58.415313     58.415313    116.830625
     -4.819820     58.128578     58.128578    116.257156
     -4.809810     54.849156     54.849156    109.698312
     -4.799800     49.387524     49.387524     98.775048
     -4.789790     42.924487     42.924487     85.848975
     -4.779780     36.607255     36.607255     73.214511
     -4.769770     31.248353     31.248353     62.496707
     -4.759760     27.216793     27.216793     54.433586
     -4.749750     24.499719     24.499719     48.999438
     -4.739740     22.847270     22.847270     45.694541
     -4.729730     21.914800     21.914800     43.829600
     -4.719720     21.357774     21.357774     42.715549
     -4.709710     20.876716     20.876716     41.753432
     -4.699700     20.232664     20.232664     40.465327
     -4.689690     19.258575     19.258575     38.517151
     -4.679680     17.884764     17.884764     35.769527
     -4.669670     16.180298     16.180298     32.360596
     -4.659660     14.392933     14.392933     28.785866
     -4.649650     12.957950     12.957950     25.915901
     -4.639640     12.449645     12.449645     24.899290
     -4.629630     13.466586     13.466586     26.933171
     -4.619620     16.465018     16.465018     32.930037
     -4.609610     21.577595     21.577595     43.155191
     -4.599600     28.474379     28.474379     56.948758
     -4.589590     36.332680     36.332680     72.665361
     -4.579580     43.966688     43.966688     87.933375
     -4.569570     50.116200     50.116200    100.232400
     -4.559560     53.818654     53.818654    107.637309
     -4.549550     54.728967     54.728967    109.457934
     -4.539540     53.250097     53.250097    106.500193
     -4.529530     50.406487     50.406487    100.812975
     -4.519520     47.501474     47.501474     95.002947
     -4.509510     45.691124     45.691124     91.382248
     -4.499499     45.634258     45.634258     91.268516
     -4.489489     47.333215     47.333215     94.666431
     -4.479479     50.193278     50.193278    100.386557
     -4.469469     53.247538     53.247538    106.495076
     -4.459459     55.452410     55.452410    110.904819
     -4.449449     55.962170     55.962170    111.924340
     -4.439439     54.320918     54.320918    108.641836
     -4.429429     50.545056     50.545056    101.090112
     -4.419419     45.096681     45.096681     90.193362
     -4.409409     38.766899     38.766899     77.533798
     -4.399399     32.500049     32.500049     65.000099
     -4.389389     27.195892     27.195892     54.391785
     -4.379379     23.527987     23.527987     47.055975
     -4.369369     21.814620     21.814620     43.629239
     -4.359359     21.973197     21.973197     43.946394
     -4.349349     23.575155     23.575155     47.150309
     -4.339339     25.992220     25.992220     51.984440
     -4.329329     28.592201     28.592201     57.184403
     -4.319319     30.919691     30.919691     61.839381
     -4.309309     32.800385     32.800385     65.600771
     -4.299299     34.338299     34.338299     68.676599
     -4.289289     35.816313     35.816313     71.632626
     -4.279279     37.540633     37.540633     75.081267
     -4.269269     39.679738     39.679738     79.359476
     -4.259259     42.145522     42.145522     84.291043
     -4.249249     44.558448     44.558448     89.116895
     -4.239239     46.326107     46.326107     92.652214
     -4.229229     46.832242     46.832242     93.664483
     -4.219219     45.679764     45.679764     91.359529
     -4.209209     42.883917     42.883917     85.767835
     -4.199199     38.912316     38.912316     77.824631
     -4.189189     34.535181     34.535181     69.070362
     -4.179179     30.549585     30.549585     61.099169
     -4.169169     27.511549     27.511549     55.023099
     -4.159159     25.602150     25.602150     51.204301
     -4.149149     24.675286     24.675286     49.350572
     -4.139139     24.438308     24.438308     48.876616
     -4.129129     24.657606     24.657606     49.315212
     -4.119119     25.282225     25.282225     50.564451
     -4.109109     26.427382     26.427382     52.854764
     -4.099099     28.229732     28.229732     56.459464
     -4.089089     30.651464     30.651464     61.302927
     -4.079079     33.345775     33.345775     66.691549
     -4.069069     35.679089     35.679089     71.358178
     -4.059059     36.930545     36.930545     73.861089
     -4.049049     36.587934     36.587934     73.175869
     -4.039039     34.591900     34.591900     69.183800
     -4.029029     31.396934     31.396934     62.793868
     -4.019019     27.815948     27.815948     55.631896
     -4.009009     24.733823     24.733823     49.467647
     -3.998999     22.837637     22.837637     45.675274
     -3.988989     22.480798     22.480798     44.961595
     -3.978979     23.704282     23.704282     47.408565
     -3.968969     26.349323     26.349323     52.698645
     -3.958959     30.168502     30.168502     60.337005
     -3.948949     34.881675     34.881675     69.763349
     -3.938939     40.186706     40.186706     80.373413
     -3.928929     45.769711     45.769711     91.539423
     -3.918919     51.342924     51.342924    102.685849
     -3.908909     56.692945     56.692945    113.385890
     -3.898899     61.691869     61.691869    123.383738
     -3.888889     66.237807     66.237807    132.475613
     -3.878879     70.141721     70.141721    140.283441
     -3.868869     73.028189     73.028189    146.056377
     -3.858859     74.330952     74.330952    148.661905
     -3.848849     73.425338     73.425338    146.850676
     -3.838839     69.866229     69.866229    139.732457
     -3.828829     63.632528     63.632528    127.265056
     -3.818819     55.258227     55.258227    110.516453
     -3.808809     45.773079     45.773079     91.546158
     -3.798799     36.461715     36.461715     72.923430
     -3.788789     28.531311     28.531311     57.062621
     -3.778779     22.811424     22.811424     45.622847
     -3.768769     19.583987     19.583987     39.167974
     -3.758759     18.580321     18.580321     37.160642
     -3.748749     19.122102     19.122102     38.244204
     -3.738739     20.348468     20.348468     40.696936
     -3.728729     21.463645     21.463645     42.927290
     -3.718719     21.947192     21.947192     43.894384
     -3.708709     21.681781     21.681781     43.363561
     -3.698699     20.968621     20.968621     41.937241
     -3.688689     20.421294     20.421294     40.842588
     -3.678679     20.757351     20.757351     41.514701
     -3.668669     22.540546     22.540546     45.081092
     -3.658659     25.953926     25.953926     51.907853
     -3.648649     30.688290     30.688290     61.376579
     -3.638639     35.998669     35.998669     71.997338
     -3.628629     40.917139     40.917139     81.834277
     -3.618619     44.541000     44.541000     89.082000
     -3.608609     46.281099     46.281099     92.562198
     -3.598599     45.979701     45.979701     91.959402
     -3.588589     43.876860     43.876860     87.753719
     -3.578579     40.473046     40.473046     80.946092
     -3.568569     36.362567     36.362567     72.725135
     -3.558559     32.092488     32.092488     64.184977
     -3.548549     28.066279     28.066279     56.132559
     -3.538539     24.492936     24.492936     48.985872
     -3.528529     21.385137     21.385137     42.770275
     -3.518519     18.612606     18.612606     37.225213
     -3.508509     16.001276     16.001276     32.002551
     -3.498498     13.442671     13.442671     26.885342
     -3.488488     10.965718     10.965718     21.931436
     -3.478478      8.739862      8.739862     17.479724
     -3.468468      7.013322      7.013322     14.026644
     -3.458458      6.018623      6.018623     12.037245
     -3.448448      5.883598      5.883598     11.767197
     -3.438438      6.574834      6.574834     13.149668
     -3.428428      7.887193      7.887193     15.774386
     -3.418418      9.485186      9.485186     18.970371
     -3.408408     10.993705     10.993705     21.987410
     -3.398398     12.119088     12.119088     24.238177
     -3.388388     12.760648     12.760648     25.521296
     -3.378378     13.064395     13.064395     26.128790
     -3.368368     13.388510     13.388510     26.777019
     -3.358358     14.189113     14.189113     28.378226
     -3.348348     15.871085     15.871085     31.742170
     -3.338338     18.657908     18.657908     37.315817
     -3.328328     22.513575     22.513575     45.027150
     -3.318318     27.119808     27.119808     54.239615
     -3.308308     31.899685     31.899685     63.799369
     -3.298298     36.089779     36.089779     72.179557
     -3.288288     38.874607     38.874607     77.749213
     -3.278278     39.580973     39.580973     79.161947
     -3.268268     37.884397     37.884397     75.768793
     -3.258258     33.940754     33.940754     67.881509
     -3.248248     28.366716     28.366716     56.733432
     -3.238238     22.060001     22.060001     44.120002
     -3.228228     15.933786     15.933786     31.867573
     -3.218218     10.681134     10.681134     21.362267
     -3.208208      6.659307      6.659307     13.318615
     -3.198198      3.914214      3.914214      7.828427
     -3.188188      2.300700      2.300700      4.601400
     -3.178178      1.628832      1.628832      3.257664
     -3.168168      1.779076      1.779076      3.558152
     -3.158158      2.757823      2.757823      5.515646
     -3.148148      4.687841      4.687841      9.375682
     -3.138138      7.740890      7.740890     15.481779
     -3.128128     12.029386     12.029386     24.058772
     -3.118118     17.487449     17.487449     34.974897
     -3.108108     23.785725     23.785725     47.571450
     -3.098098     30.326476     30.326476     60.652952
     -3.088088     36.344242     36.344242     72.688485
     -3.078078     41.094469     41.094469     82.188937
     -3.068068     44.065407     44.065407     88.130814
     -3.058058     45.123749     45.123749     90.247499
     -3.048048     44.521934     44.521934     89.043867
     -3.038038     42.755064     42.755064     85.510128
     -3.028028     40.332140     40.332140     80.664281
     -3.018018     37.576997     37.576997     75.153993
     -3.008008     34.563180     34.563180     69.126359
     -2.997998     31.212889     31.212889     62.425778
     -2.987988     27.495182     27.495182     54.990363
     -2.977978     23.603173     23.603173     47.206346
     -2.967968     20.008165     20.008165     40.016330
     -2.957958     17.362946     17.362946     34.725891
     -2.947948     16.304111     16.304111     32.608221
     -2.937938     17.239812     17.239812     34.479624
     -2.927928     20.198587     20.198587     40.397174
     -2.917918     24.781473     24.781473     49.562946
     -2.907908     30.228181     30.228181     60.456361
     -2.897898     35.584065     35.584065     71.168129
     -2.887888     39.930373     39.930373     79.860746
     -2.877878     42.614736     42.614736     85.229472
     -2.867868     43.405742     43.405742     86.811484
     -2.857858     42.512094     42.512094     85.024187
     -2.847848     40.455868     40.455868     80.911736
     -2.837838     37.851246     37.851246     75.702492
     -2.827828     35.182737     35.182737     70.365473
     -2.817818     32.675880     32.675880     65.351760
     -2.807808     30.306867     30.306867     60.613735
     -2.797798     27.928580     27.928580     55.857159
     -2.787788     25.434870     25.434870     50.869741
     -2.777778     22.871607     22.871607     45.743215
     -2.767768     20.438737     20.438737     40.877475
     -2.757758     18.392532     18.392532     36.785064
     -2.747748     16.914759     16.914759     33.829519
     -2.737738     16.032552     16.032552     32.065105
     -2.727728     15.638528     15.638528     31.277056
     -2.717718     15.595091     15.595091     31.190183
     -2.707708     15.850475     15.850475     31.700949
     -2.697698     16.484019     16.484019     32.968039
     -2.687688     17.643598     17.643598     35.287197
     -2.677678     19.411437     19.411437     38.822875
     -2.667668     21.687723     21.687723     43.375445
     -2.657658     24.176441     24.176441     48.352881
     -2.647648     26.494471     26.494471     52.988942
     -2.637638     28.343283     28.343283     56.686565
     -2.627628     29.638595     29.638595     59.277190
     -2.617618     30.519472     30.519472     61.038943
     -2.607608     31.237492     31.237492     62.474984
     -2.597598     32.002213     32.002213     64.004425
     -2.587588     32.876790     32.876790     65.753579
     -2.577578     33.768901     33.768901     67.537802
     -2.567568     34.490902     34.490902     68.981803
     -2.557558     34.828064     34.828064     69.656128
     -2.547548     34.577211     34.577211     69.154422
     -2.537538     33.568722     33.568722     67.137443
     -2.527528     31.709533     31.709533     63.419066
     -2.517518     29.058922     29.058922     58.117844
     -2.507508     25.898393     25.898393     51.796787
     -2.497497     22.731770     22.731770     45.463540
     -2.487487     20.179029     20.179029     40.358058
     -2.477477     18.789995     18.789995     37.579990
     -2.467467     18.857380     18.857380     37.714760
     -2.457457     20.317815     20.317815     40.635630
     -2.447447     22.790474     22.790474     45.580948
     -2.437437     25.738408     25.738408     51.476816
     -2.427427     28.680087     28.680087     57.360175
     -2.417417     31.354313     31.354313     62.708626
     -2.407407     33.762184     33.762184     67.524367
     -2.397397     36.067373     36.067373     72.134747
     -2.387387     38.404952     38.404952     76.809904
     -2.377377     40.696553     40.696553     81.393106
     -2.367367     42.571709     42.571709     85.143419
     -2.357357     43.448351     43.448351     86.896701
     -2.347347     42.749584     42.749584     85.499168
     -2.337337     40.164458     40.164458     80.328916
     -2.327327     35.833330     35.833330     71.666659
     -2.317317     30.370744     30.370744     60.741488
     -2.307307     24.715015     24.715015     49.430030
     -2.297297     19.871844     19.871844     39.743688
     -2.287287     16.656673     16.656673     33.313346
     -2.277277     15.522993     15.522993     31.045985
     -2.267267     16.512195     16.512195     33.024389
     -2.257257     19.310053     19.310053     38.620106
     -2.247247     23.367686     23.367686     46.735372
     -2.237237     28.040780     28.040780     56.081560
     -2.227227     32.708691     32.708691     65.417381
     -2.217217     36.848195     36.848195     73.696390
     -2.207207     40.055732     40.055732     80.111465
     -2.197197     42.035569     42.035569     84.071138
     -2.187187     42.588524     42.588524     85.177049
     -2.177177     41.631481     41.631481     83.262962
     -2.167167     39.247854     39.247854     78.495709
     -2.157157     35.730767     35.730767     71.461533
     -2.147147     31.564672     31.564672     63.129343
     -2.137137     27.317692     27.317692     54.635384
     -2.127127     23.474454     23.474454     46.948908
     -2.117117     20.287790     20.287790     40.575579
     -2.107107     17.728565     17.728565     35.457131
     -2.097097     15.560517     15.560517     31.121035
     -2.087087     13.495806     13.495806     26.991611
     -2.077077     11.345259     11.345259     22.690518
     -2.067067      9.090410      9.090410     18.180820
     -2.057057      6.858039      6.858039     13.716079
     -2.047047      4.832684      4.832684      9.665368
     -2.037037      3.165337      3.165337      6.330675
     -2.027027      1.921806      1.921806      3.843612
     -2.017017      1.081074      1.081074      2.162148
     -2.007007      0.567074      0.567074      1.134148
     -1.996997      0.289084      0.289084      0.578168
     -1.986987      0.173481      0.173481      0.346963
     -1.976977      0.181918      0.181918      0.363836
     -1.966967      0.319056      0.319056      0.638113
     -1.956957      0.633917      0.633917      1.267833
     -1.946947      1.214882      1.214882      2.429764
     -1.936937      2.174190      2.174190      4.348380
     -1.926927      3.617625      3.617625      7.235250
     -1.916917      5.601260      5.601260     11.202520
     -1.906907      8.087113      8.087113     16.174226
     -1.896897     10.917096     10.917096     21.834193
     -1.886887     13.822563     13.822563     27.645126
     -1.876877     16.473703     16.473703     32.947405
     -1.866867     18.555778     18.555778     37.111555
     -1.856857     19.847904     19.847904     39.695807
     -1.846847     20.279903     20.279903     40.559807
     -1.836837     19.950177     19.950177     39.900354
     -1.826827     19.096687     19.096687     38.193375
     -1.816817     18.023709     18.023709     36.047419
     -1.806807     17.002636     17.002636     34.005272
     -1.796797     16.183286     16.183286     32.366572
     -1.786787     15.558990     15.558990     31.117980
     -1.776777     15.009560     15.009560     30.019120
     -1.766767     14.403965     14.403965     28.807930
     -1.756757     13.704497     13.704497     27.408994
     -1.746747     13.007362     13.007362     26.014724
     -1.736737     12.491219     12.491219     24.982438
     -1.726727     12.303812     12.303812     24.607625
     -1.716717     12.458547     12.458547     24.917094
     -1.706707     12.808965     12.808965     25.617931
     -1.696697     13.121216     13.121216     26.242432
     -1.686687     13.202920     13.202920     26.405839
     -1.676677     13.010326     13.010326     26.020652
     -1.666667     12.667364     12.667364     25.334729
     -1.656657     12.383067     12.383067     24.766134
     -1.646647     12.315531     12.315531     24.631062
     -1.636637     12.463320     12.463320     24.926639
     -1.626627     12.649699     12.649699     25.299397
