# EIG2DOS: Utility for SIESTA to obtain the electronic density of states
#  E. Artacho, Apr 1999, A. Garcia, Apr 2012
#  Nick R. Papior, Feb 2017
# ------------------------------------------
# Eigenvalues calculated from a non-polarized calculation
# Eigenvalues read from siesta.EIG
# Kpoint weights read from siesta.KP
# Using smearing parameter:   0.0500
# Using 1000 points in the energy range
# Selected bands: 1 to: 2981
# Emin, Emax in file for selected band(s):    -27.1060064    218.3341630
# Nbands, Nspin, Nk   =   2981     1     1
# E_F                 =    -4.2767 eV --> (shifted to ZERO)
# Broadening          =     0.0500 eV
#
#        E            N(up)  (=)   N(down)         Ntot
     -5.000000     37.527657     37.527657     75.055313
     -4.989990     39.701109     39.701109     79.402218
     -4.979980     41.731720     41.731720     83.463440
     -4.969970     43.177428     43.177428     86.354856
     -4.959960     43.635194     43.635194     87.270388
     -4.949950     42.881398     42.881398     85.762796
     -4.939940     40.952663     40.952663     81.905325
     -4.929930     38.154989     38.154989     76.309978
     -4.919920     35.018799     35.018799     70.037598
     -4.909910     32.224794     32.224794     64.449588
     -4.899900     30.509641     30.509641     61.019282
     -4.889890     30.539163     30.539163     61.078326
     -4.879880     32.737131     32.737131     65.474262
     -4.869870     37.093973     37.093973     74.187946
     -4.859860     43.033148     43.033148     86.066295
     -4.849850     49.437047     49.437047     98.874095
     -4.839840     54.889521     54.889521    109.779042
     -4.829830     58.085318     58.085318    116.170636
     -4.819820     58.249333     58.249333    116.498667
     -4.809810     55.377472     55.377472    110.754945
     -4.799800     50.189251     50.189251    100.378502
     -4.789790     43.827062     43.827062     87.654125
     -4.779780     37.457083     37.457083     74.914166
     -4.769770     31.949765     31.949765     63.899530
     -4.759760     27.742631     27.742631     55.485262
     -4.749750     24.878025     24.878025     49.756049
     -4.739740     23.135859     23.135859     46.271718
     -4.729730     22.174916     22.174916     44.349831
     -4.719720     21.633899     21.633899     43.267799
     -4.709710     21.185928     21.185928     42.371856
     -4.699700     20.564314     20.564314     41.128629
     -4.689690     19.582359     19.582359     39.164719
     -4.679680     18.162454     18.162454     36.324908
     -4.669670     16.375219     16.375219     32.750438
     -4.659660     14.473057     14.473057     28.946114
     -4.649650     12.892835     12.892835     25.785671
     -4.639640     12.205912     12.205912     24.411825
     -4.629630     13.008727     13.008727     26.017453
     -4.619620     15.766449     15.766449     31.532898
     -4.609610     20.641285     20.641285     41.282569
     -4.599600     27.355151     27.355151     54.710301
     -4.589590     35.148308     35.148308     70.296616
     -4.579580     42.886395     42.886395     85.772790
     -4.569570     49.324794     49.324794     98.649588
     -4.559560     53.468600     53.468600    106.937199
     -4.549550     54.902825     54.902825    109.805650
     -4.539540     53.953515     53.953515    107.907031
     -4.529530     51.595668     51.595668    103.191335
     -4.519520     49.126821     49.126821     98.253642
     -4.509510     47.724865     47.724865     95.449731
     -4.499499     48.055776     48.055776     96.111552
     -4.489489     50.072123     50.072123    100.144245
     -4.479479     53.063146     53.063146    106.126293
     -4.469469     55.920911     55.920911    111.841821
     -4.459459     57.513868     57.513868    115.027736
     -4.449449     57.033229     57.033229    114.066458
     -4.439439     54.202885     54.202885    108.405770
     -4.429429     49.306177     49.306177     98.612354
     -4.419419     43.054842     43.054842     86.109685
     -4.409409     36.375132     36.375132     72.750264
     -4.399399     30.192959     30.192959     60.385919
     -4.389389     25.269059     25.269059     50.538118
     -4.379379     22.094659     22.094659     44.189317
     -4.369369     20.837660     20.837660     41.675320
     -4.359359     21.335774     21.335774     42.671549
     -4.349349     23.147364     23.147364     46.294728
     -4.339339     25.668079     25.668079     51.336158
     -4.329329     28.295691     28.295691     56.591382
     -4.319319     30.594937     30.594937     61.189874
     -4.309309     32.403827     32.403827     64.807654
     -4.299299     33.842565     33.842565     67.685129
     -4.289289     35.223555     35.223555     70.447109
     -4.279279     36.894489     36.894489     73.788978
     -4.269269     39.064315     39.064315     78.128631
     -4.259259     41.666678     41.666678     83.333356
     -4.249249     44.312611     44.312611     88.625222
     -4.239239     46.368859     46.368859     92.737718
     -4.229229     47.159136     47.159136     94.318273
     -4.219219     46.226116     46.226116     92.452231
     -4.209209     43.542475     43.542475     87.084950
     -4.199199     39.561784     39.561784     79.123568
     -4.189189     35.070151     35.070151     70.140303
     -4.179179     30.903376     30.903376     61.806753
     -4.169169     27.666502     27.666502     55.333004
     -4.159159     25.585733     25.585733     51.171465
     -4.149149     24.544025     24.544025     49.088051
     -4.139139     24.254449     24.254449     48.508899
     -4.129129     24.465678     24.465678     48.931356
     -4.119119     25.094026     25.094026     50.188052
     -4.109109     26.222811     26.222811     52.445622
     -4.099099     27.975537     27.975537     55.951074
     -4.089089     30.330787     30.330787     60.661573
     -4.079079     32.982965     32.982965     65.965930
     -4.069069     35.343374     35.343374     70.686748
     -4.059059     36.712223     36.712223     73.424446
     -4.049049     36.557291     36.557291     73.114583
     -4.039039     34.763269     34.763269     69.526539
     -4.029029     31.718871     31.718871     63.437742
     -4.019019     28.193226     28.193226     56.386452
     -4.009009     25.068051     25.068051     50.136101
     -3.998999     23.063519     23.063519     46.127037
     -3.988989     22.580425     22.580425     45.160851
     -3.978979     23.697143     23.697143     47.394286
     -3.968969     26.269593     26.269593     52.539186
     -3.958959     30.044883     30.044883     60.089766
     -3.948949     34.728370     34.728370     69.456740
     -3.938939     40.004425     40.004425     80.008849
     -3.928929     45.550477     45.550477     91.100955
     -3.918919     51.074487     51.074487    102.148974
     -3.908909     56.363583     56.363583    112.727167
     -3.898899     61.298679     61.298679    122.597358
     -3.888889     65.798601     65.798601    131.597202
     -3.878879     69.705134     69.705134    139.410268
     -3.868869     72.673617     72.673617    145.347234
     -3.858859     74.152890     74.152890    148.305780
     -3.848849     73.504585     73.504585    147.009169
     -3.838839     70.238644     70.238644    140.477288
     -3.828829     64.269252     64.269252    128.538504
     -3.818819     56.067147     56.067147    112.134294
     -3.808809     46.621940     46.621940     93.243879
     -3.798799     37.213960     37.213960     74.427921
     -3.788789     29.081424     29.081424     58.162849
     -3.778779     23.108558     23.108558     46.217116
     -3.768769     19.638606     19.638606     39.277212
     -3.758759     18.454607     18.454607     36.909215
     -3.748749     18.908660     18.908660     37.817319
     -3.738739     20.143358     20.143358     40.286716
     -3.728729     21.340081     21.340081     42.680162
     -3.718719     21.935964     21.935964     43.871928
     -3.708709     21.763447     21.763447     43.526893
     -3.698699     21.080277     21.080277     42.160555
     -3.688689     20.477201     20.477201     40.954402
     -3.678679     20.678382     20.678382     41.356764
     -3.668669     22.283603     22.283603     44.567207
     -3.658659     25.530843     25.530843     51.061686
     -3.648649     30.166152     30.166152     60.332304
     -3.638639     35.480210     35.480210     70.960419
     -3.628629     40.508490     40.508490     81.016980
     -3.618619     44.320076     44.320076     88.640151
     -3.608609     46.279127     46.279127     92.558254
     -3.598599     46.181103     46.181103     92.362205
     -3.588589     44.233383     44.233383     88.466765
     -3.578579     40.922824     40.922824     81.845648
     -3.568569     36.846040     36.846040     73.692079
     -3.558559     32.562224     32.562224     65.124448
     -3.548549     28.491795     28.491795     56.983589
     -3.538539     24.862064     24.862064     49.724128
     -3.528529     21.701869     21.701869     43.403738
     -3.518519     18.890765     18.890765     37.781529
     -3.508509     16.255142     16.255142     32.510285
     -3.498498     13.678063     13.678063     27.356127
     -3.488488     11.175482     11.175482     22.350965
     -3.478478      8.905643      8.905643     17.811285
     -3.468468      7.112466      7.112466     14.224931
     -3.458458      6.033250      6.033250     12.066499
     -3.448448      5.808850      5.808850     11.617700
     -3.438438      6.424042      6.424042     12.848085
     -3.428428      7.692204      7.692204     15.384408
     -3.418418      9.290530      9.290530     18.581060
     -3.408408     10.844748     10.844748     21.689496
     -3.398398     12.046918     12.046918     24.093837
     -3.388388     12.768842     12.768842     25.537685
     -3.378378     13.122935     13.122935     26.245871
     -3.368368     13.437460     13.437460     26.874921
     -3.358358     14.151018     14.151018     28.302036
     -3.348348     15.668932     15.668932     31.337864
     -3.338338     18.235725     18.235725     36.471451
     -3.328328     21.857297     21.857297     43.714594
     -3.318318     26.274471     26.274471     52.548941
     -3.308308     30.975470     30.975470     61.950939
     -3.298298     35.248100     35.248100     70.496199
     -3.288288     38.290871     38.290871     76.581741
     -3.278278     39.392683     39.392683     78.785367
     -3.268268     38.144803     38.144803     76.289607
     -3.258258     34.599915     34.599915     69.199830
     -3.248248     29.290073     29.290073     58.580147
     -3.238238     23.075913     23.075913     46.151826
     -3.228228     16.887940     16.887940     33.775880
     -3.218218     11.475721     11.475721     22.951442
     -3.208208      7.266562      7.266562     14.533124
     -3.198198      4.368161      4.368161      8.736323
     -3.188188      2.678611      2.678611      5.357221
     -3.178178      2.031965      2.031965      4.063930
     -3.168168      2.314762      2.314762      4.629524
     -3.158158      3.518577      3.518577      7.037154
     -3.148148      5.723463      5.723463     11.446927
     -3.138138      9.027269      9.027269     18.054539
     -3.128128     13.448227     13.448227     26.896454
     -3.118118     18.835920     18.835920     37.671840
     -3.108108     24.826799     24.826799     49.653599
     -3.098098     30.870118     30.870118     61.740236
     -3.088088     36.327534     36.327534     72.655069
     -3.078078     40.620593     40.620593     81.241187
     -3.068068     43.375866     43.375866     86.751732
     -3.058058     44.509459     44.509459     89.018919
     -3.048048     44.209749     44.209749     88.419498
     -3.038038     42.819521     42.819521     85.639042
     -3.028028     40.671063     40.671063     81.342127
     -3.018018     37.960234     37.960234     75.920469
     -3.008008     34.730735     34.730735     69.461469
     -2.997998     30.977613     30.977613     61.955226
     -2.987988     26.805928     26.805928     53.611856
     -2.977978     22.546057     22.546057     45.092114
     -2.967968     18.754514     18.754514     37.509028
     -2.957958     16.095662     16.095662     32.191324
     -2.947948     15.158043     15.158043     30.316087
     -2.937938     16.277240     16.277240     32.554480
     -2.927928     19.419613     19.419613     38.839227
     -2.917918     24.153838     24.153838     48.307677
     -2.907908     29.717706     29.717706     59.435412
     -2.897898     35.173151     35.173151     70.346302
     -2.887888     39.621233     39.621233     79.242466
     -2.877878     42.421080     42.421080     84.842160
     -2.867868     43.339729     43.339729     86.679459
     -2.857858     42.573116     42.573116     85.146233
     -2.847848     40.625511     40.625511     81.251023
     -2.837838     38.095583     38.095583     76.191166
     -2.827828     35.459968     35.459968     70.919937
     -2.817818     32.945363     32.945363     65.890726
     -2.807808     30.535688     30.535688     61.071376
     -2.797798     28.093969     28.093969     56.187939
     -2.787788     25.523546     25.523546     51.047091
     -2.777778     22.878701     22.878701     45.757402
     -2.767768     20.368244     20.368244     40.736487
     -2.757758     18.258661     18.258661     36.517322
     -2.747748     16.741257     16.741257     33.482513
     -2.737738     15.847046     15.847046     31.694092
     -2.727728     15.462018     15.462018     30.924036
     -2.717718     15.431118     15.431118     30.862236
     -2.707708     15.681056     15.681056     31.362113
     -2.697698     16.277357     16.277357     32.554714
     -2.687688     17.372038     17.372038     34.744075
     -2.677678     19.070861     19.070861     38.141721
     -2.667668     21.306576     21.306576     42.613153
     -2.657658     23.807067     23.807067     47.614133
     -2.647648     26.189542     26.189542     52.379084
     -2.637638     28.129833     28.129833     56.259667
     -2.627628     29.504643     29.504643     59.009287
     -2.617618     30.421135     30.421135     60.842271
     -2.607608     31.122214     31.122214     62.244428
     -2.597598     31.834545     31.834545     63.669090
     -2.587588     32.653399     32.653399     65.306799
     -2.577578     33.518007     33.518007     67.036015
     -2.567568     34.261023     34.261023     68.522046
     -2.557558     34.674381     34.674381     69.348762
     -2.547548     34.549962     34.549962     69.099925
     -2.537538     33.702370     33.702370     67.404740
     -2.527528     32.010447     32.010447     64.020895
     -2.517518     29.494023     29.494023     58.988047
     -2.507508     26.392405     26.392405     52.784811
     -2.497497     23.180252     23.180252     46.360504
     -2.487487     20.477012     20.477012     40.954023
     -2.477477     18.866595     18.866595     37.733190
     -2.467467     18.701713     18.701713     37.403427
     -2.457457     19.984289     19.984289     39.968578
     -2.447447     22.380532     22.380532     44.761064
     -2.437437     25.366273     25.366273     50.732546
     -2.427427     28.436701     28.436701     56.873401
     -2.417417     31.283412     31.283412     62.566824
     -2.407407     33.855849     33.855849     67.711698
     -2.397397     36.279436     36.279436     72.558871
     -2.387387     38.674223     38.674223     77.348446
     -2.377377     40.970365     40.970365     81.940729
     -2.367367     42.822449     42.822449     85.644897
     -2.357357     43.678914     43.678914     87.357827
     -2.347347     42.986755     42.986755     85.973511
     -2.337337     40.442795     40.442795     80.885590
     -2.327327     36.176103     36.176103     72.352207
     -2.317317     30.776560     30.776560     61.553119
     -2.307307     25.156354     25.156354     50.312709
     -2.297297     20.305347     20.305347     40.610693
     -2.287287     17.038610     17.038610     34.077220
     -2.277277     15.821407     15.821407     31.642814
     -2.267267     16.710623     16.710623     33.421245
     -2.257257     19.403612     19.403612     38.807224
     -2.247247     23.356616     23.356616     46.713231
     -2.237237     27.926927     27.926927     55.853854
     -2.227227     32.497546     32.497546     64.995092
     -2.217217     36.554986     36.554986     73.109972
     -2.207207     39.711035     39.711035     79.422069
     -2.197197     41.685402     41.685402     83.370804
     -2.187187     42.286258     42.286258     84.572515
     -2.177177     41.423260     41.423260     82.846520
     -2.167167     39.157530     39.157530     78.315060
     -2.157157     35.751966     35.751966     71.503932
     -2.147147     31.664995     31.664995     63.329991
     -2.137137     27.453961     27.453961     54.907922
     -2.127127     23.611691     23.611691     47.223381
     -2.117117     20.412282     20.412282     40.824563
     -2.107107     17.848690     17.848690     35.697380
     -2.097097     15.696101     15.696101     31.392203
     -2.087087     13.663093     13.663093     27.326186
     -2.077077     11.546141     11.546141     23.092282
     -2.067067      9.310904      9.310904     18.621809
     -2.057057      7.075057      7.075057     14.150115
     -2.047047      5.023914      5.023914     10.047828
     -2.037037      3.316733      3.316733      6.633465
     -2.027027      2.029913      2.029913      4.059825
     -2.017017      1.150775      1.150775      2.301549
     -2.007007      0.607176      0.607176      1.214352
     -1.996997      0.308081      0.308081      0.616162
     -1.986987      0.176599      0.176599      0.353199
     -1.976977      0.169428      0.169428      0.338855
     -1.966967      0.285438      0.285438      0.570877
     -1.956957      0.567839      0.567839      1.135679
     -1.946947      1.100638      1.100638      2.201276
     -1.936937      1.995530      1.995530      3.991059
     -1.926927      3.364281      3.364281      6.728562
     -1.916917      5.276751      5.276751     10.553501
     -1.906907      7.714491      7.714491     15.428982
     -1.896897     10.538642     10.538642     21.077283
     -1.886887     13.491200     13.491200     26.982400
     -1.876877     16.237830     16.237830     32.475659
     -1.866867     18.443060     18.443060     36.886119
     -1.856857     19.854942     19.854942     39.709883
     -1.846847     20.372625     20.372625     40.745251
     -1.836837     20.075733     20.075733     40.151467
     -1.826827     19.203893     19.203893     38.407787
     -1.816817     18.086880     18.086880     36.173759
     -1.806807     17.042698     17.042698     34.085395
     -1.796797     16.279687     16.279687     32.559374
     -1.786787     15.846282     15.846282     31.692564
     -1.776777     15.654422     15.654422     31.308845
     -1.766767     15.562303     15.562303     31.124605
     -1.756757     15.464204     15.464204     30.928408
     -1.746747     15.330181     15.330181     30.660362
     -1.736737     15.175125     15.175125     30.350251
     -1.726727     14.990309     14.990309     29.980618
     -1.716717     14.699813     14.699813     29.399626
     -1.706707     14.185521     14.185521     28.371041
     -1.696697     13.371093     13.371093     26.742185
     -1.686687     12.307830     12.307830     24.615660
     -1.676677     11.198178     11.198178     22.396355
     -1.666667     10.329746     10.329746     20.659493
     -1.656657      9.947463      9.947463     19.894926
     -1.646647     10.129042     10.129042     20.258083
     -1.636637     10.729457     10.729457     21.458914
     -1.626627     11.426486     11.426486     22.852973
