# EIG2DOS: Utility for SIESTA to obtain the electronic density of states
#  E. Artacho, Apr 1999, A. Garcia, Apr 2012
#  Nick R. Papior, Feb 2017
# ------------------------------------------
# Eigenvalues calculated from a non-polarized calculation
# Eigenvalues read from siesta.EIG
# Kpoint weights read from siesta.KP
# Using smearing parameter:   0.0500
# Using 1000 points in the energy range
# Selected bands: 1 to: 2981
# Emin, Emax in file for selected band(s):    -27.3755635    218.4115670
# Nbands, Nspin, Nk   =   2981     1     1
# E_F                 =    -4.1947 eV --> (shifted to ZERO)
# Broadening          =     0.0500 eV
#
#        E            N(up)  (=)   N(down)         Ntot
     -5.000000     33.328730     33.328730     66.657460
     -4.989990     38.321258     38.321258     76.642517
     -4.979980     42.758135     42.758135     85.516269
     -4.969970     45.849017     45.849017     91.698035
     -4.959960     47.011874     47.011874     94.023749
     -4.949950     46.068671     46.068671     92.137342
     -4.939940     43.308192     43.308192     86.616384
     -4.929930     39.410128     39.410128     78.820255
     -4.919920     35.284248     35.284248     70.568496
     -4.909910     31.891636     31.891636     63.783272
     -4.899900     30.084156     30.084156     60.168312
     -4.889890     30.460686     30.460686     60.921372
     -4.879880     33.232709     33.232709     66.465419
     -4.869870     38.122992     38.122992     76.245985
     -4.859860     44.355658     44.355658     88.711316
     -4.849850     50.790853     50.790853    101.581705
     -4.839840     56.199448     56.199448    112.398897
     -4.829830     59.594566     59.594566    119.189131
     -4.819820     60.491335     60.491335    120.982670
     -4.809810     58.989562     58.989562    117.979124
     -4.799800     55.655697     55.655697    111.311393
     -4.789790     51.272411     51.272411    102.544822
     -4.779780     46.573841     46.573841     93.147681
     -4.769770     42.069937     42.069937     84.139873
     -4.759760     38.002408     38.002408     76.004816
     -4.749750     34.407836     34.407836     68.815672
     -4.739740     31.224843     31.224843     62.449687
     -4.729730     28.382365     28.382365     56.764729
     -4.719720     25.834565     25.834565     51.669129
     -4.709710     23.545924     23.545924     47.091849
     -4.699700     21.459731     21.459731     42.919463
     -4.689690     19.491794     19.491794     38.983589
     -4.679680     17.573859     17.573859     35.147719
     -4.669670     15.736188     15.736188     31.472377
     -4.659660     14.186197     14.186197     28.372394
     -4.649650     13.330188     13.330188     26.660376
     -4.639640     13.704128     13.704128     27.408257
     -4.629630     15.816473     15.816473     31.632947
     -4.619620     19.944522     19.944522     39.889044
     -4.609610     25.953481     25.953481     51.906963
     -4.599600     33.216322     33.216322     66.432645
     -4.589590     40.693838     40.693838     81.387676
     -4.579580     47.182452     47.182452     94.364904
     -4.569570     51.663799     51.663799    103.327598
     -4.559560     53.629023     53.629023    107.258047
     -4.549550     53.241959     53.241959    106.483918
     -4.539540     51.264140     51.264140    102.528279
     -4.529530     48.765712     48.765712     97.531425
     -4.519520     46.738279     46.738279     93.476558
     -4.509510     45.763214     45.763214     91.526428
     -4.499499     45.858002     45.858002     91.716005
     -4.489489     46.543046     46.543046     93.086092
     -4.479479     47.080651     47.080651     94.161303
     -4.469469     46.775185     46.775185     93.550369
     -4.459459     45.212572     45.212572     90.425144
     -4.449449     42.359057     42.359057     84.718114
     -4.439439     38.510688     38.510688     77.021377
     -4.429429     34.150472     34.150472     68.300945
     -4.419419     29.797493     29.797493     59.594986
     -4.409409     25.910869     25.910869     51.821739
     -4.399399     22.859070     22.859070     45.718140
     -4.389389     20.918741     20.918741     41.837481
     -4.379379     20.258370     20.258370     40.516740
     -4.369369     20.893891     20.893891     41.787781
     -4.359359     22.647236     22.647236     45.294472
     -4.349349     25.157284     25.157284     50.314567
     -4.339339     27.968701     27.968701     55.937401
     -4.329329     30.674776     30.674776     61.349553
     -4.319319     33.051075     33.051075     66.102149
     -4.309309     35.114123     35.114123     70.228246
     -4.299299     37.072954     37.072954     74.145908
     -4.289289     39.189343     39.189343     78.378686
     -4.279279     41.601238     41.601238     83.202476
     -4.269269     44.181197     44.181197     88.362393
     -4.259259     46.495648     46.495648     92.991296
     -4.249249     47.901336     47.901336     95.802671
     -4.239239     47.763709     47.763709     95.527418
     -4.229229     45.721723     45.721723     91.443445
     -4.219219     41.884515     41.884515     83.769030
     -4.209209     36.859180     36.859180     73.718359
     -4.199199     31.580643     31.580643     63.161286
     -4.189189     27.010369     27.010369     54.020738
     -4.179179     23.835431     23.835431     47.670863
     -4.169169     22.295784     22.295784     44.591568
     -4.159159     22.200406     22.200406     44.400812
     -4.149149     23.103010     23.103010     46.206020
     -4.139139     24.541310     24.541310     49.082621
     -4.129129     26.226156     26.226156     52.452313
     -4.119119     28.097990     28.097990     56.195979
     -4.109109     30.231994     30.231994     60.463987
     -4.099099     32.646803     32.646803     65.293605
     -4.089089     35.126146     35.126146     70.252292
     -4.079079     37.168273     37.168273     74.336547
     -4.069069     38.119391     38.119391     76.238781
     -4.059059     37.445443     37.445443     74.890887
     -4.049049     35.008371     35.008371     70.016742
     -4.039039     31.197970     31.197970     62.395941
     -4.029029     26.844619     26.844619     53.689238
     -4.019019     22.956138     22.956138     45.912276
     -4.009009     20.408957     20.408957     40.817913
     -3.998999     19.729662     19.729662     39.459324
     -3.988989     21.035524     21.035524     42.071049
     -3.978979     24.113750     24.113750     48.227501
     -3.968969     28.563900     28.563900     57.127799
     -3.958959     33.928745     33.928745     67.857490
     -3.948949     39.778775     39.778775     79.557551
     -3.938939     45.756542     45.756542     91.513085
     -3.928929     51.599765     51.599765    103.199531
     -3.918919     57.146140     57.146140    114.292279
     -3.908909     62.303737     62.303737    124.607474
     -3.898899     66.975927     66.975927    133.951854
     -3.888889     70.961689     70.961689    141.923378
     -3.878879     73.885815     73.885815    147.771630
     -3.868869     75.217356     75.217356    150.434713
     -3.858859     74.398152     74.398152    148.796304
     -3.848849     71.045603     71.045603    142.091205
     -3.838839     65.148988     65.148988    130.297977
     -3.828829     57.172202     57.172202    114.344404
     -3.818819     48.010672     48.010672     96.021343
     -3.808809     38.808128     38.808128     77.616256
     -3.798799     30.692168     30.692168     61.384336
     -3.788789     24.514102     24.514102     49.028203
     -3.778779     20.671028     20.671028     41.342055
     -3.768769     19.055025     19.055025     38.110049
     -3.758759     19.132774     19.132774     38.265548
     -3.748749     20.124340     20.124340     40.248680
     -3.738739     21.229796     21.229796     42.459591
     -3.728729     21.846822     21.846822     43.693644
     -3.718719     21.727776     21.727776     43.455552
     -3.708709     21.037857     21.037857     42.075714
     -3.698699     20.295723     20.295723     40.591446
     -3.688689     20.204195     20.204195     40.408390
     -3.678679     21.409842     21.409842     42.819683
     -3.668669     24.259553     24.259553     48.519106
     -3.658659     28.636727     28.636727     57.273454
     -3.648649     33.944793     33.944793     67.889585
     -3.638639     39.256752     39.256752     78.513504
     -3.628629     43.581658     43.581658     87.163316
     -3.618619     46.146387     46.146387     92.292774
     -3.608609     46.586245     46.586245     93.172490
     -3.598599     44.986270     44.986270     89.972539
     -3.588589     41.786549     41.786549     83.573098
     -3.578579     37.615053     37.615053     75.230105
     -3.568569     33.116376     33.116376     66.232752
     -3.558559     28.817389     28.817389     57.634779
     -3.548549     25.043387     25.043387     50.086774
     -3.538539     21.890021     21.890021     43.780043
     -3.528529     19.258093     19.258093     38.516185
     -3.518519     16.949394     16.949394     33.898789
     -3.508509     14.796649     14.796649     29.593298
     -3.498498     12.776626     12.776626     25.553251
     -3.488488     11.055384     11.055384     22.110768
     -3.478478      9.942720      9.942720     19.885441
     -3.468468      9.772235      9.772235     19.544470
     -3.458458     10.752245     10.752245     21.504490
     -3.448448     12.841908     12.841908     25.683816
     -3.438438     15.700241     15.700241     31.400483
     -3.428428     18.737809     18.737809     37.475619
     -3.418418     21.270888     21.270888     42.541776
     -3.408408     22.737502     22.737502     45.475004
     -3.398398     22.898806     22.898806     45.797612
     -3.388388     21.941958     21.941958     43.883917
     -3.378378     20.435707     20.435707     40.871415
     -3.368368     19.153761     19.153761     38.307522
     -3.358358     18.837477     18.837477     37.674955
     -3.348348     19.985701     19.985701     39.971401
     -3.338338     22.731055     22.731055     45.462109
     -3.328328     26.814974     26.814974     53.629948
     -3.318318     31.642711     31.642711     63.285422
     -3.308308     36.398134     36.398134     72.796269
     -3.298298     40.209003     40.209003     80.418005
     -3.288288     42.347258     42.347258     84.694515
     -3.278278     42.417943     42.417943     84.835887
     -3.268268     40.462451     40.462451     80.924901
     -3.258258     36.916825     36.916825     73.833651
     -3.248248     32.432530     32.432530     64.865060
     -3.238238     27.644437     27.644437     55.288874
     -3.228228     22.999492     22.999492     45.998983
     -3.218218     18.715068     18.715068     37.430135
     -3.208208     14.852652     14.852652     29.705304
     -3.198198     11.432421     11.432421     22.864842
     -3.188188      8.514480      8.514480     17.028961
     -3.178178      6.218841      6.218841     12.437682
     -3.168168      4.703840      4.703840      9.407680
     -3.158158      4.137359      4.137359      8.274719
     -3.148148      4.676472      4.676472      9.352944
     -3.138138      6.444240      6.444240     12.888479
     -3.128128      9.483510      9.483510     18.967020
     -3.118118     13.685052     13.685052     27.370104
     -3.108108     18.718658     18.718658     37.437316
     -3.098098     24.016919     24.016919     48.033839
     -3.088088     28.851978     28.851978     57.703956
     -3.078078     32.503075     32.503075     65.006150
     -3.068068     34.457884     34.457884     68.915768
     -3.058058     34.558380     34.558380     69.116760
     -3.048048     33.019189     33.019189     66.038378
     -3.038038     30.309718     30.309718     60.619437
     -3.028028     26.964373     26.964373     53.928747
     -3.018018     23.420742     23.420742     46.841483
     -3.008008     19.960422     19.960422     39.920843
     -2.997998     16.759645     16.759645     33.519290
     -2.987988     13.993401     13.993401     27.986801
     -2.977978     11.916042     11.916042     23.832084
     -2.967968     10.867663     10.867663     21.735326
     -2.957958     11.202260     11.202260     22.404520
     -2.947948     13.169874     13.169874     26.339748
     -2.937938     16.797976     16.797976     33.595951
     -2.927928     21.813874     21.813874     43.627747
     -2.917918     27.640029     27.640029     55.280058
     -2.907908     33.479134     33.479134     66.958269
     -2.897898     38.481185     38.481185     76.962369
     -2.887888     41.951754     41.951754     83.903507
     -2.877878     43.532824     43.532824     87.065649
     -2.867868     43.284082     43.284082     86.568164
     -2.857858     41.624430     41.624430     83.248860
     -2.847848     39.151874     39.151874     78.303749
     -2.837838     36.417353     36.417353     72.834706
     -2.827828     33.752296     33.752296     67.504592
     -2.817818     31.223474     31.223474     62.446948
     -2.807808     28.723020     28.723020     57.446039
     -2.797798     26.131675     26.131675     52.263350
     -2.787788     23.458847     23.458847     46.917694
     -2.777778     20.883374     20.883374     41.766748
     -2.767768     18.681350     18.681350     37.362699
     -2.757758     17.094512     17.094512     34.189024
     -2.747748     16.224670     16.224670     32.449339
     -2.737738     16.017664     16.017664     32.035328
     -2.727728     16.338462     16.338462     32.676924
     -2.717718     17.077015     17.077015     34.154030
     -2.707708     18.204327     18.204327     36.408654
     -2.697698     19.735710     19.735710     39.471421
     -2.687688     21.629623     21.629623     43.259246
     -2.677678     23.705077     23.705077     47.410153
     -2.667668     25.655541     25.655541     51.311082
     -2.657658     27.171273     27.171273     54.342546
     -2.647648     28.100348     28.100348     56.200696
     -2.637638     28.542198     28.542198     57.084395
     -2.627628     28.805961     28.805961     57.611923
     -2.617618     29.253371     29.253371     58.506743
     -2.607608     30.118623     30.118623     60.237247
     -2.597598     31.404339     31.404339     62.808678
     -2.587588     32.893801     32.893801     65.787601
     -2.577578     34.244921     34.244921     68.489842
     -2.567568     35.097132     35.097132     70.194264
     -2.557558     35.145516     35.145516     70.291033
     -2.547548     34.185182     34.185182     68.370363
     -2.537538     32.154845     32.154845     64.309691
     -2.527528     29.191121     29.191121     58.382243
     -2.517518     25.666097     25.666097     51.332194
     -2.507508     22.161365     22.161365     44.322730
     -2.497497     19.353397     19.353397     38.706794
     -2.487487     17.833948     17.833948     35.667896
     -2.477477     17.931060     17.931060     35.862119
     -2.467467     19.605178     19.605178     39.210356
     -2.457457     22.467629     22.467629     44.935258
     -2.447447     25.919757     25.919757     51.839515
     -2.437437     29.361113     29.361113     58.722227
     -2.427427     32.383567     32.383567     64.767134
     -2.417417     34.869329     34.869329     69.738658
     -2.407407     36.948291     36.948291     73.896581
     -2.397397     38.832183     38.832183     77.664367
     -2.387387     40.604039     40.604039     81.208078
     -2.377377     42.071313     42.071313     84.142626
     -2.367367     42.769606     42.769606     85.539211
     -2.357357     42.133721     42.133721     84.267441
     -2.347347     39.764768     39.764768     79.529536
     -2.337337     35.664528     35.664528     71.329056
     -2.327327     30.319279     30.319279     60.638557
     -2.317317     24.592245     24.592245     49.184490
     -2.307307     19.480220     19.480220     38.960440
     -2.297297     15.846763     15.846763     31.693527
     -2.287287     14.233706     14.233706     28.467411
     -2.277277     14.794320     14.794320     29.588639
     -2.267267     17.330732     17.330732     34.661464
     -2.257257     21.388318     21.388318     42.776637
     -2.247247     26.363456     26.363456     52.726912
     -2.237237     31.599714     31.599714     63.199429
     -2.227227     36.463796     36.463796     72.927591
     -2.217217     40.401212     40.401212     80.802425
     -2.207207     42.976657     42.976657     85.953313
     -2.197197     43.907856     43.907856     87.815712
     -2.187187     43.100693     43.100693     86.201386
     -2.177177     40.682365     40.682365     81.364730
     -2.167167     37.011480     37.011480     74.022961
     -2.157157     32.634316     32.634316     65.268633
     -2.147147     28.171761     28.171761     56.343522
     -2.137137     24.161476     24.161476     48.322951
     -2.127127     20.919588     20.919588     41.839176
     -2.117117     18.491557     18.491557     36.983113
     -2.107107     16.719287     16.719287     33.438574
     -2.097097     15.384458     15.384458     30.768915
     -2.087087     14.342342     14.342342     28.684683
     -2.077077     13.569521     13.569521     27.139042
     -2.067067     13.107570     13.107570     26.215140
     -2.057057     12.952866     12.952866     25.905733
     -2.047047     12.974763     12.974763     25.949527
     -2.037037     12.921266     12.921266     25.842532
     -2.027027     12.511725     12.511725     25.023450
     -2.017017     11.560918     11.560918     23.121837
     -2.007007     10.063047     10.063047     20.126093
     -1.996997      8.193668      8.193668     16.387336
     -1.986987      6.238541      6.238541     12.477082
     -1.976977      4.496185      4.496185      8.992369
     -1.966967      3.204719      3.204719      6.409438
     -1.956957      2.517444      2.517444      5.034889
     -1.946947      2.517498      2.517498      5.034997
     -1.936937      3.241826      3.241826      6.483652
     -1.926927      4.687552      4.687552      9.375104
     -1.916917      6.793518      6.793518     13.587036
     -1.906907      9.411843      9.411843     18.823685
     -1.896897     12.295145     12.295145     24.590289
     -1.886887     15.118735     15.118735     30.237471
     -1.876877     17.538705     17.538705     35.077410
     -1.866867     19.268469     19.268469     38.536938
     -1.856857     20.148211     20.148211     40.296422
     -1.846847     20.184859     20.184859     40.369717
     -1.836837     19.548609     19.548609     39.097217
     -1.826827     18.521391     18.521391     37.042783
     -1.816817     17.405263     17.405263     34.810527
     -1.806807     16.416917     16.416917     32.833834
     -1.796797     15.610597     15.610597     31.221193
     -1.786787     14.869588     14.869588     29.739176
     -1.776777     13.977432     13.977432     27.954865
     -1.766767     12.736841     12.736841     25.473682
     -1.756757     11.075766     11.075766     22.151531
     -1.746747      9.088061      9.088061     18.176121
     -1.736737      6.996079      6.996079     13.992157
     -1.726727      5.066413      5.066413     10.132827
     -1.716717      3.529031      3.529031      7.058062
     -1.706707      2.535868      2.535868      5.071735
     -1.696697      2.162516      2.162516      4.325033
     -1.686687      2.429461      2.429461      4.858922
     -1.676677      3.313069      3.313069      6.626139
     -1.666667      4.731689      4.731689      9.463379
     -1.656657      6.517246      6.517246     13.034491
     -1.646647      8.401793      8.401793     16.803587
     -1.636637     10.048645     10.048645     20.097289
     -1.626627     11.136210     11.136210     22.272420
