# EIG2DOS: Utility for SIESTA to obtain the electronic density of states
#  E. Artacho, Apr 1999, A. Garcia, Apr 2012
#  Nick R. Papior, Feb 2017
# ------------------------------------------
# Eigenvalues calculated from a non-polarized calculation
# Eigenvalues read from siesta.EIG
# Kpoint weights read from siesta.KP
# Using smearing parameter:   0.0500
# Using 1000 points in the energy range
# Selected bands: 1 to: 2981
# Emin, Emax in file for selected band(s):    -27.4527586    218.4022760
# Nbands, Nspin, Nk   =   2981     1     1
# E_F                 =    -4.1984 eV --> (shifted to ZERO)
# Broadening          =     0.0500 eV
#
#        E            N(up)  (=)   N(down)         Ntot
     -5.000000     30.945122     30.945122     61.890244
     -4.989990     35.965110     35.965110     71.930219
     -4.979980     40.832754     40.832754     81.665509
     -4.969970     44.732286     44.732286     89.464572
     -4.959960     46.932859     46.932859     93.865718
     -4.949950     47.035201     47.035201     94.070402
     -4.939940     45.120243     45.120243     90.240486
     -4.929930     41.752002     41.752002     83.504004
     -4.919920     37.853764     37.853764     75.707527
     -4.909910     34.515282     34.515282     69.030565
     -4.899900     32.781631     32.781631     65.563262
     -4.889890     33.443733     33.443733     66.887465
     -4.879880     36.838057     36.838057     73.676115
     -4.869870     42.688536     42.688536     85.377071
     -4.859860     50.062881     50.062881    100.125763
     -4.849850     57.518020     57.518020    115.036040
     -4.839840     63.445913     63.445913    126.891826
     -4.829830     66.526703     66.526703    133.053406
     -4.819820     66.117861     66.117861    132.235722
     -4.809810     62.415974     62.415974    124.831948
     -4.799800     56.327361     56.327361    112.654721
     -4.789790     49.118522     49.118522     98.237044
     -4.779780     42.008599     42.008599     84.017197
     -4.769770     35.866153     35.866153     71.732307
     -4.759760     31.094578     31.094578     62.189156
     -4.749750     27.690773     27.690773     55.381546
     -4.739740     25.396992     25.396992     50.793983
     -4.729730     23.857728     23.857728     47.715456
     -4.719720     22.726959     22.726959     45.453918
     -4.709710     21.715813     21.715813     43.431627
     -4.699700     20.603446     20.603446     41.206892
     -4.689690     19.244722     19.244722     38.489445
     -4.679680     17.597396     17.597396     35.194791
     -4.669670     15.766657     15.766657     31.533313
     -4.659660     14.040824     14.040824     28.081648
     -4.649650     12.883245     12.883245     25.766491
     -4.639640     12.857546     12.857546     25.715091
     -4.629630     14.488976     14.488976     28.977951
     -4.619620     18.091698     18.091698     36.183395
     -4.609610     23.612237     23.612237     47.224473
     -4.599600     30.548515     30.548515     61.097030
     -4.589590     37.995391     37.995391     75.990781
     -4.579580     44.834105     44.834105     89.668210
     -4.569570     50.027532     50.027532    100.055065
     -4.559560     52.927297     52.927297    105.854594
     -4.549550     53.474849     53.474849    106.949699
     -4.539540     52.207593     52.207593    104.415186
     -4.529530     50.055963     50.055963    100.111926
     -4.519520     48.004554     48.004554     96.009108
     -4.509510     46.748708     46.748708     93.497416
     -4.499499     46.479684     46.479684     92.959368
     -4.489489     46.875409     46.875409     93.750818
     -4.479479     47.285226     47.285226     94.570453
     -4.469469     47.017053     47.017053     94.034107
     -4.459459     45.600938     45.600938     91.201875
     -4.449449     42.928506     42.928506     85.857013
     -4.439439     39.236772     39.236772     78.473544
     -4.429429     34.979308     34.979308     69.958616
     -4.419419     30.669096     30.669096     61.338192
     -4.409409     26.767038     26.767038     53.534075
     -4.399399     23.640548     23.640548     47.281095
     -4.389389     21.563722     21.563722     43.127445
     -4.379379     20.710695     20.710695     41.421389
     -4.369369     21.118281     21.118281     42.236562
     -4.359359     22.640064     22.640064     45.280128
     -4.349349     24.942238     24.942238     49.884475
     -4.339339     27.577097     27.577097     55.154194
     -4.329329     30.122224     30.122224     60.244449
     -4.319319     32.326824     32.326824     64.653648
     -4.309309     34.193350     34.193350     68.386700
     -4.299299     35.949316     35.949316     71.898633
     -4.289289     37.912876     37.912876     75.825752
     -4.279279     40.301363     40.301363     80.602726
     -4.269269     43.058678     43.058678     86.117357
     -4.259259     45.779367     45.779367     91.558734
     -4.249249     47.781278     47.781278     95.562557
     -4.239239     48.324213     48.324213     96.648425
     -4.229229     46.902254     46.902254     93.804508
     -4.219219     43.485982     43.485982     86.971963
     -4.209209     38.595236     38.595236     77.190472
     -4.199199     33.154701     33.154701     66.309403
     -4.189189     28.189804     28.189804     56.379607
     -4.179179     24.498757     24.498757     48.997514
     -4.169169     22.442220     22.442220     44.884441
     -4.159159     21.925620     21.925620     43.851240
     -4.149149     22.553605     22.553605     45.107210
     -4.139139     23.863447     23.863447     47.726894
     -4.129129     25.523755     25.523755     51.047510
     -4.119119     27.414618     27.414618     54.829237
     -4.109109     29.564856     29.564856     59.129713
     -4.099099     31.988204     31.988204     63.976408
     -4.089089     34.511006     34.511006     69.022012
     -4.079079     36.697104     36.697104     73.394208
     -4.069069     37.935496     37.935496     75.870992
     -4.059059     37.671733     37.671733     75.343466
     -4.049049     35.676799     35.676799     71.353598
     -4.039039     32.212951     32.212951     64.425901
     -4.029029     28.003314     28.003314     56.006629
     -4.019019     24.015433     24.015433     48.030866
     -4.009009     21.163766     21.163766     42.327533
     -3.998999     20.065367     20.065367     40.130735
     -3.988989     20.936719     20.936719     41.873438
     -3.978979     23.636699     23.636699     47.273397
     -3.968969     27.795053     27.795053     55.590107
     -3.958959     32.950349     32.950349     65.900698
     -3.948949     38.650657     38.650657     77.301313
     -3.938939     44.511715     44.511715     89.023430
     -3.928929     50.248233     50.248233    100.496466
     -3.918919     55.685432     55.685432    111.370864
     -3.908909     60.738835     60.738835    121.477670
     -3.898899     65.348449     65.348449    130.696898
     -3.888889     69.378802     69.378802    138.757604
     -3.878879     72.531088     72.531088    145.062177
     -3.868869     74.327526     74.327526    148.655052
     -3.858859     74.203875     74.203875    148.407750
     -3.848849     71.693927     71.693927    143.387854
     -3.838839     66.638675     66.638675    133.277350
     -3.828829     59.331338     59.331338    118.662676
     -3.818819     50.529201     50.529201    101.058402
     -3.808809     41.314846     41.314846     82.629691
     -3.798799     32.848371     32.848371     65.696742
     -3.788789     26.092185     26.092185     52.184369
     -3.778779     21.595479     21.595479     43.190958
     -3.768769     19.398791     19.398791     38.797583
     -3.758759     19.076142     19.076142     38.152285
     -3.748749     19.891929     19.891929     39.783858
     -3.738739     21.023692     21.023692     42.047383
     -3.728729     21.792136     21.792136     43.584271
     -3.718719     21.842835     21.842835     43.685670
     -3.708709     21.235774     21.235774     42.471549
     -3.698699     20.417433     20.417433     40.834866
     -3.688689     20.075303     20.075303     40.150606
     -3.678679     20.905748     20.905748     41.811496
     -3.668669     23.357936     23.357936     46.715873
     -3.658659     27.437535     27.437535     54.875070
     -3.648649     32.648163     32.648163     65.296326
     -3.638639     38.106659     38.106659     76.213317
     -3.628629     42.799607     42.799607     85.599213
     -3.618619     45.885230     45.885230     91.770460
     -3.608609     46.924552     46.924552     93.849103
     -3.598599     45.963692     45.963692     91.927385
     -3.588589     43.461590     43.461590     86.923181
     -3.578579     40.117541     40.117541     80.235083
     -3.568569     36.668905     36.668905     73.337811
     -3.558559     33.708622     33.708622     67.417243
     -3.548549     31.548752     31.548752     63.097504
     -3.538539     30.152840     30.152840     60.305679
     -3.528529     29.165177     29.165177     58.330355
     -3.518519     28.049929     28.049929     56.099859
     -3.508509     26.307247     26.307247     52.614493
     -3.498498     23.684022     23.684022     47.368043
     -3.488488     20.285905     20.285905     40.571810
     -3.478478     16.541569     16.541569     33.083139
     -3.468468     13.043345     13.043345     26.086690
     -3.458458     10.342252     10.342252     20.684504
     -3.448448      8.780813      8.780813     17.561627
     -3.438438      8.413044      8.413044     16.826088
     -3.428428      9.019565      9.019565     18.039129
     -3.418418     10.200120     10.200120     20.400241
     -3.408408     11.515494     11.515494     23.030989
     -3.398398     12.643067     12.643067     25.286133
     -3.388388     13.500804     13.500804     27.001608
     -3.378378     14.293820     14.293820     28.587640
     -3.368368     15.457845     15.457845     30.915689
     -3.358358     17.511716     17.511716     35.023432
     -3.348348     20.866426     20.866426     41.732852
     -3.338338     25.651488     25.651488     51.302976
     -3.328328     31.607743     31.607743     63.215486
     -3.318318     38.073854     38.073854     76.147708
     -3.308308     44.076477     44.076477     88.152954
     -3.298298     48.520261     48.520261     97.040523
     -3.288288     50.450138     50.450138    100.900277
     -3.278278     49.320899     49.320899     98.641799
     -3.268268     45.178829     45.178829     90.357657
     -3.258258     38.670761     38.670761     77.341523
     -3.248248     30.860179     30.860179     61.720358
     -3.238238     22.918405     22.918405     45.836810
     -3.228228     15.816758     15.816758     31.633515
     -3.218218     10.135408     10.135408     20.270815
     -3.208208      6.036764      6.036764     12.073528
     -3.198198      3.372389      3.372389      6.744779
     -3.188188      1.848109      1.848109      3.696219
     -3.178178      1.175464      1.175464      2.350928
     -3.168168      1.170011      1.170011      2.340022
     -3.158158      1.789269      1.789269      3.578537
     -3.148148      3.118625      3.118625      6.237250
     -3.138138      5.314374      5.314374     10.628747
     -3.128128      8.512186      8.512186     17.024373
     -3.118118     12.717591     12.717591     25.435183
     -3.108108     17.711662     17.711662     35.423325
     -3.098098     23.017205     23.017205     46.034410
     -3.088088     27.961524     27.961524     55.923047
     -3.078078     31.834968     31.834968     63.669936
     -3.068068     34.093749     34.093749     68.187498
     -3.058058     34.521159     34.521159     69.042319
     -3.048048     33.271012     33.271012     66.542023
     -3.038038     30.773243     30.773243     61.546486
     -3.028028     27.554102     27.554102     55.108204
     -3.018018     24.066656     24.066656     48.133313
     -3.008008     20.613042     20.613042     41.226084
     -2.997998     17.378476     17.378476     34.756953
     -2.987988     14.530712     14.530712     29.061425
     -2.977978     12.308921     12.308921     24.617842
     -2.967968     11.044369     11.044369     22.088737
     -2.957958     11.100131     11.100131     22.200262
     -2.947948     12.756835     12.756835     25.513670
     -2.937938     16.089324     16.089324     32.178649
     -2.927928     20.878528     20.878528     41.757056
     -2.917918     26.593639     26.593639     53.187278
     -2.907908     32.464695     32.464695     64.929391
     -2.897898     37.641070     37.641070     75.282139
     -2.887888     41.397987     41.397987     82.795974
     -2.877878     43.323825     43.323825     86.647650
     -2.867868     43.415089     43.415089     86.830179
     -2.857858     42.035040     42.035040     84.070080
     -2.847848     39.748299     39.748299     79.496598
     -2.837838     37.101057     37.101057     74.202113
     -2.827828     34.443577     34.443577     68.887154
     -2.817818     31.870893     31.870893     63.741786
     -2.807808     29.297140     29.297140     58.594280
     -2.797798     26.610462     26.610462     53.220925
     -2.787788     23.816603     23.816603     47.633207
     -2.777778     21.091815     21.091815     42.183631
     -2.767768     18.722037     18.722037     37.444075
     -2.757758     16.972470     16.972470     33.944941
     -2.747748     15.970560     15.970560     31.941120
     -2.737738     15.673068     15.673068     31.346136
     -2.727728     15.931755     15.931755     31.863510
     -2.717718     16.606927     16.606927     33.213853
     -2.707708     17.646279     17.646279     35.292558
     -2.697698     19.071378     19.071378     38.142755
     -2.687688     20.881826     20.881826     41.763653
     -2.677678     22.951833     22.951833     45.903665
     -2.667668     25.007370     25.007370     50.014740
     -2.657658     26.719899     26.719899     53.439798
     -2.647648     27.868357     27.868357     55.736714
     -2.637638     28.465718     28.465718     56.931436
     -2.627628     28.762812     28.762812     57.525625
     -2.617618     29.120799     29.120799     58.241599
     -2.607608     29.827973     29.827973     59.655946
     -2.597598     30.965825     30.965825     61.931650
     -2.587588     32.386391     32.386391     64.772781
     -2.577578     33.786256     33.786256     67.572513
     -2.567568     34.812429     34.812429     69.624858
     -2.557558     35.143621     35.143621     70.287241
     -2.547548     34.537755     34.537755     69.075510
     -2.537538     32.873341     32.873341     65.746682
     -2.527528     30.205860     30.205860     60.411720
     -2.517518     26.821413     26.821413     53.642827
     -2.507508     23.239523     23.239523     46.479046
     -2.497497     20.126905     20.126905     40.253810
     -2.487487     18.130051     18.130051     36.260102
     -2.477477     17.684016     17.684016     35.368032
     -2.467467     18.875726     18.875726     37.751452
     -2.457457     21.421864     21.421864     42.843729
     -2.447447     24.775160     24.775160     49.550321
     -2.437437     28.319626     28.319626     56.639251
     -2.427427     31.576116     31.576116     63.152233
     -2.417417     34.331445     34.331445     68.662890
     -2.407407     36.634295     36.634295     73.268591
     -2.397397     38.660558     38.660558     77.321116
     -2.387387     40.514324     40.514324     81.028648
     -2.377377     42.067390     42.067390     84.134779
     -2.367367     42.928222     42.928222     85.856444
     -2.357357     42.571340     42.571340     85.142681
     -2.347347     40.576190     40.576190     81.152379
     -2.337337     36.863143     36.863143     73.726287
     -2.327327     31.810011     31.810011     63.620021
     -2.317317     26.191086     26.191086     52.382173
     -2.307307     20.968948     20.968948     41.937895
     -2.297297     17.034472     17.034472     34.068944
     -2.287287     14.998571     14.998571     29.997143
     -2.277277     15.095811     15.095811     30.191621
     -2.267267     17.201236     17.201236     34.402472
     -2.257257     20.922186     20.922186     41.844372
     -2.247247     25.717850     25.717850     51.435700
     -2.237237     31.010205     31.010205     62.020409
     -2.227227     36.264963     36.264963     72.529925
     -2.217217     41.033180     41.033180     82.066361
     -2.207207     44.955313     44.955313     89.910625
     -2.197197     47.742892     47.742892     95.485784
     -2.187187     49.164681     49.164681     98.329363
     -2.177177     49.063159     49.063159     98.126319
     -2.167167     47.405921     47.405921     94.811843
     -2.157157     44.343198     44.343198     88.686397
     -2.147147     40.221857     40.221857     80.443714
     -2.137137     35.521015     35.521015     71.042031
     -2.127127     30.722264     30.722264     61.444528
     -2.117117     26.175734     26.175734     52.351467
     -2.107107     22.033020     22.033020     44.066039
     -2.097097     18.278275     18.278275     36.556550
     -2.087087     14.827981     14.827981     29.655961
     -2.077077     11.632483     11.632483     23.264967
     -2.067067      8.722573      8.722573     17.445145
     -2.057057      6.188550      6.188550     12.377100
     -2.047047      4.121844      4.121844      8.243689
     -2.037037      2.562833      2.562833      5.125667
     -2.027027      1.482317      1.482317      2.964634
     -2.017017      0.797174      0.797174      1.594348
     -2.007007      0.403085      0.403085      0.806169
     -1.996997      0.205772      0.205772      0.411543
     -1.986987      0.141233      0.141233      0.282465
     -1.976977      0.185187      0.185187      0.370374
     -1.966967      0.356251      0.356251      0.712502
     -1.956957      0.715606      0.715606      1.431212
     -1.946947      1.361128      1.361128      2.722256
     -1.936937      2.410355      2.410355      4.820710
     -1.926927      3.967880      3.967880      7.935759
     -1.916917      6.080041      6.080041     12.160082
     -1.906907      8.690254      8.690254     17.380508
     -1.896897     11.615243     11.615243     23.230486
     -1.886887     14.559363     14.559363     29.118726
     -1.876877     17.170395     17.170395     34.340790
     -1.866867     19.122748     19.122748     38.245496
     -1.856857     20.202409     20.202409     40.404817
     -1.846847     20.366728     20.366728     40.733456
     -1.836837     19.758700     19.758700     39.517401
     -1.826827     18.665858     18.665858     37.331717
     -1.816817     17.428740     17.428740     34.857480
     -1.806807     16.324108     16.324108     32.648215
     -1.796797     15.467057     15.467057     30.934113
     -1.786787     14.778571     14.778571     29.557142
     -1.776777     14.039970     14.039970     28.079940
     -1.766767     13.011511     13.011511     26.023022
     -1.756757     11.556203     11.556203     23.112406
     -1.746747      9.707620      9.707620     19.415239
     -1.736737      7.654891      7.654891     15.309782
     -1.726727      5.665456      5.665456     11.330913
     -1.716717      3.995082      3.995082      7.990164
     -1.706707      2.829555      2.829555      5.659109
     -1.696697      2.272519      2.272519      4.545038
     -1.686687      2.362440      2.362440      4.724880
     -1.676677      3.088213      3.088213      6.176426
     -1.666667      4.382692      4.382692      8.765383
     -1.656657      6.097417      6.097417     12.194834
     -1.646647      7.984183      7.984183     15.968365
     -1.636637      9.714895      9.714895     19.429790
     -1.626627     10.954552     10.954552     21.909104
