# EIG2DOS: Utility for SIESTA to obtain the electronic density of states
#  E. Artacho, Apr 1999, A. Garcia, Apr 2012
#  Nick R. Papior, Feb 2017
# ------------------------------------------
# Eigenvalues calculated from a non-polarized calculation
# Eigenvalues read from siesta.EIG
# Kpoint weights read from siesta.KP
# Using smearing parameter:   0.0500
# Using 1000 points in the energy range
# Selected bands: 1 to: 2981
# Emin, Emax in file for selected band(s):    -27.0368999    218.3069080
# Nbands, Nspin, Nk   =   2981     1     1
# E_F                 =    -4.3038 eV --> (shifted to ZERO)
# Broadening          =     0.0500 eV
#
#        E            N(up)  (=)   N(down)         Ntot
     -5.000000     46.392190     46.392190     92.784379
     -4.989990     49.805783     49.805783     99.611566
     -4.979980     51.523405     51.523405    103.046810
     -4.969970     51.425193     51.425193    102.850386
     -4.959960     49.669642     49.669642     99.339283
     -4.949950     46.628922     46.628922     93.257844
     -4.939940     42.794960     42.794960     85.589919
     -4.929930     38.705454     38.705454     77.410907
     -4.919920     34.914530     34.914530     69.829059
     -4.909910     31.994242     31.994242     63.988484
     -4.899900     30.522468     30.522468     61.044935
     -4.889890     31.007574     31.007574     62.015148
     -4.879880     33.730835     33.730835     67.461670
     -4.869870     38.548744     38.548744     77.097487
     -4.859860     44.758641     44.758641     89.517281
     -4.849850     51.144612     51.144612    102.289224
     -4.839840     56.254871     56.254871    112.509742
     -4.829830     58.837684     58.837684    117.675368
     -4.819820     58.254583     58.254583    116.509166
     -4.809810     54.676638     54.676638    109.353277
     -4.799800     48.973025     48.973025     97.946050
     -4.789790     42.359562     42.359562     84.719124
     -4.779780     35.986562     35.986562     71.973123
     -4.769770     30.644731     30.644731     61.289462
     -4.759760     26.671863     26.671863     53.343726
     -4.749750     24.028585     24.028585     48.057171
     -4.739740     22.449721     22.449721     44.899442
     -4.729730     21.585609     21.585609     43.171217
     -4.719720     21.092733     21.092733     42.185466
     -4.709710     20.674608     20.674608     41.349216
     -4.699700     20.094448     20.094448     40.188897
     -4.689690     19.184476     19.184476     38.368952
     -4.679680     17.869749     17.869749     35.739497
     -4.669670     16.209427     16.209427     32.418855
     -4.659660     14.439300     14.439300     28.878599
     -4.649650     12.986011     12.986011     25.972022
     -4.639640     12.424989     12.424989     24.849979
     -4.629630     13.370131     13.370131     26.740263
     -4.619620     16.306392     16.306392     32.612783
     -4.609610     21.400549     21.400549     42.801098
     -4.599600     28.348121     28.348121     56.696242
     -4.589590     36.327985     36.327985     72.655970
     -4.579580     44.123450     44.123450     88.246899
     -4.569570     50.415508     50.415508    100.831015
     -4.559560     54.172306     54.172306    108.344612
     -4.549550     54.990997     54.990997    109.981993
     -4.539540     53.242609     53.242609    106.485218
     -4.529530     49.944202     49.944202     99.888403
     -4.519520     46.401847     46.401847     92.803695
     -4.509510     43.769060     43.769060     87.538121
     -4.499499     42.695129     42.695129     85.390257
     -4.489489     43.186367     43.186367     86.372734
     -4.479479     44.704137     44.704137     89.408275
     -4.469469     46.428823     46.428823     92.857645
     -4.459459     47.569160     47.569160     95.138320
     -4.449449     47.602916     47.602916     95.205831
     -4.439439     46.382715     46.382715     92.765431
     -4.429429     44.102578     44.102578     88.205157
     -4.419419     41.170959     41.170959     82.341918
     -4.409409     38.058798     38.058798     76.117596
     -4.399399     35.181746     35.181746     70.363492
     -4.389389     32.842628     32.842628     65.685255
     -4.379379     31.222833     31.222833     62.445666
     -4.369369     30.391644     30.391644     60.783287
     -4.359359     30.310711     30.310711     60.621423
     -4.349349     30.836580     30.836580     61.673159
     -4.339339     31.743051     31.743051     63.486101
     -4.329329     32.779162     32.779162     65.558323
     -4.319319     33.751655     33.751655     67.503310
     -4.309309     34.596122     34.596122     69.192243
     -4.299299     35.399382     35.399382     70.798765
     -4.289289     36.357623     36.357623     72.715246
     -4.279279     37.682737     37.682737     75.365474
     -4.269269     39.486938     39.486938     78.973876
     -4.259259     41.682118     41.682118     83.364236
     -4.249249     43.933142     43.933142     87.866284
     -4.239239     45.701677     45.701677     91.403354
     -4.229229     46.394711     46.394711     92.789423
     -4.219219     45.582461     45.582461     91.164921
     -4.209209     43.195650     43.195650     86.391300
     -4.199199     39.596390     39.596390     79.192781
     -4.189189     35.468198     35.468198     70.936396
     -4.179179     31.567655     31.567655     63.135311
     -4.169169     28.460069     28.460069     56.920139
     -4.159159     26.368867     26.368867     52.737734
     -4.149149     25.199885     25.199885     50.399770
     -4.139139     24.704843     24.704843     49.409687
     -4.129129     24.681558     24.681558     49.363116
     -4.119119     25.101070     25.101070     50.202140
     -4.109109     26.096624     26.096624     52.193248
     -4.099099     27.820605     27.820605     55.641211
     -4.089089     30.245124     30.245124     60.490248
     -4.079079     33.021768     33.021768     66.043535
     -4.069069     35.500660     35.500660     71.001321
     -4.059059     36.932469     36.932469     73.864937
     -4.049049     36.771744     36.771744     73.543489
     -4.039039     34.929243     34.929243     69.858487
     -4.029029     31.837452     31.837452     63.674903
     -4.019019     28.295033     28.295033     56.590065
     -4.009009     25.178553     25.178553     50.357106
     -3.998999     23.173171     23.173171     46.346342
     -3.988989     22.640578     22.640578     45.281155
     -3.978979     23.644013     23.644013     47.288026
     -3.968969     26.059635     26.059635     52.119269
     -3.958959     29.678988     29.678988     59.357976
     -3.948949     34.252030     34.252030     68.504059
     -3.938939     39.487355     39.487355     78.974711
     -3.928929     45.060166     45.060166     90.120332
     -3.918919     50.657738     50.657738    101.315475
     -3.908909     56.041678     56.041678    112.083355
     -3.898899     61.072837     61.072837    122.145675
     -3.888889     65.658498     65.658498    131.316997
     -3.878879     69.634734     69.634734    139.269467
     -3.868869     72.652745     72.652745    145.305491
     -3.858859     74.156778     74.156778    148.313557
     -3.848849     73.505185     73.505185    147.010369
     -3.838839     70.210239     70.210239    140.420478
     -3.828829     64.197466     64.197466    128.394931
     -3.818819     55.957009     55.957009    111.914019
     -3.808809     46.499747     46.499747     92.999494
     -3.798799     37.120178     37.120178     74.240357
     -3.788789     29.056417     29.056417     58.112834
     -3.778779     23.176670     23.176670     46.353340
     -3.768769     19.797116     19.797116     39.594232
     -3.758759     18.672139     18.672139     37.344278
     -3.748749     19.134035     19.134035     38.268070
     -3.738739     20.322115     20.322115     40.644230
     -3.728729     21.433135     21.433135     42.866270
     -3.718719     21.934009     21.934009     43.868019
     -3.708709     21.691862     21.691862     43.383724
     -3.698699     20.992186     20.992186     41.984372
     -3.688689     20.436110     20.436110     40.872219
     -3.678679     20.735530     20.735530     41.471061
     -3.668669     22.457766     22.457766     44.915533
     -3.658659     25.798616     25.798616     51.597231
     -3.648649     30.467714     30.467714     60.935429
     -3.638639     35.739440     35.739440     71.478881
     -3.628629     40.659567     40.659567     81.319134
     -3.618619     44.329194     44.329194     88.658387
     -3.608609     46.152390     46.152390     92.304779
     -3.598599     45.956881     45.956881     91.913763
     -3.588589     43.964982     43.964982     87.929963
     -3.578579     40.660429     40.660429     81.320858
     -3.568569     36.624518     36.624518     73.249036
     -3.558559     32.396348     32.396348     64.792696
     -3.548549     28.377023     28.377023     56.754046
     -3.538539     24.778812     24.778812     49.557625
     -3.528529     21.622599     21.622599     43.245197
     -3.518519     18.789505     18.789505     37.579010
     -3.508509     16.117562     16.117562     32.235125
     -3.498498     13.508550     13.508550     27.017101
     -3.488488     10.998033     10.998033     21.996067
     -3.478478      8.757844      8.757844     17.515688
     -3.468468      7.034646      7.034646     14.069291
     -3.458458      6.056190      6.056190     12.112379
     -3.448448      5.943089      5.943089     11.886177
     -3.438438      6.653156      6.653156     13.306313
     -3.428428      7.972360      7.972360     15.944719
     -3.418418      9.558325      9.558325     19.116651
     -3.408408     11.033436     11.033436     22.066872
     -3.398398     12.107390     12.107390     24.214780
     -3.388388     12.688423     12.688423     25.376846
     -3.378378     12.934805     12.934805     25.869611
     -3.368368     13.217008     13.217008     26.434016
     -3.358358     14.000203     14.000203     28.000405
     -3.348348     15.692620     15.692620     31.385240
     -3.338338     18.514167     18.514167     37.028335
     -3.328328     22.418847     22.418847     44.837694
     -3.318318     27.074792     27.074792     54.149583
     -3.308308     31.892736     31.892736     63.785472
     -3.298298     36.103181     36.103181     72.206362
     -3.288288     38.893173     38.893173     77.786345
     -3.278278     39.598445     39.598445     79.196891
     -3.268268     37.904173     37.904173     75.808346
     -3.258258     33.970985     33.970985     67.941971
     -3.248248     28.413278     28.413278     56.826556
     -3.238238     22.121625     22.121625     44.243250
     -3.228228     16.001233     16.001233     32.002466
     -3.218218     10.738681     10.738681     21.477363
     -3.208208      6.684339      6.684339     13.368677
     -3.198198      3.870434      3.870434      7.740868
     -3.188188      2.122209      2.122209      4.244419
     -3.178178      1.195458      1.195458      2.390917
     -3.168168      0.888396      0.888396      1.776793
     -3.158158      1.106198      1.106198      2.212396
     -3.148148      1.879230      1.879230      3.758460
     -3.138138      3.342527      3.342527      6.685054
     -3.128128      5.681099      5.681099     11.362198
     -3.118118      9.045602      9.045602     18.091204
     -3.108108     13.453301     13.453301     26.906602
     -3.098098     18.706505     18.706505     37.413010
     -3.088088     24.370836     24.370836     48.741672
     -3.078078     29.843249     29.843249     59.686499
     -3.068068     34.500796     34.500796     69.001592
     -3.058058     37.872864     37.872864     75.745729
     -3.048048     39.754784     39.754784     79.509567
     -3.038038     40.205160     40.205160     80.410320
     -3.028028     39.437081     39.437081     78.874163
     -3.018018     37.681731     37.681731     75.363462
     -3.008008     35.120343     35.120343     70.240686
     -2.997998     31.928648     31.928648     63.857296
     -2.987988     28.392120     28.392120     56.784241
     -2.977978     24.993767     24.993767     49.987534
     -2.967968     22.389764     22.389764     44.779528
     -2.957958     21.258843     21.258843     42.517686
     -2.947948     22.087125     22.087125     44.174250
     -2.937938     24.983905     24.983905     49.967811
     -2.927928     29.604864     29.604864     59.209728
     -2.917918     35.209662     35.209662     70.419324
     -2.907908     40.831549     40.831549     81.663097
     -2.897898     45.505571     45.505571     91.011143
     -2.887888     48.491734     48.491734     96.983469
     -2.877878     49.434836     49.434836     98.869671
     -2.867868     48.419333     48.419333     96.838667
     -2.857858     45.903843     45.903843     91.807685
     -2.847848     42.553823     42.553823     85.107646
     -2.837838     39.025500     39.025500     78.050999
     -2.827828     35.775703     35.775703     71.551406
     -2.817818     32.966964     32.966964     65.933927
     -2.807808     30.500417     30.500417     61.000833
     -2.797798     28.153209     28.153209     56.306419
     -2.787788     25.748765     25.748765     51.497530
     -2.777778     23.274089     23.274089     46.548179
     -2.767768     20.888847     20.888847     41.777693
     -2.757758     18.831677     18.831677     37.663355
     -2.747748     17.286956     17.286956     34.573912
     -2.737738     16.295958     16.295958     32.591916
     -2.727728     15.766423     15.766423     31.532847
     -2.717718     15.570402     15.570402     31.140803
     -2.707708     15.661492     15.661492     31.322985
     -2.697698     16.127630     16.127630     32.255260
     -2.687688     17.136395     17.136395     34.272789
     -2.677678     18.802036     18.802036     37.604072
     -2.667668     21.060003     21.060003     42.120006
     -2.657658     23.636484     23.636484     47.272967
     -2.647648     26.142869     26.142869     52.285738
     -2.637638     28.243938     28.243938     56.487876
     -2.627628     29.798645     29.798645     59.597290
     -2.617618     30.889565     30.889565     61.779130
     -2.607608     31.730826     31.730826     63.461651
     -2.597598     32.521953     32.521953     65.043905
     -2.587588     33.340256     33.340256     66.680511
     -2.577578     34.122306     34.122306     68.244612
     -2.567568     34.714818     34.714818     69.429635
     -2.557558     34.936236     34.936236     69.872471
     -2.547548     34.609957     34.609957     69.219913
     -2.537538     33.580720     33.580720     67.161441
     -2.527528     31.753247     31.753247     63.506494
     -2.517518     29.168178     29.168178     58.336356
     -2.507508     26.078228     26.078228     52.156456
     -2.497497     22.958365     22.958365     45.916730
     -2.487487     20.408735     20.408735     40.817471
     -2.477477     18.972544     18.972544     37.945088
     -2.467467     18.947738     18.947738     37.895477
     -2.457457     20.283413     20.283413     40.566826
     -2.447447     22.613524     22.613524     45.227048
     -2.437437     25.414992     25.414992     50.829984
     -2.427427     28.218350     28.218350     56.436700
     -2.417417     30.773916     30.773916     61.547833
     -2.407407     33.096297     33.096297     66.192593
     -2.397397     35.366555     35.366555     70.733111
     -2.387387     37.739637     37.739637     75.479274
     -2.377377     40.153122     40.153122     80.306244
     -2.367367     42.238484     42.238484     84.476968
     -2.357357     43.392846     43.392846     86.785692
     -2.347347     42.994654     42.994654     85.989308
     -2.337337     40.674306     40.674306     81.348612
     -2.327327     36.517514     36.517514     73.035028
     -2.317317     31.106218     31.106218     62.212436
     -2.307307     25.377633     25.377633     50.755266
     -2.297297     20.364956     20.364956     40.729912
     -2.287287     16.927236     16.927236     33.854473
     -2.277277     15.562465     15.562465     31.124931
     -2.267267     16.345976     16.345976     32.691951
     -2.257257     18.982441     18.982441     37.964881
     -2.247247     22.929099     22.929099     45.858199
     -2.237237     27.541399     27.541399     55.082799
     -2.227227     32.198882     32.198882     64.397763
     -2.217217     36.382119     36.382119     72.764239
     -2.207207     39.692233     39.692233     79.384466
     -2.197197     41.831596     41.831596     83.663192
     -2.187187     42.585144     42.585144     85.170288
     -2.177177     41.838294     41.838294     83.676588
     -2.167167     39.634504     39.634504     79.269008
     -2.157157     36.231869     36.231869     72.463738
     -2.147147     32.098013     32.098013     64.196025
     -2.137137     27.808736     27.808736     55.617472
     -2.127127     23.876898     23.876898     47.753795
     -2.117117     20.591882     20.591882     41.183764
     -2.107107     17.954915     17.954915     35.909829
     -2.097097     15.743881     15.743881     31.487762
     -2.087087     13.667328     13.667328     27.334656
     -2.077077     11.520969     11.520969     23.041937
     -2.067067      9.269400      9.269400     18.538800
     -2.057057      7.028476      7.028476     14.056952
     -2.047047      4.980649      4.980649      9.961297
     -2.037037      3.281676      3.281676      6.563351
     -2.027027      2.004691      2.004691      4.009383
     -2.017017      1.134804      1.134804      2.269607
     -2.007007      0.599143      0.599143      1.198287
     -1.996997      0.307529      0.307529      0.615059
     -1.986987      0.185518      0.185518      0.371035
     -1.976977      0.193900      0.193900      0.387799
     -1.966967      0.337170      0.337170      0.674339
     -1.956957      0.664764      0.664764      1.329529
     -1.946947      1.265142      1.265142      2.530284
     -1.936937      2.248781      2.248781      4.497562
     -1.926927      3.716497      3.716497      7.432994
     -1.916917      5.715969      5.715969     11.431937
     -1.906907      8.199354      8.199354     16.398707
     -1.896897     11.001427     11.001427     22.002854
     -1.886887     13.854046     13.854046     27.708092
     -1.876877     16.438439     16.438439     32.876878
     -1.866867     18.459789     18.459789     36.919578
     -1.856857     19.719434     19.719434     39.438867
     -1.846847     20.162627     20.162627     40.325255
     -1.836837     19.888870     19.888870     39.777741
     -1.826827     19.120162     19.120162     38.240325
     -1.816817     18.130373     18.130373     36.260746
     -1.806807     17.151651     17.151651     34.303303
     -1.796797     16.290537     16.290537     32.581073
     -1.786787     15.494039     15.494039     30.988078
     -1.776777     14.589725     14.589725     29.179451
     -1.766767     13.385964     13.385964     26.771929
     -1.756757     11.782472     11.782472     23.564944
     -1.746747      9.834480      9.834480     19.668960
     -1.736737      7.743045      7.743045     15.486090
     -1.726727      5.788437      5.788437     11.576875
     -1.716717      4.251746      4.251746      8.503493
     -1.706707      3.364792      3.364792      6.729585
     -1.696697      3.298134      3.298134      6.596268
     -1.686687      4.165530      4.165530      8.331060
     -1.676677      6.012313      6.012313     12.024627
     -1.666667      8.771296      8.771296     17.542593
     -1.656657     12.202615     12.202615     24.405231
     -1.646647     15.862112     15.862112     31.724224
     -1.636637     19.145314     19.145314     38.290628
     -1.626627     21.422684     21.422684     42.845367
