# EIG2DOS: Utility for SIESTA to obtain the electronic density of states
#  E. Artacho, Apr 1999, A. Garcia, Apr 2012
#  Nick R. Papior, Feb 2017
# ------------------------------------------
# Eigenvalues calculated from a non-polarized calculation
# Eigenvalues read from siesta.EIG
# Kpoint weights read from siesta.KP
# Using smearing parameter:   0.0500
# Using 1000 points in the energy range
# Selected bands: 1 to: 2981
# Emin, Emax in file for selected band(s):    -27.2740407    218.3730750
# Nbands, Nspin, Nk   =   2981     1     1
# E_F                 =    -4.2273 eV --> (shifted to ZERO)
# Broadening          =     0.0500 eV
#
#        E            N(up)  (=)   N(down)         Ntot
     -5.000000     35.757312     35.757312     71.514624
     -4.989990     39.850188     39.850188     79.700376
     -4.979980     43.045322     43.045322     86.090644
     -4.969970     44.820498     44.820498     89.640996
     -4.959960     44.889705     44.889705     89.779410
     -4.949950     43.296149     43.296149     86.592298
     -4.939940     40.408242     40.408242     80.816484
     -4.929930     36.840455     36.840455     73.680909
     -4.919920     33.344873     33.344873     66.689746
     -4.909910     30.705602     30.705602     61.411204
     -4.899900     29.633682     29.633682     59.267365
     -4.889890     30.639224     30.639224     61.278447
     -4.879880     33.875613     33.875613     67.751225
     -4.869870     39.000932     39.000932     78.001863
     -4.859860     45.143461     45.143461     90.286923
     -4.849850     51.046081     51.046081    102.092163
     -4.839840     55.387413     55.387413    110.774826
     -4.829830     57.175615     57.175615    114.351230
     -4.819820     56.051300     56.051300    112.102599
     -4.809810     52.365306     52.365306    104.730612
     -4.799800     47.003683     47.003683     94.007366
     -4.789790     41.052617     41.052617     82.105234
     -4.779780     35.459016     35.459016     70.918033
     -4.769770     30.818195     30.818195     61.636391
     -4.759760     27.336217     27.336217     54.672434
     -4.749750     24.928879     24.928879     49.857758
     -4.739740     23.376150     23.376150     46.752299
     -4.729730     22.456162     22.456162     44.912325
     -4.719720     22.015345     22.015345     44.030690
     -4.709710     21.967757     21.967757     43.935515
     -4.699700     22.246414     22.246414     44.492828
     -4.689690     22.748262     22.748262     45.496525
     -4.679680     23.316984     23.316984     46.633967
     -4.669670     23.789017     23.789017     47.578034
     -4.659660     24.092385     24.092385     48.184770
     -4.649650     24.350692     24.350692     48.701384
     -4.639640     24.925568     24.925568     49.851136
     -4.629630     26.343704     26.343704     52.687408
     -4.619620     29.101411     29.101411     58.202821
     -4.609610     33.406327     33.406327     66.812654
     -4.599600     38.971548     38.971548     77.943095
     -4.589590     44.984039     44.984039     89.968079
     -4.579580     50.305980     50.305980    100.611961
     -4.569570     53.854850     53.854850    107.709701
     -4.559560     55.005924     55.005924    110.011847
     -4.549550     53.833739     53.833739    107.667477
     -4.539540     51.079538     51.079538    102.159076
     -4.529530     47.861112     47.861112     95.722225
     -4.519520     45.256990     45.256990     90.513979
     -4.509510     43.940183     43.940183     87.880366
     -4.499499     43.996478     43.996478     87.992956
     -4.489489     44.970903     44.970903     89.941805
     -4.479479     46.092188     46.092188     92.184376
     -4.469469     46.567134     46.567134     93.134268
     -4.459459     45.830632     45.830632     91.661264
     -4.449449     43.675868     43.675868     87.351736
     -4.439439     40.250270     40.250270     80.500541
     -4.429429     35.957369     35.957369     71.914738
     -4.419419     31.329336     31.329336     62.658671
     -4.409409     26.922038     26.922038     53.844076
     -4.399399     23.247382     23.247382     46.494763
     -4.389389     20.724316     20.724316     41.448633
     -4.379379     19.624187     19.624187     39.248373
     -4.369369     20.010149     20.010149     40.020297
     -4.359359     21.701483     21.701483     43.402966
     -4.349349     24.302147     24.302147     48.604295
     -4.339339     27.306774     27.306774     54.613547
     -4.329329     30.252728     30.252728     60.505457
     -4.319319     32.855395     32.855395     65.710790
     -4.309309     35.067744     35.067744     70.135488
     -4.299299     37.040816     37.040816     74.081632
     -4.289289     39.005122     39.005122     78.010243
     -4.279279     41.120904     41.120904     82.241808
     -4.269269     43.351580     43.351580     86.703161
     -4.259259     45.407455     45.407455     90.814910
     -4.249249     46.791744     46.791744     93.583489
     -4.239239     46.953338     46.953338     93.906676
     -4.229229     45.506327     45.506327     91.012653
     -4.219219     42.430082     42.430082     84.860164
     -4.209209     38.149097     38.149097     76.298194
     -4.199199     33.434089     33.434089     66.868178
     -4.189189     29.152698     29.152698     58.305396
     -4.179179     25.979572     25.979572     51.959144
     -4.169169     24.199521     24.199521     48.399043
     -4.159159     23.688261     23.688261     47.376521
     -4.149149     24.064026     24.064026     48.128052
     -4.139139     24.922085     24.922085     49.844170
     -4.129129     26.031431     26.031431     52.062863
     -4.119119     27.397876     27.397876     54.795752
     -4.109109     29.165194     29.165194     58.330388
     -4.099099     31.408360     31.408360     62.816719
     -4.089089     33.935843     33.935843     67.871687
     -4.079079     36.227042     36.227042     72.454085
     -4.069069     37.569178     37.569178     75.138355
     -4.059059     37.347669     37.347669     74.695339
     -4.049049     35.346781     35.346781     70.693563
     -4.039039     31.898741     31.898741     63.797483
     -4.029029     27.798671     27.798671     55.597343
     -4.019019     24.031540     24.031540     48.063080
     -4.009009     21.453229     21.453229     42.906457
     -3.998999     20.573555     20.573555     41.147110
     -3.988989     21.511618     21.511618     43.023236
     -3.978979     24.092431     24.092431     48.184861
     -3.968969     27.993454     27.993454     55.986907
     -3.958959     32.857704     32.857704     65.715408
     -3.948949     38.344748     38.344748     76.689496
     -3.938939     44.143395     44.143395     88.286791
     -3.928929     49.982667     49.982667     99.965334
     -3.918919     55.650324     55.650324    111.300649
     -3.908909     60.994305     60.994305    121.988609
     -3.898899     65.878213     65.878213    131.756426
     -3.888889     70.095330     70.095330    140.190660
     -3.878879     73.289676     73.289676    146.579353
     -3.868869     74.949658     74.949658    149.899315
     -3.858859     74.511784     74.511784    149.023569
     -3.848849     71.553438     71.553438    143.106875
     -3.838839     65.999561     65.999561    131.999122
     -3.828829     58.249923     58.249923    116.499847
     -3.818819     49.161240     49.161240     98.322480
     -3.808809     39.877418     39.877418     79.754836
     -3.798799     31.562197     31.562197     63.124394
     -3.788789     25.123795     25.123795     50.247589
     -3.778779     21.018309     21.018309     42.036618
     -3.768769     19.184540     19.184540     38.369079
     -3.758759     19.116791     19.116791     38.233582
     -3.748749     20.043249     20.043249     40.086499
     -3.738739     21.155616     21.155616     42.311232
     -3.728729     21.830729     21.830729     43.661459
     -3.718719     21.791863     21.791863     43.583726
     -3.708709     21.171631     21.171631     42.343263
     -3.698699     20.458307     20.458307     40.916615
     -3.688689     20.333103     20.333103     40.666205
     -3.678679     21.436269     21.436269     42.872539
     -3.668669     24.128273     24.128273     48.256546
     -3.658659     28.326034     28.326034     56.652068
     -3.648649     33.479785     33.479785     66.959570
     -3.638639     38.709373     38.709373     77.418746
     -3.628629     43.054876     43.054876     86.109751
     -3.618619     45.746597     45.746597     91.493194
     -3.608609     46.393808     46.393808     92.787615
     -3.598599     45.035257     45.035257     90.070515
     -3.588589     42.060306     42.060306     84.120612
     -3.578579     38.056911     38.056911     76.113823
     -3.568569     33.649100     33.649100     67.298199
     -3.558559     29.363127     29.363127     58.726255
     -3.548549     25.537683     25.537683     51.075366
     -3.538539     22.286481     22.286481     44.572962
     -3.528529     19.522755     19.522755     39.045511
     -3.518519     17.045157     17.045157     34.090314
     -3.508509     14.659083     14.659083     29.318166
     -3.498498     12.284746     12.284746     24.569492
     -3.488488     10.005328     10.005328     20.010656
     -3.478478      8.038006      8.038006     16.076011
     -3.468468      6.647472      6.647472     13.294943
     -3.458458      6.042162      6.042162     12.084324
     -3.448448      6.290815      6.290815     12.581630
     -3.438438      7.282554      7.282554     14.565108
     -3.428428      8.741112      8.741112     17.482223
     -3.418418     10.295011     10.295011     20.590022
     -3.408408     11.592788     11.592788     23.185576
     -3.398398     12.432564     12.432564     24.865127
     -3.388388     12.858791     12.858791     25.717582
     -3.378378     13.182194     13.182194     26.364388
     -3.368368     13.906923     13.906923     27.813847
     -3.358358     15.587179     15.587179     31.174359
     -3.348348     18.659857     18.659857     37.319714
     -3.338338     23.297684     23.297684     46.595369
     -3.328328     29.309204     29.309204     58.618408
     -3.318318     36.100535     36.100535     72.201071
     -3.308308     42.719245     42.719245     85.438490
     -3.298298     48.006273     48.006273     96.012545
     -3.288288     50.858663     50.858663    101.717326
     -3.278278     50.546832     50.546832    101.093664
     -3.268268     46.970122     46.970122     93.940244
     -3.258258     40.728367     40.728367     81.456734
     -3.248248     32.959314     32.959314     65.918629
     -3.238238     25.004867     25.004867     50.009733
     -3.228228     18.048802     18.048802     36.097604
     -3.218218     12.863901     12.863901     25.727802
     -3.208208      9.730079      9.730079     19.460158
     -3.198198      8.497915      8.497915     16.995830
     -3.188188      8.729068      8.729068     17.458137
     -3.178178      9.855779      9.855779     19.711557
     -3.168168     11.333516     11.333516     22.667032
     -3.158158     12.776357     12.776357     25.552713
     -3.148148     14.053857     14.053857     28.107714
     -3.138138     15.312281     15.312281     30.624563
     -3.128128     16.890694     16.890694     33.781388
     -3.118118     19.142600     19.142600     38.285199
     -3.108108     22.226706     22.226706     44.453412
     -3.098098     25.961150     25.961150     51.922300
     -3.088088     29.819012     29.819012     59.638024
     -3.078078     33.080840     33.080840     66.161679
     -3.068068     35.082068     35.082068     70.164136
     -3.058058     35.442254     35.442254     70.884508
     -3.048048     34.170609     34.170609     68.341218
     -3.038038     31.608055     31.608055     63.216110
     -3.028028     28.253347     28.253347     56.506695
     -3.018018     24.577092     24.577092     49.154185
     -3.008008     20.919062     20.919062     41.838124
     -2.997998     17.500913     17.500913     35.001826
     -2.987988     14.513808     14.513808     29.027615
     -2.977978     12.204831     12.204831     24.409662
     -2.967968     10.901410     10.901410     21.802820
     -2.957958     10.957293     10.957293     21.914586
     -2.947948     12.643873     12.643873     25.287746
     -2.937938     16.029323     16.029323     32.058646
     -2.927928     20.888747     20.888747     41.777493
     -2.917918     26.681518     26.681518     53.363036
     -2.907908     32.619278     32.619278     65.238556
     -2.897898     37.824433     37.824433     75.648866
     -2.887888     41.543914     41.543914     83.087829
     -2.877878     43.349543     43.349543     86.699085
     -2.867868     43.245991     43.245991     86.491982
     -2.857858     41.634688     41.634688     83.269376
     -2.847848     39.141044     39.141044     78.282087
     -2.837838     36.375920     36.375920     72.751840
     -2.827828     33.735565     33.735565     67.471131
     -2.817818     31.325780     31.325780     62.651559
     -2.807808     29.032696     29.032696     58.065393
     -2.797798     26.687653     26.687653     53.375306
     -2.787788     24.228731     24.228731     48.457462
     -2.777778     21.771680     21.771680     43.543361
     -2.767768     19.561242     19.561242     39.122483
     -2.757758     17.845511     17.845511     35.691022
     -2.747748     16.758407     16.758407     33.516814
     -2.737738     16.283465     16.283465     32.566931
     -2.727728     16.314137     16.314137     32.628274
     -2.717718     16.758978     16.758978     33.517956
     -2.707708     17.609451     17.609451     35.218902
     -2.697698     18.915988     18.915988     37.831975
     -2.687688     20.687364     20.687364     41.374728
     -2.677678     22.790841     22.790841     45.581682
     -2.667668     24.938844     24.938844     49.877687
     -2.657658     26.791498     26.791498     53.582995
     -2.647648     28.120513     28.120513     56.241025
     -2.637638     28.929545     28.929545     57.859089
     -2.627628     29.448833     29.448833     58.897666
     -2.617618     30.003499     30.003499     60.006998
     -2.607608     30.836410     30.836410     61.672820
     -2.597598     31.988934     31.988934     63.977868
     -2.587588     33.293860     33.293860     66.587720
     -2.577578     34.457243     34.457243     68.914486
     -2.567568     35.160989     35.160989     70.321979
     -2.557558     35.133671     35.133671     70.267343
     -2.547548     34.187650     34.187650     68.375300
     -2.537538     32.254357     32.254357     64.508713
     -2.527528     29.436887     29.436887     58.873775
     -2.517518     26.057018     26.057018     52.114036
     -2.507508     22.646329     22.646329     45.292659
     -2.497497     19.847421     19.847421     39.694843
     -2.487487     18.241503     18.241503     36.483007
     -2.477477     18.166890     18.166890     36.333779
     -2.467467     19.607365     19.607365     39.214730
     -2.457457     22.202952     22.202952     44.405905
     -2.447447     25.383828     25.383828     50.767656
     -2.437437     28.575443     28.575443     57.150885
     -2.427427     31.391157     31.391157     62.782314
     -2.417417     33.731028     33.731028     67.462055
     -2.407407     35.742627     35.742627     71.485253
     -2.397397     37.659032     37.659032     75.318064
     -2.387387     39.587095     39.587095     79.174191
     -2.377377     41.350020     41.350020     82.700041
     -2.367367     42.473489     42.473489     84.946978
     -2.357357     42.342535     42.342535     84.685071
     -2.347347     40.470464     40.470464     80.940927
     -2.337337     36.755765     36.755765     73.511529
     -2.327327     31.600500     31.600500     63.201001
     -2.317317     25.831778     25.831778     51.663555
     -2.307307     20.467329     20.467329     40.934657
     -2.297297     16.435477     16.435477     32.870953
     -2.287287     14.361179     14.361179     28.722358
     -2.277277     14.475177     14.475177     28.950354
     -2.267267     16.637544     16.637544     33.275088
     -2.257257     20.429301     20.429301     40.858602
     -2.247247     25.264307     25.264307     50.528614
     -2.237237     30.491417     30.491417     60.982834
     -2.227227     35.474499     35.474499     70.948998
     -2.217217     39.648563     39.648563     79.297126
     -2.207207     42.557288     42.557288     85.114576
     -2.197197     43.883148     43.883148     87.766295
     -2.187187     43.481716     43.481716     86.963432
     -2.177177     41.420338     41.420338     82.840677
     -2.167167     38.000657     38.000657     76.001314
     -2.157157     33.730326     33.730326     67.460652
     -2.147147     29.220596     29.220596     58.441192
     -2.137137     25.026202     25.026202     50.052404
     -2.127127     21.488883     21.488883     42.977766
     -2.117117     18.660326     18.660326     37.320652
     -2.107107     16.345966     16.345966     32.691932
     -2.097097     14.246089     14.246089     28.492179
     -2.087087     12.118223     12.118223     24.236445
     -2.077077      9.879918      9.879918     19.759837
     -2.067067      7.613732      7.613732     15.227465
     -2.057057      5.494021      5.494021     10.988042
     -2.047047      3.690429      3.690429      7.380859
     -2.037037      2.299682      2.299682      4.599363
     -2.027027      1.327644      1.327644      2.655287
     -2.017017      0.712480      0.712480      1.424960
     -2.007007      0.364896      0.364896      0.729791
     -1.996997      0.204813      0.204813      0.409626
     -1.986987      0.185976      0.185976      0.371953
     -1.976977      0.310294      0.310294      0.620587
     -1.966967      0.636682      0.636682      1.273363
     -1.956957      1.285149      1.285149      2.570299
     -1.946947      2.429702      2.429702      4.859405
     -1.936937      4.269062      4.269062      8.538124
     -1.926927      6.967621      6.967621     13.935242
     -1.916917     10.572984     10.572984     21.145968
     -1.906907     14.936327     14.936327     29.872654
     -1.896897     19.675736     19.675736     39.351471
     -1.886887     24.217121     24.217121     48.434243
     -1.876877     27.918399     27.918399     55.836799
     -1.866867     30.242466     30.242466     60.484932
     -1.856857     30.915715     30.915715     61.831431
     -1.846847     30.008985     30.008985     60.017971
     -1.836837     27.907296     27.907296     55.814591
     -1.826827     25.178253     25.178253     50.356507
     -1.816817     22.387318     22.387318     44.774637
     -1.806807     19.927789     19.927789     39.855578
     -1.796797     17.928125     17.928125     35.856251
     -1.786787     16.268946     16.268946     32.537893
     -1.776777     14.695592     14.695592     29.391184
     -1.766767     12.969572     12.969572     25.939144
     -1.756757     10.987185     10.987185     21.974369
     -1.746747      8.816534      8.816534     17.633069
     -1.736737      6.651535      6.651535     13.303070
     -1.726727      4.723515      4.723515      9.447030
     -1.716717      3.223337      3.223337      6.446674
     -1.706707      2.267215      2.267215      4.534431
     -1.696697      1.905548      1.905548      3.811095
     -1.686687      2.148753      2.148753      4.297507
     -1.676677      2.979827      2.979827      5.959653
     -1.666667      4.338749      4.338749      8.677498
     -1.656657      6.088279      6.088279     12.176557
     -1.646647      7.990050      7.990050     15.980101
     -1.636637      9.722612      9.722612     19.445225
     -1.626627     10.954669     10.954669     21.909338
