# EIG2DOS: Utility for SIESTA to obtain the electronic density of states
#  E. Artacho, Apr 1999, A. Garcia, Apr 2012
#  Nick R. Papior, Feb 2017
# ------------------------------------------
# Eigenvalues calculated from a non-polarized calculation
# Eigenvalues read from siesta.EIG
# Kpoint weights read from siesta.KP
# Using smearing parameter:   0.0500
# Using 1000 points in the energy range
# Selected bands: 1 to: 2981
# Emin, Emax in file for selected band(s):    -27.2911755    218.3881600
# Nbands, Nspin, Nk   =   2981     1     1
# E_F                 =    -4.2090 eV --> (shifted to ZERO)
# Broadening          =     0.0500 eV
#
#        E            N(up)  (=)   N(down)         Ntot
     -5.000000     32.112760     32.112760     64.225520
     -4.989990     37.052765     37.052765     74.105531
     -4.979980     41.645649     41.645649     83.291298
     -4.969970     45.103354     45.103354     90.206708
     -4.959960     46.775065     46.775065     93.550130
     -4.949950     46.364693     46.364693     92.729387
     -4.939940     44.035462     44.035462     88.070924
     -4.929930     40.373995     40.373995     80.747990
     -4.919920     36.250442     36.250442     72.500883
     -4.909910     32.638507     32.638507     65.277014
     -4.899900     30.440453     30.440453     60.880905
     -4.889890     30.325711     30.325711     60.651422
     -4.879880     32.578557     32.578557     65.157115
     -4.869870     36.975767     36.975767     73.951534
     -4.859860     42.753203     42.753203     85.506406
     -4.849850     48.724947     48.724947     97.449895
     -4.839840     53.565953     53.565953    107.131907
     -4.829830     56.182447     56.182447    112.364895
     -4.819820     56.030161     56.030161    112.060323
     -4.809810     53.247437     53.247437    106.494875
     -4.799800     48.551674     48.551674     97.103348
     -4.789790     42.957497     42.957497     85.914994
     -4.779780     37.449422     37.449422     74.898843
     -4.769770     32.741799     32.741799     65.483597
     -4.759760     29.193915     29.193915     58.387830
     -4.749750     26.864085     26.864085     53.728169
     -4.739740     25.630584     25.630584     51.261168
     -4.729730     25.299717     25.299717     50.599435
     -4.719720     25.652964     25.652964     51.305928
     -4.709710     26.433081     26.433081     52.866162
     -4.699700     27.310681     27.310681     54.621361
     -4.689690     27.889662     27.889662     55.779325
     -4.679680     27.790602     27.790602     55.581204
     -4.669670     26.800988     26.800988     53.601976
     -4.659660     25.027167     25.027167     50.054334
     -4.649650     22.960856     22.960856     45.921712
     -4.639640     21.400906     21.400906     42.801811
     -4.629630     21.233783     21.233783     42.467567
     -4.619620     23.139174     23.139174     46.278348
     -4.609610     27.321904     27.321904     54.643808
     -4.599600     33.369928     33.369928     66.739856
     -4.589590     40.304832     40.304832     80.609664
     -4.579580     46.832311     46.832311     93.664622
     -4.569570     51.726145     51.726145    103.452290
     -4.559560     54.215241     54.215241    108.430483
     -4.549550     54.224468     54.224468    108.448936
     -4.539540     52.367864     52.367864    104.735727
     -4.529530     49.693137     49.693137     99.386273
     -4.519520     47.281800     47.281800     94.563600
     -4.509510     45.867319     45.867319     91.734637
     -4.499499     45.617707     45.617707     91.235415
     -4.489489     46.150927     46.150927     92.301854
     -4.479479     46.750928     46.750928     93.501855
     -4.469469     46.675299     46.675299     93.350599
     -4.459459     45.423324     45.423324     90.846648
     -4.449449     42.869799     42.869799     85.739597
     -4.439439     39.242531     39.242531     78.485062
     -4.429429     34.992227     34.992227     69.984454
     -4.419419     30.638384     30.638384     61.276769
     -4.409409     26.660267     26.660267     53.320534
     -4.399399     23.452687     23.452687     46.905373
     -4.389389     21.317435     21.317435     42.634870
     -4.379379     20.446162     20.446162     40.892325
     -4.369369     20.876998     20.876998     41.753995
     -4.359359     22.450862     22.450862     44.901723
     -4.349349     24.816283     24.816283     49.632565
     -4.339339     27.512680     27.512680     55.025360
     -4.329329     30.113915     30.113915     60.227831
     -4.319319     32.371228     32.371228     64.742457
     -4.309309     34.286760     34.286760     68.573520
     -4.299299     36.078952     36.078952     72.157904
     -4.289289     38.048900     38.048900     76.097799
     -4.279279     40.397707     40.397707     80.795414
     -4.269269     43.065942     43.065942     86.131884
     -4.259259     45.665257     45.665257     91.330515
     -4.249249     47.548285     47.548285     95.096570
     -4.239239     48.014554     48.014554     96.029108
     -4.229229     46.586790     46.586790     93.173580
     -4.219219     43.242457     43.242457     86.484914
     -4.209209     38.486126     38.486126     76.972251
     -4.199199     33.213299     33.213299     66.426599
     -4.189189     28.417027     28.417027     56.834054
     -4.179179     24.867379     24.867379     49.734758
     -4.169169     22.903614     22.903614     45.807229
     -4.159159     22.416606     22.416606     44.833212
     -4.149149     23.004619     23.004619     46.009237
     -4.139139     24.210415     24.210415     48.420830
     -4.129129     25.723381     25.723381     51.446762
     -4.119119     27.457967     27.457967     54.915934
     -4.109109     29.481225     29.481225     58.962450
     -4.099099     31.833848     31.833848     63.667696
     -4.089089     34.345317     34.345317     68.690634
     -4.079079     36.557531     36.557531     73.115062
     -4.069069     37.825151     37.825151     75.650302
     -4.059059     37.566956     37.566956     75.133911
     -4.049049     35.549669     35.549669     71.099338
     -4.039039     32.054275     32.054275     64.108551
     -4.029029     27.831820     27.831820     55.663640
     -4.019019     23.868425     23.868425     47.736850
     -4.009009     21.076482     21.076482     42.152964
     -3.998999     20.052455     20.052455     40.104909
     -3.988989     20.986514     20.986514     41.973028
     -3.978979     23.720125     23.720125     47.440249
     -3.968969     27.882470     27.882470     55.764939
     -3.958959     33.026489     33.026489     66.052978
     -3.948949     38.720803     38.720803     77.441607
     -3.938939     44.598376     44.598376     89.196752
     -3.928929     50.382403     50.382403    100.764806
     -3.918919     55.897374     55.897374    111.794748
     -3.908909     61.050701     61.050701    122.101402
     -3.898899     65.767835     65.767835    131.535670
     -3.888889     69.891577     69.891577    139.783154
     -3.878879     73.094376     73.094376    146.188753
     -3.868869     74.867513     74.867513    149.735026
     -3.858859     74.624509     74.624509    149.249019
     -3.848849     71.898919     71.898919    143.797838
     -3.838839     66.561554     66.561554    133.123109
     -3.828829     58.961483     58.961483    117.922966
     -3.818819     49.921012     49.921012     99.842025
     -3.808809     40.574140     40.574140     81.148280
     -3.798799     32.100861     32.100861     64.201722
     -3.788789     25.447079     25.447079     50.894159
     -3.778779     21.118346     21.118346     42.236691
     -3.768769     19.102184     19.102184     38.204367
     -3.758759     18.928222     18.928222     37.856445
     -3.748749     19.836834     19.836834     39.673667
     -3.738739     21.004975     21.004975     42.009951
     -3.728729     21.771821     21.771821     43.543643
     -3.718719     21.811592     21.811592     43.623185
     -3.708709     21.212814     21.212814     42.425628
     -3.698699     20.441060     20.441060     40.882121
     -3.688689     20.186840     20.186840     40.373680
     -3.678679     21.131137     21.131137     42.262274
     -3.668669     23.692727     23.692727     47.385454
     -3.658659     27.841057     27.841057     55.682114
     -3.648649     33.050203     33.050203     66.100406
     -3.638639     38.424663     38.424663     76.849326
     -3.628629     42.958328     42.958328     85.916656
     -3.618619     45.827372     45.827372     91.654744
     -3.608609     46.603107     46.603107     93.206214
     -3.598599     45.314266     45.314266     90.628531
     -3.588589     42.363075     42.363075     84.726150
     -3.578579     38.358279     38.358279     76.716559
     -3.568569     33.939674     33.939674     67.879348
     -3.558559     29.640853     29.640853     59.281706
     -3.548549     25.803894     25.803894     51.607789
     -3.538539     22.546884     22.546884     45.093769
     -3.528529     19.787925     19.787925     39.575850
     -3.518519     17.325637     17.325637     34.651274
     -3.508509     14.955667     14.955667     29.911334
     -3.498498     12.579542     12.579542     25.159083
     -3.488488     10.259728     10.259728     20.519456
     -3.478478      8.200042      8.200042     16.400084
     -3.468468      6.666751      6.666751     13.333503
     -3.458458      5.888397      5.888397     11.776793
     -3.448448      5.971814      5.971814     11.943629
     -3.438438      6.857847      6.857847     13.715694
     -3.428428      8.327702      8.327702     16.655405
     -3.418418     10.063498     10.063498     20.126995
     -3.408408     11.755628     11.755628     23.511255
     -3.398398     13.228773     13.228773     26.457545
     -3.388388     14.536412     14.536412     29.072823
     -3.378378     15.970897     15.970897     31.941794
     -3.368368     17.965883     17.965883     35.931765
     -3.358358     20.919924     20.919924     41.839847
     -3.348348     25.013276     25.013276     50.026553
     -3.338338     30.094681     30.094681     60.189362
     -3.328328     35.677597     35.677597     71.355193
     -3.318318     41.033181     41.033181     82.066362
     -3.308308     45.336327     45.336327     90.672653
     -3.298298     47.825149     47.825149     95.650298
     -3.288288     47.954153     47.954153     95.908305
     -3.278278     45.526436     45.526436     91.052873
     -3.268268     40.773742     40.773742     81.547485
     -3.258258     34.340814     34.340814     68.681627
     -3.248248     27.152562     27.152562     54.305123
     -3.238238     20.196480     20.196480     40.392959
     -3.228228     14.300019     14.300019     28.600038
     -3.218218      9.984179      9.984179     19.968359
     -3.208208      7.428385      7.428385     14.856770
     -3.198198      6.524164      6.524164     13.048328
     -3.188188      6.967153      6.967153     13.934305
     -3.178178      8.349821      8.349821     16.699642
     -3.168168     10.248021     10.248021     20.496041
     -3.158158     12.309783     12.309783     24.619567
     -3.148148     14.340686     14.340686     28.681371
     -3.138138     16.352537     16.352537     32.705074
     -3.128128     18.532707     18.532707     37.065414
     -3.118118     21.119897     21.119897     42.239794
     -3.108108     24.227551     24.227551     48.455101
     -3.098098     27.701446     27.701446     55.402892
     -3.088088     31.096583     31.096583     62.193166
     -3.078078     33.802306     33.802306     67.604612
     -3.068068     35.263241     35.263241     70.526482
     -3.058058     35.186977     35.186977     70.373954
     -3.048048     33.634772     33.634772     67.269543
     -3.038038     30.957916     30.957916     61.915831
     -3.028028     27.629065     27.629065     55.258130
     -3.018018     24.070593     24.070593     48.141186
     -3.008008     20.569650     20.569650     41.139300
     -2.997998     17.305326     17.305326     34.610652
     -2.987988     14.443301     14.443301     28.886603
     -2.977978     12.221742     12.221742     24.443484
     -2.967968     10.970349     10.970349     21.940699
     -2.957958     11.049640     11.049640     22.099280
     -2.947948     12.737168     12.737168     25.474336
     -2.937938     16.104896     16.104896     32.209791
     -2.927928     20.931167     20.931167     41.862334
     -2.917918     26.682005     26.682005     53.364009
     -2.907908     32.582392     32.582392     65.164783
     -2.897898     37.774333     37.774333     75.548665
     -2.887888     41.524947     41.524947     83.049895
     -2.877878     43.417350     43.417350     86.834699
     -2.867868     43.449543     43.449543     86.899086
     -2.857858     41.994852     41.994852     83.989703
     -2.847848     39.634528     39.634528     79.269055
     -2.837838     36.932655     36.932655     73.865309
     -2.827828     34.252541     34.252541     68.505082
     -2.817818     31.693447     31.693447     63.386893
     -2.807808     29.164619     29.164619     58.329238
     -2.797798     26.542958     26.542958     53.085915
     -2.787788     23.820450     23.820450     47.640900
     -2.777778     21.160168     21.160168     42.320336
     -2.767768     18.837107     18.837107     37.674214
     -2.757758     17.108521     17.108521     34.217042
     -2.747748     16.097661     16.097661     32.195322
     -2.737738     15.761929     15.761929     31.523858
     -2.727728     15.959394     15.959394     31.918789
     -2.717718     16.561988     16.561988     33.123977
     -2.707708     17.532361     17.532361     35.064722
     -2.697698     18.907271     18.907271     37.814542
     -2.687688     20.698680     20.698680     41.397359
     -2.677678     22.788135     22.788135     45.576270
     -2.667668     24.902796     24.902796     49.805591
     -2.657658     26.708761     26.708761     53.417523
     -2.647648     27.973283     27.973283     55.946565
     -2.637638     28.692449     28.692449     57.384898
     -2.627628     29.097448     29.097448     58.194895
     -2.617618     29.530750     29.530750     59.061501
     -2.607608     30.267102     30.267102     60.534205
     -2.597598     31.382853     31.382853     62.765706
     -2.587588     32.734299     32.734299     65.468597
     -2.577578     34.029935     34.029935     68.059869
     -2.567568     34.932694     34.932694     69.865388
     -2.557558     35.137642     35.137642     70.275283
     -2.547548     34.417533     34.417533     68.835065
     -2.537538     32.663999     32.663999     65.327999
     -2.527528     29.944020     29.944020     59.888040
     -2.517518     26.552240     26.552240     53.104479
     -2.507508     23.010759     23.010759     46.021518
     -2.497497     19.979782     19.979782     39.959564
     -2.487487     18.089320     18.089320     36.178640
     -2.477477     17.750859     17.750859     35.501718
     -2.467467     19.026965     19.026965     38.053931
     -2.457457     21.616742     21.616742     43.233484
     -2.447447     24.967979     24.967979     49.935958
     -2.437437     28.474040     28.474040     56.948081
     -2.427427     31.676054     31.676054     63.352108
     -2.417417     34.384808     34.384808     68.769617
     -2.407407     36.668070     36.668070     73.336140
     -2.397397     38.708584     38.708584     77.417167
     -2.387387     40.601257     40.601257     81.202515
     -2.377377     42.194313     42.194313     84.388627
     -2.367367     43.066263     43.066263     86.132525
     -2.357357     42.668020     42.668020     85.336040
     -2.347347     40.573990     40.573990     81.147981
     -2.337337     36.722897     36.722897     73.445795
     -2.327327     31.527834     31.527834     63.055667
     -2.317317     25.800325     25.800325     51.600651
     -2.307307     20.526856     20.526856     41.053711
     -2.297297     16.601447     16.601447     33.202895
     -2.287287     14.620192     14.620192     29.240384
     -2.277277     14.793462     14.793462     29.586924
     -2.267267     16.969659     16.969659     33.939318
     -2.257257     20.726917     20.726917     41.453834
     -2.247247     25.485244     25.485244     50.970488
     -2.237237     30.607437     30.607437     61.214873
     -2.227227     35.475336     35.475336     70.950672
     -2.217217     39.540862     39.540862     79.081724
     -2.207207     42.359549     42.359549     84.719097
     -2.197197     43.619330     43.619330     87.238660
     -2.187187     43.175831     43.175831     86.351662
     -2.177177     41.093020     41.093020     82.186041
     -2.167167     37.667856     37.667856     75.335712
     -2.157157     33.404135     33.404135     66.808270
     -2.147147     28.911993     28.911993     57.823987
     -2.137137     24.748472     24.748472     49.496944
     -2.127127     21.259372     21.259372     42.518743
     -2.117117     18.498392     18.498392     36.996783
     -2.107107     16.267093     16.267093     32.534185
     -2.097097     14.254900     14.254900     28.509800
     -2.087087     12.204503     12.204503     24.409006
     -2.077077     10.020498     10.020498     20.040995
     -2.067067      7.780061      7.780061     15.560121
     -2.057057      5.662812      5.662812     11.325625
     -2.047047      3.854641      3.854641      7.709282
     -2.037037      2.479318      2.479318      4.958637
     -2.027027      1.582382      1.582382      3.164764
     -2.017017      1.158228      1.158228      2.316456
     -2.007007      1.192360      1.192360      2.384720
     -1.996997      1.690408      1.690408      3.380817
     -1.986987      2.677637      2.677637      5.355273
     -1.976977      4.169310      4.169310      8.338620
     -1.966967      6.128070      6.128070     12.256141
     -1.956957      8.434182      8.434182     16.868364
     -1.946947     10.892064     10.892064     21.784129
     -1.936937     13.278735     13.278735     26.557469
     -1.926927     15.413558     15.413558     30.827117
     -1.916917     17.210783     17.210783     34.421566
     -1.906907     18.682433     18.682433     37.364867
     -1.896897     19.888815     19.888815     39.777629
     -1.886887     20.867588     20.867588     41.735176
     -1.876877     21.586147     21.586147     43.172294
     -1.866867     21.946767     21.946767     43.893535
     -1.856857     21.841845     21.841845     43.683689
     -1.846847     21.228340     21.228340     42.456679
     -1.836837     20.180165     20.180165     40.360329
     -1.826827     18.886637     18.886637     37.773273
     -1.816817     17.589492     17.589492     35.178984
     -1.806807     16.482150     16.482150     32.964300
     -1.796797     15.619731     15.619731     31.239462
     -1.786787     14.890341     14.890341     29.780682
     -1.776777     14.069659     14.069659     28.139319
     -1.766767     12.934498     12.934498     25.868996
     -1.756757     11.376030     11.376030     22.752059
     -1.746747      9.454471      9.454471     18.908943
     -1.736737      7.373662      7.373662     14.747324
     -1.726727      5.400276      5.400276     10.800552
     -1.716717      3.777519      3.777519      7.555038
     -1.706707      2.674343      2.674343      5.348686
     -1.696697      2.180102      2.180102      4.360205
     -1.686687      2.324703      2.324703      4.649407
     -1.676677      3.093603      3.093603      6.187206
     -1.666667      4.418781      4.418781      8.837563
     -1.656657      6.151223      6.151223     12.302446
     -1.646647      8.041888      8.041888     16.083776
     -1.636637      9.762586      9.762586     19.525172
     -1.626627     10.980460     10.980460     21.960921
