# EIG2DOS: Utility for SIESTA to obtain the electronic density of states
#  E. Artacho, Apr 1999, A. Garcia, Apr 2012
#  Nick R. Papior, Feb 2017
# ------------------------------------------
# Eigenvalues calculated from a non-polarized calculation
# Eigenvalues read from siesta.EIG
# Kpoint weights read from siesta.KP
# Using smearing parameter:   0.0500
# Using 1000 points in the energy range
# Selected bands: 1 to: 2981
# Emin, Emax in file for selected band(s):    -27.0835593    218.3431140
# Nbands, Nspin, Nk   =   2981     1     1
# E_F                 =    -4.2619 eV --> (shifted to ZERO)
# Broadening          =     0.0500 eV
#
#        E            N(up)  (=)   N(down)         Ntot
     -5.000000     34.348681     34.348681     68.697363
     -4.989990     37.891663     37.891663     75.783326
     -4.979980     40.985367     40.985367     81.970733
     -4.969970     43.105183     43.105183     86.210365
     -4.959960     43.868559     43.868559     87.737118
     -4.949950     43.138747     43.138747     86.277495
     -4.939940     41.068180     41.068180     82.136360
     -4.929930     38.076419     38.076419     76.152837
     -4.919920     34.783718     34.783718     69.567437
     -4.909910     31.925630     31.925630     63.851261
     -4.899900     30.255391     30.255391     60.510781
     -4.889890     30.418901     30.418901     60.837803
     -4.879880     32.789905     32.789905     65.579811
     -4.869870     37.291938     37.291938     74.583877
     -4.859860     43.285908     43.285908     86.571816
     -4.849850     49.620327     49.620327     99.240654
     -4.839840     54.890418     54.890418    109.780837
     -4.829830     57.845962     57.845962    115.691924
     -4.819820     57.789063     57.789063    115.578126
     -4.809810     54.783669     54.783669    109.567337
     -4.799800     49.582824     49.582824     99.165649
     -4.789790     43.320138     43.320138     86.640275
     -4.779780     37.120945     37.120945     74.241889
     -4.769770     31.802272     31.802272     63.604545
     -4.759760     27.753628     27.753628     55.507257
     -4.749750     24.985462     24.985462     49.970923
     -4.739740     23.265479     23.265479     46.530959
     -4.729730     22.258950     22.258950     44.517900
     -4.719720     21.625749     21.625749     43.251497
     -4.709710     21.068193     21.068193     42.136386
     -4.699700     20.348746     20.348746     40.697492
     -4.689690     19.303273     19.303273     38.606545
     -4.679680     17.868115     17.868115     35.736230
     -4.669670     16.122048     16.122048     32.244096
     -4.659660     14.324395     14.324395     28.648790
     -4.649650     12.919400     12.919400     25.838800
     -4.639640     12.481910     12.481910     24.963820
     -4.629630     13.598022     13.598022     27.196044
     -4.619620     16.697934     16.697934     33.395869
     -4.609610     21.880435     21.880435     43.760869
     -4.599600     28.786480     28.786480     57.572960
     -4.589590     36.585877     36.585877     73.171754
     -4.579580     44.122169     44.122169     88.244338
     -4.569570     50.207776     50.207776    100.415552
     -4.559560     53.988218     53.988218    107.976437
     -4.549550     55.238831     55.238831    110.477662
     -4.539540     54.459469     54.459469    108.918937
     -4.529530     52.704035     52.704035    105.408070
     -4.519520     51.193780     51.193780    102.387560
     -4.509510     50.862019     50.862019    101.724037
     -4.499499     52.013623     52.013623    104.027245
     -4.489489     54.235827     54.235827    108.471654
     -4.479479     56.587894     56.587894    113.175787
     -4.469469     57.977057     57.977057    115.954114
     -4.459459     57.554855     57.554855    115.109710
     -4.449449     54.976143     54.976143    109.952287
     -4.439439     50.444181     50.444181    100.888363
     -4.429429     44.571186     44.571186     89.142371
     -4.419419     38.156174     38.156174     76.312348
     -4.409409     31.987140     31.987140     63.974281
     -4.399399     26.722858     26.722858     53.445717
     -4.389389     22.844401     22.844401     45.688801
     -4.379379     20.632681     20.632681     41.265361
     -4.369369     20.141813     20.141813     40.283625
     -4.359359     21.177850     21.177850     42.355701
     -4.349349     23.320138     23.320138     46.640276
     -4.339339     26.013079     26.013079     52.026158
     -4.329329     28.715907     28.715907     57.431813
     -4.319319     31.057418     31.057418     62.114837
     -4.309309     32.931174     32.931174     65.862348
     -4.299299     34.491003     34.491003     68.982006
     -4.289289     36.049023     36.049023     72.098045
     -4.279279     37.913931     37.913931     75.827862
     -4.269269     40.223910     40.223910     80.447819
     -4.259259     42.830018     42.830018     85.660035
     -4.249249     45.278467     45.278467     90.556934
     -4.239239     46.919287     46.919287     93.838574
     -4.229229     47.125697     47.125697     94.251395
     -4.219219     45.550321     45.550321     91.100641
     -4.209209     42.304190     42.304190     84.608381
     -4.199199     37.960826     37.960826     75.921652
     -4.189189     33.367439     33.367439     66.734878
     -4.179179     29.346862     29.346862     58.693724
     -4.169169     26.432353     26.432353     52.864707
     -4.159159     24.754735     24.754735     49.509471
     -4.149149     24.114666     24.114666     48.229331
     -4.139139     24.178541     24.178541     48.357082
     -4.129129     24.686072     24.686072     49.372145
     -4.119119     25.566871     25.566871     51.133742
     -4.109109     26.915851     26.915851     53.831702
     -4.099099     28.845870     28.845870     57.691740
     -4.089089     31.296809     31.296809     62.593617
     -4.079079     33.910879     33.910879     67.821758
     -4.069069     36.063664     36.063664     72.127328
     -4.059059     37.065773     37.065773     74.131547
     -4.049049     36.452240     36.452240     72.904479
     -4.039039     34.214326     34.214326     68.428652
     -4.029029     30.848273     30.848273     61.696546
     -4.019019     27.192760     27.192760     54.385520
     -4.009009     24.141429     24.141429     48.282859
     -3.998999     22.375207     22.375207     44.750413
     -3.988989     22.228298     22.228298     44.456596
     -3.978979     23.710521     23.710521     47.421041
     -3.968969     26.622784     26.622784     53.245567
     -3.958959     30.675192     30.675192     61.350384
     -3.948949     35.553559     35.553559     71.107118
     -3.938939     40.940126     40.940126     81.880253
     -3.928929     46.527838     46.527838     93.055676
     -3.918919     52.053327     52.053327    104.106654
     -3.908909     57.332719     57.332719    114.665437
     -3.898899     62.258235     62.258235    124.516470
     -3.888889     66.729291     66.729291    133.458581
     -3.878879     70.540339     70.540339    141.080678
     -3.868869     73.293343     73.293343    146.586686
     -3.858859     74.409945     74.409945    148.819891
     -3.848849     73.276302     73.276302    146.552604
     -3.838839     69.481963     69.481963    138.963926
     -3.828829     63.052831     63.052831    126.105663
     -3.818819     54.564311     54.564311    109.128622
     -3.808809     45.066717     45.066717     90.133433
     -3.798799     35.838461     35.838461     71.676922
     -3.788789     28.058211     28.058211     56.116421
     -3.778779     22.515737     22.515737     45.031473
     -3.768769     19.453934     19.453934     38.907869
     -3.758759     18.574845     18.574845     37.149690
     -3.748749     19.185260     19.185260     38.370520
     -3.738739     20.424612     20.424612     40.849223
     -3.728729     21.510561     21.510561     43.021121
     -3.718719     21.945137     21.945137     43.890273
     -3.708709     21.636835     21.636835     43.273669
     -3.698699     20.909498     20.909498     41.818996
     -3.688689     20.389936     20.389936     40.779872
     -3.678679     20.795273     20.795273     41.590545
     -3.668669     22.674517     22.674517     45.349034
     -3.658659     26.185430     26.185430     52.370860
     -3.648649     30.990566     30.990566     61.981133
     -3.638639     36.322732     36.322732     72.645464
     -3.628629     41.204730     41.204730     82.409461
     -3.618619     44.739687     44.739687     89.479374
     -3.608609     46.356218     46.356218     92.712436
     -3.598599     45.919904     45.919904     91.839809
     -3.588589     43.693158     43.693158     87.386316
     -3.578579     40.193464     40.193464     80.386928
     -3.568569     36.024873     36.024873     72.049746
     -3.558559     31.736636     31.736636     63.473272
     -3.548549     27.727500     27.727500     55.455000
     -3.538539     24.196442     24.196442     48.392883
     -3.528529     21.143549     21.143549     42.287098
     -3.518519     18.426705     18.426705     36.853409
     -3.508509     15.863487     15.863487     31.726974
     -3.498498     13.341610     13.341610     26.683221
     -3.488488     10.889961     10.889961     21.779921
     -3.478478      8.679941      8.679941     17.359883
     -3.468468      6.962156      6.962156     13.924312
     -3.458458      5.971303      5.971303     11.942606
     -3.448448      5.837433      5.837433     11.674866
     -3.438438      6.529912      6.529912     13.059823
     -3.428428      7.847048      7.847048     15.694095
     -3.418418      9.456871      9.456871     18.913742
     -3.408408     10.986828     10.986828     21.973657
     -3.398398     12.143912     12.143912     24.287825
     -3.388388     12.825854     12.825854     25.651708
     -3.378378     13.175223     13.175223     26.350446
     -3.368368     13.545759     13.545759     27.091519
     -3.358358     14.389126     14.389126     28.778251
     -3.348348     16.106458     16.106458     32.212916
     -3.338338     18.918352     18.918352     37.836704
     -3.328328     22.786100     22.786100     45.572199
     -3.318318     27.387717     27.387717     54.775435
     -3.308308     32.140958     32.140958     64.281916
     -3.298298     36.276843     36.276843     72.553687
     -3.288288     38.977899     38.977899     77.955798
     -3.278278     39.576874     39.576874     79.153749
     -3.268268     37.764828     37.764828     75.529656
     -3.258258     33.719316     33.719316     67.438633
     -3.248248     28.077116     28.077116     56.154231
     -3.238238     21.746470     21.746470     43.492939
     -3.228228     15.637495     15.637495     31.274990
     -3.218218     10.428127     10.428127     20.856255
     -3.208208      6.453346      6.453346     12.906691
     -3.198198      3.734075      3.734075      7.468151
     -3.188188      2.099156      2.099156      4.198311
     -3.178178      1.331580      1.331580      2.663161
     -3.168168      1.286207      1.286207      2.572415
     -3.158158      1.955061      1.955061      3.910121
     -3.148148      3.475609      3.475609      6.951218
     -3.138138      6.082340      6.082340     12.164680
     -3.128128     10.003800     10.003800     20.007600
     -3.118118     15.320027     15.320027     30.640054
     -3.108108     21.821421     21.821421     43.642842
     -3.098098     28.934376     28.934376     57.868753
     -3.088088     35.776564     35.776564     71.553128
     -3.078078     41.360017     41.360017     82.720034
     -3.068068     44.885490     44.885490     89.770980
     -3.058058     46.007558     46.007558     92.015116
     -3.048048     44.942381     44.942381     89.884761
     -3.038038     42.355904     42.355904     84.711808
     -3.028028     39.079512     39.079512     78.159023
     -3.018018     35.790467     35.790467     71.580934
     -3.008008     32.811022     32.811022     65.622043
     -2.997998     30.112318     30.112318     60.224637
     -2.987988     27.498123     27.498123     54.996245
     -2.977978     24.853801     24.853801     49.707603
     -2.967968     22.324661     22.324661     44.649322
     -2.957958     20.337317     20.337317     40.674635
     -2.947948     19.461686     19.461686     38.923371
     -2.937938     20.182699     20.182699     40.365399
     -2.927928     22.681238     22.681238     45.362476
     -2.917918     26.711277     26.711277     53.422554
     -2.907908     31.620113     31.620113     63.240226
     -2.897898     36.507909     36.507909     73.015818
     -2.887888     40.475100     40.475100     80.950201
     -2.877878     42.873414     42.873414     85.746829
     -2.867868     43.470822     43.470822     86.941644
     -2.857858     42.469884     42.469884     84.939767
     -2.847848     40.376093     40.376093     80.752186
     -2.837838     37.775350     37.775350     75.550699
     -2.827828     35.117971     35.117971     70.235942
     -2.817818     32.600227     32.600227     65.200454
     -2.807808     30.184469     30.184469     60.368939
     -2.797798     27.729860     27.729860     55.459719
     -2.787788     25.152820     25.152820     50.305640
     -2.777778     22.527403     22.527403     45.054807
     -2.767768     20.075155     20.075155     40.150311
     -2.757758     18.059796     18.059796     36.119592
     -2.747748     16.656981     16.656981     33.313962
     -2.737738     15.881604     15.881604     31.763207
     -2.727728     15.616695     15.616695     31.233390
     -2.717718     15.721483     15.721483     31.442967
     -2.707708     16.142995     16.142995     32.285991
     -2.697698     16.951303     16.951303     33.902606
     -2.687688     18.268733     18.268733     36.537466
     -2.677678     20.137233     20.137233     40.274467
     -2.667668     22.416046     22.416046     44.832092
     -2.657658     24.788460     24.788460     49.576921
     -2.647648     26.886676     26.886676     53.773351
     -2.637638     28.463192     28.463192     56.926383
     -2.627628     29.502170     29.502170     59.004340
     -2.617618     30.201638     30.201638     60.403275
     -2.607608     30.841911     30.841911     61.683822
     -2.597598     31.626344     31.626344     63.252687
     -2.587588     32.587150     32.587150     65.174300
     -2.577578     33.591934     33.591934     67.183869
     -2.567568     34.415585     34.415585     68.831171
     -2.557558     34.813972     34.813972     69.627944
     -2.547548     34.565454     34.565454     69.130908
     -2.537538     33.496830     33.496830     66.993660
     -2.527528     31.530160     31.530160     63.060320
     -2.517518     28.757395     28.757395     57.514790
     -2.507508     25.501131     25.501131     51.002263
     -2.497497     22.300327     22.300327     44.600654
     -2.487487     19.791619     19.791619     39.583238
     -2.477477     18.518671     18.518671     37.037342
     -2.467467     18.750320     18.750320     37.500639
     -2.457457     20.392313     20.392313     40.784626
     -2.447447     23.036442     23.036442     46.072884
     -2.437437     26.127878     26.127878     52.255756
     -2.427427     29.176935     29.176935     58.353869
     -2.417417     31.919824     31.919824     63.839647
     -2.407407     34.355062     34.355062     68.710125
     -2.397397     36.640071     36.640071     73.280142
     -2.387387     38.900565     38.900565     77.801131
     -2.377377     41.050924     41.050924     82.101848
     -2.367367     42.723257     42.723257     85.446513
     -2.357357     43.354162     43.354162     86.708325
     -2.347347     42.402142     42.402142     84.804285
     -2.337337     39.601336     39.601336     79.202672
     -2.327327     35.133991     35.133991     70.267983
     -2.317317     29.639855     29.639855     59.279710
     -2.307307     24.057810     24.057810     48.115621
     -2.297297     19.370600     19.370600     38.741201
     -2.287287     16.356327     16.356327     32.712654
     -2.277277     15.429377     15.429377     30.858755
     -2.267267     16.601053     16.601053     33.202107
     -2.257257     19.541340     19.541340     39.082680
     -2.247247     23.698676     23.698676     47.397353
     -2.237237     28.432991     28.432991     56.865982
     -2.227227     33.127038     33.127038     66.254076
     -2.217217     37.255088     37.255088     74.510176
     -2.207207     40.406042     40.406042     80.812085
     -2.197197     42.278410     42.278410     84.556820
     -2.187187     42.677901     42.677901     85.355801
     -2.177177     41.541990     41.541990     83.083979
     -2.167167     38.987356     38.987356     77.974712
     -2.157157     35.342237     35.342237     70.684474
     -2.147147     31.114480     31.114480     62.228961
     -2.137137     26.874604     26.874604     53.749209
     -2.127127     23.088624     23.088624     46.177248
     -2.117117     19.979004     19.979004     39.958007
     -2.107107     17.487998     17.487998     34.975996
     -2.097097     15.363306     15.363306     30.726613
     -2.087087     13.316864     13.316864     26.633727
     -2.077077     11.170511     11.170511     22.341022
     -2.067067      8.919542      8.919542     17.839084
     -2.057057      6.699963      6.699963     13.399927
     -2.047047      4.698144      4.698144      9.396287
     -2.037037      3.061066      3.061066      6.122131
     -2.027027      1.848385      1.848385      3.696771
     -2.017017      1.034078      1.034078      2.068156
     -2.007007      0.539713      0.539713      1.079426
     -1.996997      0.274657      0.274657      0.549314
     -1.986987      0.166808      0.166808      0.333615
     -1.976977      0.179755      0.179755      0.359509
     -1.966967      0.319936      0.319936      0.639872
     -1.956957      0.637827      0.637827      1.275655
     -1.946947      1.223033      1.223033      2.446066
     -1.936937      2.188883      2.188883      4.377767
     -1.926927      3.642115      3.642115      7.284231
     -1.916917      5.639377      5.639377     11.278755
     -1.906907      8.142412      8.142412     16.284824
     -1.896897     10.991381     10.991381     21.982763
     -1.886887     13.913961     13.913961     27.827922
     -1.876877     16.575004     16.575004     33.150008
     -1.866867     18.654342     18.654342     37.308684
     -1.856857     19.928731     19.928731     39.857463
     -1.846847     20.333168     20.333168     40.666336
     -1.836837     19.983702     19.983702     39.967405
     -1.826827     19.152739     19.152739     38.305478
     -1.816817     18.197948     18.197948     36.395895
     -1.806807     17.460291     17.460291     34.920583
     -1.796797     17.162973     17.162973     34.325947
     -1.786787     17.349644     17.349644     34.699288
     -1.776777     17.886080     17.886080     35.772160
     -1.766767     18.519128     18.519128     37.038256
     -1.756757     18.960511     18.960511     37.921023
     -1.746747     18.960277     18.960277     37.920553
     -1.736737     18.354035     18.354035     36.708070
     -1.726727     17.089495     17.089495     34.178989
     -1.716717     15.242112     15.242112     30.484223
     -1.706707     13.017860     13.017860     26.035720
     -1.696697     10.730264     10.730264     21.460527
     -1.686687      8.742962      8.742962     17.485924
     -1.676677      7.385508      7.385508     14.771015
     -1.666667      6.865219      6.865219     13.730438
     -1.656657      7.202254      7.202254     14.404509
     -1.646647      8.209828      8.209828     16.419657
     -1.636637      9.531715      9.531715     19.063430
     -1.626627     10.735737     10.735737     21.471474
