# EIG2DOS: Utility for SIESTA to obtain the electronic density of states
#  E. Artacho, Apr 1999, A. Garcia, Apr 2012
#  Nick R. Papior, Feb 2017
# ------------------------------------------
# Eigenvalues calculated from a non-polarized calculation
# Eigenvalues read from siesta.EIG
# Kpoint weights read from siesta.KP
# Using smearing parameter:   0.0500
# Using 1000 points in the energy range
# Selected bands: 1 to: 2981
# Emin, Emax in file for selected band(s):    -27.2271085    218.3680600
# Nbands, Nspin, Nk   =   2981     1     1
# E_F                 =    -4.2335 eV --> (shifted to ZERO)
# Broadening          =     0.0500 eV
#
#        E            N(up)  (=)   N(down)         Ntot
     -5.000000     33.120772     33.120772     66.241544
     -4.989990     37.345511     37.345511     74.691022
     -4.979980     41.081723     41.081723     82.163447
     -4.969970     43.749075     43.749075     87.498150
     -4.959960     44.888996     44.888996     89.777992
     -4.949950     44.313620     44.313620     88.627240
     -4.939940     42.176796     42.176796     84.353592
     -4.929930     38.951823     38.951823     77.903645
     -4.919920     35.341993     35.341993     70.683986
     -4.909910     32.163868     32.163868     64.327736
     -4.899900     30.224703     30.224703     60.449406
     -4.889890     30.187475     30.187475     60.374950
     -4.879880     32.412487     32.412487     64.824973
     -4.869870     36.797742     36.797742     73.595484
     -4.859860     42.688229     42.688229     85.376458
     -4.849850     48.940297     48.940297     97.880593
     -4.839840     54.179052     54.179052    108.358103
     -4.829830     57.188644     57.188644    114.377288
     -4.819820     57.286824     57.286824    114.573648
     -4.809810     54.520307     54.520307    109.040613
     -4.799800     49.596035     49.596035     99.192070
     -4.789790     43.591723     43.591723     87.183446
     -4.779780     37.588653     37.588653     75.177306
     -4.769770     32.383578     32.383578     64.767157
     -4.759760     28.368134     28.368134     56.736268
     -4.749750     25.568060     25.568060     51.136120
     -4.739740     23.770794     23.770794     47.541589
     -4.729730     22.662374     22.662374     45.324749
     -4.719720     21.926186     21.926186     43.852372
     -4.709710     21.295366     21.295366     42.590731
     -4.699700     20.576614     20.576614     41.153227
     -4.689690     19.670145     19.670145     39.340289
     -4.679680     18.600364     18.600364     37.200728
     -4.669670     17.550487     17.550487     35.100974
     -4.659660     16.874042     16.874042     33.748083
     -4.649650     17.052344     17.052344     34.104688
     -4.639640     18.586321     18.586321     37.172642
     -4.629630     21.843449     21.843449     43.686899
     -4.619620     26.906299     26.906299     53.812597
     -4.609610     33.474703     33.474703     66.949406
     -4.599600     40.860128     40.860128     81.720256
     -4.589590     48.087905     48.087905     96.175810
     -4.579580     54.097019     54.097019    108.194037
     -4.569570     57.998306     57.998306    115.996613
     -4.559560     59.323097     59.323097    118.646193
     -4.549550     58.178083     58.178083    116.356166
     -4.539540     55.236134     55.236134    110.472269
     -4.529530     51.543562     51.543562    103.087123
     -4.519520     48.196532     48.196532     96.393065
     -4.509510     45.999269     45.999269     91.998539
     -4.499499     45.231332     45.231332     90.462665
     -4.489489     45.608887     45.608887     91.217775
     -4.479479     46.443545     46.443545     92.887091
     -4.469469     46.921535     46.921535     93.843069
     -4.459459     46.384829     46.384829     92.769658
     -4.449449     44.511650     44.511650     89.023300
     -4.439439     41.353257     41.353257     82.706513
     -4.429429     37.252534     37.252534     74.505068
     -4.419419     32.711731     32.711731     65.423462
     -4.409409     28.274361     28.274361     56.548722
     -4.399399     24.449323     24.449323     48.898647
     -4.389389     21.663655     21.663655     43.327311
     -4.379379     20.214234     20.214234     40.428468
     -4.369369     20.207663     20.207663     40.415325
     -4.359359     21.512598     21.512598     43.025196
     -4.349349     23.767619     23.767619     47.535237
     -4.339339     26.470524     26.470524     52.941047
     -4.329329     29.130740     29.130740     58.261480
     -4.319319     31.425866     31.425866     62.851732
     -4.309309     33.294234     33.294234     66.588468
     -4.299299     34.922481     34.922481     69.844962
     -4.289289     36.631839     36.631839     73.263677
     -4.279279     38.705002     38.705002     77.410005
     -4.269269     41.215033     41.215033     82.430066
     -4.259259     43.920171     43.920171     87.840341
     -4.249249     46.276095     46.276095     92.552190
     -4.239239     47.585052     47.585052     95.170104
     -4.229229     47.246959     47.246959     94.493918
     -4.219219     45.018357     45.018357     90.036713
     -4.209209     41.158429     41.158429     82.316859
     -4.199199     36.378589     36.378589     72.757178
     -4.189189     31.605321     31.605321     63.210641
     -4.179179     27.663284     27.663284     55.326568
     -4.169169     25.025737     25.025737     50.051473
     -4.159159     23.737697     23.737697     47.475393
     -4.149149     23.523212     23.523212     47.046424
     -4.139139     23.999751     23.999751     47.999502
     -4.129129     24.884377     24.884377     49.768755
     -4.119119     26.095711     26.095711     52.191421
     -4.109109     27.712516     27.712516     55.425032
     -4.099099     29.817534     29.817534     59.635068
     -4.089089     32.311452     32.311452     64.622903
     -4.079079     34.805490     34.805490     69.610980
     -4.069069     36.673517     36.673517     73.347034
     -4.059059     37.266308     37.266308     74.532617
     -4.049049     36.196188     36.196188     72.392375
     -4.039039     33.547377     33.547377     67.094754
     -4.029029     29.897001     29.897001     59.794002
     -4.019019     26.131930     26.131930     52.263861
     -4.009009     23.155325     23.155325     46.310649
     -3.998999     21.625474     21.625474     43.250948
     -3.988989     21.832816     21.832816     43.665632
     -3.978979     23.731457     23.731457     47.462914
     -3.968969     27.061671     27.061671     54.123341
     -3.958959     31.476392     31.476392     62.952785
     -3.948949     36.619330     36.619330     73.238661
     -3.938939     42.156969     42.156969     84.313938
     -3.928929     47.796496     47.796496     95.592991
     -3.918919     53.309243     53.309243    106.618487
     -3.908909     58.545313     58.545313    117.090625
     -3.898899     63.407261     63.407261    126.814522
     -3.888889     67.770404     67.770404    135.540808
     -3.878879     71.381462     71.381462    142.762923
     -3.868869     73.801067     73.801067    147.602134
     -3.858859     74.449970     74.449970    148.899940
     -3.848849     72.771489     72.771489    145.542979
     -3.838839     68.458824     68.458824    136.917648
     -3.828829     61.651164     61.651164    123.302328
     -3.818819     53.003583     53.003583    106.007166
     -3.808809     43.584702     43.584702     87.169404
     -3.798799     34.629133     34.629133     69.258267
     -3.788789     27.231715     27.231715     54.463431
     -3.778779     22.088900     22.088900     44.177799
     -3.768769     19.365792     19.365792     38.731584
     -3.758759     18.715406     18.715406     37.430811
     -3.748749     19.427180     19.427180     38.854360
     -3.738739     20.651999     20.651999     41.303998
     -3.728729     21.642195     21.642195     43.284389
     -3.718719     21.949839     21.949839     43.899678
     -3.708709     21.538142     21.538142     43.076285
     -3.698699     20.777275     20.777275     41.554551
     -3.688689     20.319083     20.319083     40.638165
     -3.678679     20.875704     20.875704     41.751408
     -3.668669     22.960527     22.960527     45.921053
     -3.658659     26.674373     26.674373     53.348746
     -3.648649     31.618939     31.618939     63.237877
     -3.638639     36.981882     36.981882     73.963763
     -3.628629     41.770761     41.770761     83.541522
     -3.618619     45.106397     45.106397     90.212794
     -3.608609     46.459484     46.459484     92.918968
     -3.598599     45.746997     45.746997     91.493993
     -3.588589     43.277615     43.277615     86.555231
     -3.578579     39.600979     39.600979     79.201958
     -3.568569     35.336190     35.336190     70.672381
     -3.558559     31.031331     31.031331     62.062662
     -3.548549     27.070644     27.070644     54.141289
     -3.538539     23.629818     23.629818     47.259636
     -3.528529     20.683138     20.683138     41.366275
     -3.518519     18.066971     18.066971     36.133942
     -3.508509     15.586546     15.586546     31.173093
     -3.498498     13.127300     13.127300     26.254600
     -3.488488     10.722891     10.722891     21.445783
     -3.478478      8.551718      8.551718     17.103435
     -3.468468      6.869597      6.869597     13.739193
     -3.458458      5.913013      5.913013     11.826025
     -3.448448      5.810951      5.810951     11.621903
     -3.438438      6.530606      6.530606     13.061211
     -3.428428      7.868910      7.868910     15.737820
     -3.418418      9.494851      9.494851     18.989702
     -3.408408     11.040079     11.040079     22.080157
     -3.398398     12.219125     12.219125     24.438251
     -3.388388     12.939819     12.939819     25.879639
     -3.378378     13.356331     13.356331     26.712661
     -3.368368     13.835552     13.835552     27.671104
     -3.358358     14.846452     14.846452     29.692903
     -3.348348     16.816872     16.816872     33.633744
     -3.338338     20.008855     20.008855     40.017711
     -3.328328     24.440246     24.440246     48.880492
     -3.318318     29.850564     29.850564     59.701129
     -3.308308     35.700802     35.700802     71.401603
     -3.298298     41.214499     41.214499     82.428998
     -3.288288     45.485751     45.485751     90.971502
     -3.278278     47.666661     47.666661     95.333322
     -3.268268     47.198016     47.198016     94.396032
     -3.258258     43.997075     43.997075     87.994149
     -3.248248     38.511124     38.511124     77.022248
     -3.238238     31.600177     31.600177     63.200353
     -3.228228     24.295048     24.295048     48.590097
     -3.218218     17.534398     17.534398     35.068796
     -3.208208     11.982335     11.982335     23.964670
     -3.198198      7.975271      7.975271     15.950542
     -3.188188      5.580540      5.580540     11.161080
     -3.178178      4.707093      4.707093      9.414185
     -3.168168      5.205346      5.205346     10.410692
     -3.158158      6.919955      6.919955     13.839909
     -3.148148      9.694440      9.694440     19.388879
     -3.138138     13.350090     13.350090     26.700181
     -3.128128     17.664094     17.664094     35.328189
     -3.118118     22.358615     22.358615     44.717230
     -3.108108     27.098866     27.098866     54.197732
     -3.098098     31.497564     31.497564     62.995127
     -3.088088     35.134713     35.134713     70.269426
     -3.078078     37.609084     37.609084     75.218168
     -3.068068     38.624442     38.624442     77.248885
     -3.058058     38.082384     38.082384     76.164767
     -3.048048     36.130084     36.130084     72.260167
     -3.038038     33.122739     33.122739     66.245478
     -3.028028     29.507956     29.507956     59.015911
     -3.018018     25.690794     25.690794     51.381588
     -3.008008     21.953102     21.953102     43.906205
     -2.997998     18.465367     18.465367     36.930734
     -2.987988     15.369314     15.369314     30.738628
     -2.977978     12.868042     12.868042     25.736084
     -2.967968     11.262568     11.262568     22.525136
     -2.957958     10.909941     10.909941     21.819883
     -2.947948     12.119211     12.119211     24.238423
     -2.937938     15.025534     15.025534     30.051067
     -2.927928     19.487353     19.487353     38.974706
     -2.917918     25.045595     25.045595     50.091190
     -2.907908     30.971375     30.971375     61.942750
     -2.897898     36.406334     36.406334     72.812667
     -2.887888     40.566118     40.566118     81.132236
     -2.877878     42.943695     42.943695     85.887390
     -2.867868     43.435409     43.435409     86.870819
     -2.857858     42.334178     42.334178     84.668357
     -2.847848     40.187478     40.187478     80.374956
     -2.837838     37.578728     37.578728     75.157456
     -2.827828     34.927293     34.927293     69.854586
     -2.817818     32.392909     32.392909     64.785817
     -2.807808     29.917402     29.917402     59.834805
     -2.797798     27.367031     27.367031     54.734061
     -2.787788     24.689696     24.689696     49.379393
     -2.777778     21.999542     21.999542     43.999084
     -2.767768     19.547527     19.547527     39.095054
     -2.757758     17.604255     17.604255     35.208511
     -2.747748     16.331620     16.331620     32.663239
     -2.737738     15.723287     15.723287     31.446573
     -2.727728     15.648219     15.648219     31.296439
     -2.717718     15.963777     15.963777     31.927554
     -2.707708     16.618186     16.618186     33.236372
     -2.697698     17.668300     17.668300     35.336601
     -2.687688     19.196502     19.196502     38.393005
     -2.677678     21.183550     21.183550     42.367100
     -2.667668     23.431607     23.431607     46.863215
     -2.657658     25.603953     25.603953     51.207907
     -2.647648     27.369959     27.369959     54.739919
     -2.637638     28.568601     28.568601     57.137202
     -2.627628     29.285696     29.285696     58.571392
     -2.617618     29.794498     29.794498     59.588996
     -2.607608     30.398172     30.398172     60.796344
     -2.597598     31.271712     31.271712     62.543424
     -2.587588     32.389282     32.389282     64.778564
     -2.577578     33.555448     33.555448     67.110896
     -2.567568     34.492153     34.492153     68.984305
     -2.557558     34.917704     34.917704     69.835408
     -2.547548     34.591844     34.591844     69.183687
     -2.537538     33.348548     33.348548     66.697097
     -2.527528     31.148621     31.148621     62.297241
     -2.517518     28.149686     28.149686     56.299371
     -2.507508     24.747846     24.747846     49.495692
     -2.497497     21.536679     21.536679     43.073359
     -2.487487     19.167868     19.167868     38.335737
     -2.477477     18.156618     18.156618     36.313236
     -2.467467     18.713539     18.713539     37.427077
     -2.457457     20.679551     20.679551     41.359103
     -2.447447     23.596217     23.596217     47.192434
     -2.437437     26.883981     26.883981     53.767962
     -2.427427     30.052189     30.052189     60.104377
     -2.417417     32.848679     32.848679     65.697357
     -2.407407     35.282127     35.282127     70.564254
     -2.397397     37.508628     37.508628     75.017255
     -2.387387     39.639861     39.639861     79.279723
     -2.377377     41.571971     41.571971     83.143941
     -2.367367     42.929601     42.929601     85.859201
     -2.357357     43.167383     43.167383     86.334766
     -2.347347     41.793744     41.793744     83.587489
     -2.337337     38.616953     38.616953     77.233906
     -2.327327     33.896422     33.896422     67.792844
     -2.317317     28.325794     28.325794     56.651587
     -2.307307     22.855476     22.855476     45.710953
     -2.297297     18.434660     18.434660     36.869320
     -2.287287     15.777074     15.777074     31.554149
     -2.277277     15.225310     15.225310     30.450621
     -2.267267     16.732983     16.732983     33.465965
     -2.257257     19.937824     19.937824     39.875649
     -2.247247     24.280043     24.280043     48.560085
     -2.237237     29.124412     29.124412     58.248824
     -2.227227     33.858267     33.858267     67.716534
     -2.217217     37.952359     37.952359     75.904717
     -2.207207     40.986502     40.986502     81.973005
     -2.197197     42.656185     42.656185     85.312370
     -2.187187     42.783498     42.783498     85.566996
     -2.177177     41.347250     41.347250     82.694500
     -2.167167     38.522388     38.522388     77.044777
     -2.157157     34.692693     34.692693     69.385386
     -2.147147     30.396711     30.396711     60.793421
     -2.137137     26.197863     26.197863     52.395727
     -2.127127     22.520962     22.520962     45.041923
     -2.117117     19.532229     19.532229     39.064458
     -2.107107     17.127385     17.127385     34.254770
     -2.097097     15.035034     15.035034     30.070067
     -2.087087     12.977979     12.977979     25.955958
     -2.077077     10.807019     10.807019     21.614037
     -2.067067      8.546714      8.546714     17.093427
     -2.057057      6.349186      6.349186     12.698372
     -2.047047      4.400423      4.400423      8.800846
     -2.037037      2.836563      2.836563      5.673125
     -2.027027      1.706473      1.706473      3.412945
     -2.017017      0.983633      0.983633      1.967266
     -2.007007      0.607286      0.607286      1.214571
     -1.996997      0.528190      0.528190      1.056381
     -1.986987      0.741963      0.741963      1.483925
     -1.976977      1.302282      1.302282      2.604564
     -1.966967      2.311382      2.311382      4.622764
     -1.956957      3.887668      3.887668      7.775336
     -1.946947      6.114774      6.114774     12.229548
     -1.936937      8.984962      8.984962     17.969924
     -1.926927     12.358382     12.358382     24.716764
     -1.916917     15.960356     15.960356     31.920712
     -1.906907     19.426350     19.426350     38.852700
     -1.896897     22.382485     22.382485     44.764969
     -1.886887     24.530967     24.530967     49.061933
     -1.876877     25.707669     25.707669     51.415339
     -1.866867     25.895903     25.895903     51.791805
     -1.856857     25.204751     25.204751     50.409502
     -1.846847     23.834422     23.834422     47.668845
     -1.836837     22.044891     22.044891     44.089782
     -1.826827     20.125107     20.125107     40.250214
     -1.816817     18.347853     18.347853     36.695706
     -1.806807     16.904894     16.904894     33.809787
     -1.796797     15.843049     15.843049     31.686098
     -1.786787     15.040626     15.040626     30.081253
     -1.776777     14.253260     14.253260     28.506520
     -1.766767     13.219979     13.219979     26.439958
     -1.756757     11.780674     11.780674     23.561348
     -1.746747      9.945812      9.945812     19.891623
     -1.736737      7.887089      7.887089     15.774179
     -1.726727      5.863756      5.863756     11.727512
     -1.716717      4.131388      4.131388      8.262776
     -1.706707      2.879200      2.879200      5.758400
     -1.696697      2.214353      2.214353      4.428706
     -1.686687      2.179363      2.179363      4.358727
     -1.676677      2.772115      2.772115      5.544231
     -1.666667      3.944332      3.944332      7.888664
     -1.656657      5.576718      5.576718     11.153435
     -1.646647      7.452908      7.452908     14.905815
     -1.636637      9.264792      9.264792     18.529583
     -1.626627     10.670492     10.670492     21.340985
