# EIG2DOS: Utility for SIESTA to obtain the electronic density of states
#  E. Artacho, Apr 1999, A. Garcia, Apr 2012
#  Nick R. Papior, Feb 2017
# ------------------------------------------
# Eigenvalues calculated from a non-polarized calculation
# Eigenvalues read from siesta.EIG
# Kpoint weights read from siesta.KP
# Using smearing parameter:   0.0500
# Using 1000 points in the energy range
# Selected bands: 1 to: 2981
# Emin, Emax in file for selected band(s):    -27.3528828    218.3964810
# Nbands, Nspin, Nk   =   2981     1     1
# E_F                 =    -4.1990 eV --> (shifted to ZERO)
# Broadening          =     0.0500 eV
#
#        E            N(up)  (=)   N(down)         Ntot
     -5.000000     33.036567     33.036567     66.073133
     -4.989990     37.906450     37.906450     75.812900
     -4.979980     42.283343     42.283343     84.566685
     -4.969970     45.405575     45.405575     90.811149
     -4.959960     46.688400     46.688400     93.376801
     -4.949950     45.920211     45.920211     91.840422
     -4.939940     43.338771     43.338771     86.677542
     -4.929930     39.573652     39.573652     79.147304
     -4.919920     35.499721     35.499721     70.999441
     -4.909910     32.064157     32.064157     64.128315
     -4.899900     30.123973     30.123973     60.247947
     -4.889890     30.295228     30.295228     60.590455
     -4.879880     32.807946     32.807946     65.615892
     -4.869870     37.391419     37.391419     74.782839
     -4.859860     43.252442     43.252442     86.504884
     -4.849850     49.208913     49.208913     98.417826
     -4.839840     53.983769     53.983769    107.967537
     -4.829830     56.576676     56.576676    113.153351
     -4.819820     56.570051     56.570051    113.140102
     -4.809810     54.237052     54.237052    108.474103
     -4.799800     50.402760     50.402760    100.805520
     -4.789790     46.120655     46.120655     92.241311
     -4.779780     42.304011     42.304011     84.608023
     -4.769770     39.458592     39.458592     78.917183
     -4.759760     37.603810     37.603810     75.207620
     -4.749750     36.381529     36.381529     72.763059
     -4.739740     35.277789     35.277789     70.555577
     -4.729730     33.850402     33.850402     67.700803
     -4.719720     31.871129     31.871129     63.742258
     -4.709710     29.344076     29.344076     58.688153
     -4.699700     26.427136     26.427136     52.854272
     -4.689690     23.328154     23.328154     46.656308
     -4.679680     20.247471     20.247471     40.494941
     -4.669670     17.394989     17.394989     34.789978
     -4.659660     15.052748     15.052748     30.105497
     -4.649650     13.620146     13.620146     27.240291
     -4.639640     13.586168     13.586168     27.172335
     -4.629630     15.411208     15.411208     30.822417
     -4.619620     19.347232     19.347232     38.694464
     -4.609610     25.261009     25.261009     50.522017
     -4.599600     32.540956     32.540956     65.081912
     -4.589590     40.155074     40.155074     80.310148
     -4.579580     46.879300     46.879300     93.758600
     -4.569570     51.641302     51.641302    103.282604
     -4.559560     53.857247     53.857247    107.714494
     -4.549550     53.620624     53.620624    107.241248
     -4.539540     51.653702     51.653702    103.307405
     -4.529530     49.033012     49.033012     98.066025
     -4.519520     46.798792     46.798792     93.597584
     -4.509510     45.604821     45.604821     91.209641
     -4.499499     45.540002     45.540002     91.080005
     -4.489489     46.173623     46.173623     92.347247
     -4.479479     46.782186     46.782186     93.564372
     -4.469469     46.648793     46.648793     93.297585
     -4.459459     45.311936     45.311936     90.623871
     -4.449449     42.680056     42.680056     85.360111
     -4.439439     38.998287     38.998287     77.996574
     -4.429429     34.718822     34.718822     69.437644
     -4.419419     30.355183     30.355183     60.710367
     -4.409409     26.382615     26.382615     52.765231
     -4.399399     23.198114     23.198114     46.396228
     -4.389389     21.108950     21.108950     42.217901
     -4.379379     20.308676     20.308676     40.617352
     -4.369369     20.828833     20.828833     41.657666
     -4.359359     22.496644     22.496644     44.993287
     -4.349349     24.947107     24.947107     49.894215
     -4.339339     27.714653     27.714653     55.429305
     -4.329329     30.380138     30.380138     60.760275
     -4.319319     32.709168     32.709168     65.418335
     -4.309309     34.714655     34.714655     69.429311
     -4.299299     36.610646     36.610646     73.221293
     -4.289289     38.673229     38.673229     77.346457
     -4.279279     41.062853     41.062853     82.125706
     -4.269269     43.678672     43.678672     87.357343
     -4.259259     46.109476     46.109476     92.218951
     -4.249249     47.718761     47.718761     95.437523
     -4.239239     47.853742     47.853742     95.707484
     -4.229229     46.109397     46.109397     92.218794
     -4.219219     42.536228     42.536228     85.072456
     -4.209209     37.687136     37.687136     75.374272
     -4.199199     32.465238     32.465238     64.930475
     -4.189189     27.830751     27.830751     55.661501
     -4.179179     24.495985     24.495985     48.991969
     -4.169169     22.740451     22.740451     45.480902
     -4.159159     22.413629     22.413629     44.827257
     -4.149149     23.101038     23.101038     46.202077
     -4.139139     24.359254     24.359254     48.718508
     -4.129129     25.905831     25.905831     51.811663
     -4.119119     27.680726     27.680726     55.361453
     -4.109109     29.758680     29.758680     59.517361
     -4.099099     32.163674     32.163674     64.327348
     -4.089089     34.690389     34.690389     69.380778
     -4.079079     36.845953     36.845953     73.691906
     -4.069069     37.972118     37.972118     75.944237
     -4.059059     37.510095     37.510095     75.020189
     -4.049049     35.280381     35.280381     70.560762
     -4.039039     31.628148     31.628148     63.256297
     -4.029029     27.351951     27.351951     54.703901
     -4.019019     23.450020     23.450020     46.900041
     -4.009009     20.810130     20.810130     41.620260
     -3.998999     19.981998     19.981998     39.963996
     -3.988989     21.107693     21.107693     42.215386
     -3.978979     23.995198     23.995198     47.990396
     -3.968969     28.260296     28.260296     56.520592
     -3.958959     33.459019     33.459019     66.918039
     -3.948949     39.172496     39.172496     78.344993
     -3.938939     45.049751     45.049751     90.099503
     -3.928929     50.829634     50.829634    101.659269
     -3.918919     56.347552     56.347552    112.695105
     -3.908909     61.511087     61.511087    123.022175
     -3.898899     66.230118     66.230118    132.460236
     -3.888889     70.317626     70.317626    140.635253
     -3.878879     73.413293     73.413293    146.826586
     -3.868869     74.990548     74.990548    149.981096
     -3.858859     74.475070     74.475070    148.950139
     -3.848849     71.445243     71.445243    142.890486
     -3.838839     65.836494     65.836494    131.672988
     -3.828829     58.059651     58.059651    116.119302
     -3.818819     48.974570     48.974570     97.949141
     -3.808809     39.717812     39.717812     79.435624
     -3.798799     31.439478     31.439478     62.878957
     -3.788789     25.035188     25.035188     50.070376
     -3.778779     20.954958     20.954958     41.909917
     -3.768769     19.138685     19.138685     38.277369
     -3.758759     19.085255     19.085255     38.170510
     -3.748749     20.025867     20.025867     40.051734
     -3.738739     21.150472     21.150472     42.300943
     -3.728729     21.829833     21.829833     43.659666
     -3.718719     21.780564     21.780564     43.561129
     -3.708709     21.133179     21.133179     42.266357
     -3.698699     20.382405     20.382405     40.764811
     -3.688689     20.224879     20.224879     40.449758
     -3.678679     21.320621     21.320621     42.641242
     -3.668669     24.045238     24.045238     48.090475
     -3.658659     28.316452     28.316452     56.632905
     -3.648649     33.566169     33.566169     67.132338
     -3.638639     38.881424     38.881424     77.762849
     -3.628629     43.268630     43.268630     86.537261
     -3.618619     45.939566     45.939566     91.879132
     -3.608609     46.509315     46.509315     93.018630
     -3.598599     45.043603     45.043603     90.087207
     -3.588589     41.966548     41.966548     83.933097
     -3.578579     37.893350     37.893350     75.786700
     -3.568569     33.459066     33.459066     66.918132
     -3.558559     29.185824     29.185824     58.371648
     -3.548549     25.400475     25.400475     50.800951
     -3.538539     22.204824     22.204824     44.409647
     -3.528529     19.503743     19.503743     39.007486
     -3.518519     17.091051     17.091051     34.182102
     -3.508509     14.770882     14.770882     29.541765
     -3.498498     12.469564     12.469564     24.939129
     -3.488488     10.292185     10.292185     20.584370
     -3.478478      8.503758      8.503758     17.007516
     -3.468468      7.448541      7.448541     14.897082
     -3.458458      7.439898      7.439898     14.879796
     -3.448448      8.651463      8.651463     17.302925
     -3.438438     11.031979     11.031979     22.063959
     -3.428428     14.265658     14.265658     28.531315
     -3.418418     17.804415     17.804415     35.608831
     -3.408408     20.989779     20.989779     41.979558
     -3.398398     23.247835     23.247835     46.495670
     -3.388388     24.293374     24.293374     48.586747
     -3.378378     24.253452     24.253452     48.506905
     -3.368368     23.643804     23.643804     47.287608
     -3.358358     23.197483     23.197483     46.394966
     -3.348348     23.613859     23.613859     47.227717
     -3.338338     25.324926     25.324926     50.649852
     -3.328328     28.354115     28.354115     56.708229
     -3.318318     32.296541     32.296541     64.593082
     -3.308308     36.413572     36.413572     72.827144
     -3.298298     39.818608     39.818608     79.637216
     -3.288288     41.717772     41.717772     83.435543
     -3.278278     41.643437     41.643437     83.286874
     -3.268268     39.595145     39.595145     79.190290
     -3.258258     36.017144     36.017144     72.034288
     -3.248248     31.610012     31.610012     63.220024
     -3.238238     27.062085     27.062085     54.124169
     -3.228228     22.832136     22.832136     45.664272
     -3.218218     19.080302     19.080302     38.160604
     -3.208208     15.752441     15.752441     31.504881
     -3.198198     12.739451     12.739451     25.478902
     -3.188188     10.011336     10.011336     20.022671
     -3.178178      7.668188      7.668188     15.336377
     -3.168168      5.914072      5.914072     11.828144
     -3.158158      4.997189      4.997189      9.994378
     -3.148148      5.154000      5.154000     10.307999
     -3.138138      6.564726      6.564726     13.129451
     -3.128128      9.305190      9.305190     18.610381
     -3.118118     13.284793     13.284793     26.569585
     -3.108108     18.187259     18.187259     36.374518
     -3.098098     23.455983     23.455983     46.911966
     -3.088088     28.364332     28.364332     56.728665
     -3.078078     32.175219     32.175219     64.350438
     -3.068068     34.340710     34.340710     68.681420
     -3.058058     34.656090     34.656090     69.312180
     -3.048048     33.293220     33.293220     66.586441
     -3.038038     30.696501     30.696501     61.393002
     -3.028028     27.398117     27.398117     54.796234
     -3.018018     23.850289     23.850289     47.700578
     -3.008008     20.353695     20.353695     40.707390
     -2.997998     17.096996     17.096996     34.193993
     -2.987988     14.256951     14.256951     28.513902
     -2.977978     12.082744     12.082744     24.165487
     -2.967968     10.910108     10.910108     21.820216
     -2.957958     11.096463     11.096463     22.192927
     -2.947948     12.906125     12.906125     25.812250
     -2.937938     16.390077     16.390077     32.780153
     -2.927928     21.302895     21.302895     42.605791
     -2.917918     27.090329     27.090329     54.180659
     -2.907908     32.966620     32.966620     65.933240
     -2.897898     38.076479     38.076479     76.152958
     -2.887888     41.703306     41.703306     83.406611
     -2.877878     43.455864     43.455864     86.911727
     -2.867868     43.359812     43.359812     86.719624
     -2.857858     41.810116     41.810116     83.620232
     -2.847848     39.397898     39.397898     78.795797
     -2.837838     36.684016     36.684016     73.368032
     -2.827828     34.019102     34.019102     68.038205
     -2.817818     31.487335     31.487335     62.974671
     -2.807808     28.987600     28.987600     57.975199
     -2.797798     26.394797     26.394797     52.789594
     -2.787788     23.705620     23.705620     47.411239
     -2.777778     21.088909     21.088909     42.177818
     -2.767768     18.820845     18.820845     37.641690
     -2.757758     17.153776     17.153776     34.307551
     -2.747748     16.203943     16.203943     32.407885
     -2.737738     15.926200     15.926200     31.852400
     -2.727728     16.184044     16.184044     32.368089
     -2.717718     16.858912     16.858912     33.717825
     -2.707708     17.916611     17.916611     35.833221
     -2.697698     19.380590     19.380590     38.761181
     -2.687688     21.232088     21.232088     42.464176
     -2.677678     23.316902     23.316902     46.633804
     -2.667668     25.342141     25.342141     50.684283
     -2.657658     26.986102     26.986102     53.972205
     -2.647648     28.060908     28.060908     56.121816
     -2.637638     28.621987     28.621987     57.243974
     -2.627628     28.947184     28.947184     57.894368
     -2.617618     29.392551     29.392551     58.785101
     -2.607608     30.210617     30.210617     60.421234
     -2.597598     31.433757     31.433757     62.867514
     -2.587588     32.872619     32.872619     65.745239
     -2.577578     34.202971     34.202971     68.405942
     -2.567568     35.072679     35.072679     70.145358
     -2.557558     35.177976     35.177976     70.355952
     -2.547548     34.307293     34.307293     68.614586
     -2.537538     32.382097     32.382097     64.764194
     -2.527528     29.510930     29.510930     59.021860
     -2.517518     26.033162     26.033162     52.066325
     -2.507508     22.504635     22.504635     45.009269
     -2.497497     19.594506     19.594506     39.189013
     -2.487487     17.910821     17.910821     35.821643
     -2.477477     17.817487     17.817487     35.634974
     -2.467467     19.318793     19.318793     38.637586
     -2.457457     22.063388     22.063388     44.126776
     -2.447447     25.471484     25.471484     50.942969
     -2.437437     28.938069     28.938069     57.876137
     -2.427427     32.030964     32.030964     64.061928
     -2.417417     34.600384     34.600384     69.200768
     -2.407407     36.750843     36.750843     73.501685
     -2.397397     38.686607     38.686607     77.373215
     -2.387387     40.503686     40.503686     81.007372
     -2.377377     42.034801     42.034801     84.069602
     -2.367367     42.837527     42.837527     85.675054
     -2.357357     42.350010     42.350010     84.700020
     -2.347347     40.151480     40.151480     80.302960
     -2.337337     36.203085     36.203085     72.406170
     -2.327327     30.948162     30.948162     61.896323
     -2.317317     25.222115     25.222115     50.444231
     -2.307307     20.018322     20.018322     40.036644
     -2.297297     16.218973     16.218973     32.437946
     -2.287287     14.396272     14.396272     28.792544
     -2.277277     14.734612     14.734612     29.469224
     -2.267267     17.061904     17.061904     34.123808
     -2.257257     20.943659     20.943659     41.887319
     -2.247247     25.793137     25.793137     51.586274
     -2.237237     30.968774     30.968774     61.937548
     -2.227227     35.848293     35.848293     71.696586
     -2.217217     39.880317     39.880317     79.760633
     -2.207207     42.620846     42.620846     85.241691
     -2.197197     43.765641     43.765641     87.531283
     -2.187187     43.187419     43.187419     86.374838
     -2.177177     40.974696     40.974696     81.949392
     -2.167167     37.450346     37.450346     74.900692
     -2.157157     33.136876     33.136876     66.273752
     -2.147147     28.648969     28.648969     57.297939
     -2.137137     24.533512     24.533512     49.067025
     -2.127127     21.120012     21.120012     42.240024
     -2.117117     18.455777     18.455777     36.911554
     -2.107107     16.363447     16.363447     32.726893
     -2.097097     14.592044     14.592044     29.184089
     -2.087087     12.979712     12.979712     25.959425
     -2.077077     11.541656     11.541656     23.083311
     -2.067067     10.442172     10.442172     20.884344
     -2.057057      9.874590      9.874590     19.749181
     -2.047047      9.919270      9.919270     19.838541
     -2.037037     10.455776     10.455776     20.911552
     -2.027027     11.173594     11.173594     22.347187
     -2.017017     11.675781     11.675781     23.351562
     -2.007007     11.626122     11.626122     23.252244
     -1.996997     10.872383     10.872383     21.744766
     -1.986987      9.493936      9.493936     18.987873
     -1.976977      7.762206      7.762206     15.524411
     -1.966967      6.044146      6.044146     12.088291
     -1.956957      4.698598      4.698598      9.397196
     -1.946947      4.004404      4.004404      8.008809
     -1.936937      4.129858      4.129858      8.259717
     -1.926927      5.128107      5.128107     10.256214
     -1.916917      6.938244      6.938244     13.876488
     -1.906907      9.385307      9.385307     18.770614
     -1.896897     12.189031     12.189031     24.378062
     -1.886887     14.995898     14.995898     29.991795
     -1.876877     17.438593     17.438593     34.877187
     -1.866867     19.210880     19.210880     38.421760
     -1.856857     20.136012     20.136012     40.272024
     -1.846847     20.207407     20.207407     40.414814
     -1.836837     19.587013     19.587013     39.174025
     -1.826827     18.555599     18.555599     37.111197
     -1.816817     17.421685     17.421685     34.843370
     -1.806807     16.414197     16.414197     32.828393
     -1.796797     15.600864     15.600864     31.201727
     -1.786787     14.873885     14.873885     29.747769
     -1.776777     14.016744     14.016744     28.033488
     -1.766767     12.822729     12.822729     25.645457
     -1.756757     11.205106     11.205106     22.410211
     -1.746747      9.244158      9.244158     18.488317
     -1.736737      7.154887      7.154887     14.309775
     -1.726727      5.204068      5.204068     10.408136
     -1.716717      3.626964      3.626964      7.253928
     -1.706707      2.582049      2.582049      5.164098
     -1.696697      2.150086      2.150086      4.300171
     -1.686687      2.355486      2.355486      4.710972
     -1.676677      3.179588      3.179588      6.359175
     -1.666667      4.549046      4.549046      9.098093
     -1.656657      6.307346      6.307346     12.614691
     -1.646647      8.197724      8.197724     16.395448
     -1.636637      9.888296      9.888296     19.776592
     -1.626627     11.050644     11.050644     22.101289
