# EIG2DOS: Utility for SIESTA to obtain the electronic density of states
#  E. Artacho, Apr 1999, A. Garcia, Apr 2012
#  Nick R. Papior, Feb 2017
# ------------------------------------------
# Eigenvalues calculated from a non-polarized calculation
# Eigenvalues read from siesta.EIG
# Kpoint weights read from siesta.KP
# Using smearing parameter:   0.0500
# Using 1000 points in the energy range
# Selected bands: 1 to: 2981
# Emin, Emax in file for selected band(s):    -27.1975814    218.3501640
# Nbands, Nspin, Nk   =   2981     1     1
# E_F                 =    -4.2537 eV --> (shifted to ZERO)
# Broadening          =     0.0500 eV
#
#        E            N(up)  (=)   N(down)         Ntot
     -5.000000     33.249330     33.249330     66.498659
     -4.989990     37.177606     37.177606     74.355212
     -4.979980     40.789001     40.789001     81.578001
     -4.969970     43.460868     43.460868     86.921735
     -4.959960     44.695934     44.695934     89.391869
     -4.949950     44.265507     44.265507     88.531015
     -4.939940     42.281774     42.281774     84.563548
     -4.929930     39.181698     39.181698     78.363395
     -4.919920     35.644032     35.644032     71.288063
     -4.909910     32.476183     32.476183     64.952365
     -4.899900     30.491932     30.491932     60.983864
     -4.889890     30.374259     30.374259     60.748519
     -4.879880     32.512334     32.512334     65.024667
     -4.869870     36.834181     36.834181     73.668362
     -4.859860     42.705848     42.705848     85.411695
     -4.849850     48.986893     48.986893     97.973786
     -4.839840     54.285366     54.285366    108.570733
     -4.829830     57.355005     57.355005    114.710011
     -4.819820     57.483483     57.483483    114.966965
     -4.809810     54.701116     54.701116    109.402231
     -4.799800     49.718052     49.718052     99.436103
     -4.789790     43.630931     43.630931     87.261863
     -4.779780     37.545553     37.545553     75.091106
     -4.769770     32.278808     32.278808     64.557616
     -4.759760     28.232957     28.232957     56.465915
     -4.749750     25.434935     25.434935     50.869870
     -4.739740     23.666331     23.666331     47.332662
     -4.729730     22.601778     22.601778     45.203556
     -4.719720     21.906802     21.906802     43.813603
     -4.709710     21.286944     21.286944     42.573888
     -4.699700     20.506376     20.506376     41.012753
     -4.689690     19.402015     19.402015     38.804030
     -4.679680     17.911845     17.911845     35.823691
     -4.669670     16.118722     16.118722     32.237444
     -4.659660     14.291413     14.291413     28.582825
     -4.649650     12.893977     12.893977     25.787953
     -4.639640     12.538950     12.538950     25.077899
     -4.629630     13.875713     13.875713     27.751427
     -4.619620     17.424817     17.424817     34.849634
     -4.609610     23.388556     23.388556     46.777112
     -4.599600     31.488955     31.488955     62.977911
     -4.589590     40.901183     40.901183     81.802366
     -4.579580     50.346154     50.346154    100.692307
     -4.569570     58.363051     58.363051    116.726102
     -4.559560     63.704940     63.704940    127.409880
     -4.549550     65.723898     65.723898    131.447797
     -4.539540     64.585663     64.585663    129.171326
     -4.529530     61.206692     61.206692    122.413385
     -4.519520     56.922450     56.922450    113.844900
     -4.509510     53.017333     53.017333    106.034665
     -4.499499     50.308819     50.308819    100.617638
     -4.489489     48.947376     48.947376     97.894753
     -4.479479     48.487779     48.487779     96.975559
     -4.469469     48.165137     48.165137     96.330274
     -4.459459     47.232804     47.232804     94.465608
     -4.449449     45.220660     45.220660     90.441320
     -4.439439     42.037418     42.037418     84.074836
     -4.429429     37.925611     37.925611     75.851222
     -4.419419     33.336488     33.336488     66.672976
     -4.409409     28.800396     28.800396     57.600792
     -4.399399     24.834089     24.834089     49.668179
     -4.389389     21.881043     21.881043     43.762085
     -4.379379     20.257882     20.257882     40.515764
     -4.369369     20.093061     20.093061     40.186121
     -4.359359     21.277021     21.277021     42.554042
     -4.349349     23.464342     23.464342     46.928684
     -4.339339     26.155490     26.155490     52.310981
     -4.329329     28.844408     28.844408     57.688817
     -4.319319     31.177056     31.177056     62.354112
     -4.309309     33.053683     33.053683     66.107366
     -4.299299     34.631094     34.631094     69.262187
     -4.289289     36.223594     36.223594     72.447187
     -4.279279     38.138898     38.138898     76.277796
     -4.269269     40.505512     40.505512     81.011024
     -4.259259     43.152763     43.152763     86.305526
     -4.249249     45.597006     45.597006     91.194013
     -4.239239     47.162186     47.162186     94.324371
     -4.229229     47.213631     47.213631     94.427263
     -4.219219     45.422706     45.422706     90.845411
     -4.209209     41.942493     41.942493     83.884987
     -4.199199     37.398016     37.398016     74.796033
     -4.189189     32.680196     32.680196     65.360392
     -4.179179     28.635281     28.635281     57.270562
     -4.169169     25.796111     25.796111     51.592221
     -4.159159     24.273767     24.273767     48.547533
     -4.149149     23.838486     23.838486     47.676973
     -4.139139     24.124258     24.124258     48.248515
     -4.129129     24.842454     24.842454     49.684908
     -4.119119     25.900864     25.900864     51.801727
     -4.109109     27.378534     27.378534     54.757069
     -4.099099     29.376722     29.376722     58.753443
     -4.089089     31.827356     31.827356     63.654712
     -4.079079     34.369942     34.369942     68.739885
     -4.069069     36.385556     36.385556     72.771112
     -4.059059     37.200513     37.200513     74.401025
     -4.049049     36.374863     36.374863     72.749725
     -4.039039     33.930300     33.930300     67.860600
     -4.029029     30.393790     30.393790     60.787580
     -4.019019     26.630642     26.630642     53.261283
     -4.009009     23.553769     23.553769     47.107537
     -3.998999     21.852881     21.852881     43.705761
     -3.988989     21.856973     21.856973     43.713947
     -3.978979     23.554443     23.554443     47.108887
     -3.968969     26.710690     26.710690     53.421379
     -3.958959     30.994208     30.994208     61.988416
     -3.948949     36.054753     36.054753     72.109506
     -3.938939     41.554117     41.554117     83.108234
     -3.928929     47.183922     47.183922     94.367844
     -3.918919     52.694086     52.694086    105.388172
     -3.908909     57.918761     57.918761    115.837522
     -3.898899     62.762926     62.762926    125.525851
     -3.888889     67.128429     67.128429    134.256858
     -3.878879     70.804518     70.804518    141.609036
     -3.868869     73.389593     73.389593    146.779186
     -3.858859     74.314060     74.314060    148.628119
     -3.848849     72.990061     72.990061    145.980123
     -3.838839     69.044698     69.044698    138.089397
     -3.828829     62.538350     62.538350    125.076700
     -3.818819     54.062137     54.062137    108.124273
     -3.808809     44.655892     44.655892     89.311784
     -3.798799     35.566340     35.566340     71.132681
     -3.788789     27.933016     27.933016     55.866031
     -3.778779     22.513363     22.513363     45.026726
     -3.768769     19.532610     19.532610     39.065220
     -3.758759     18.689714     18.689714     37.379428
     -3.748749     19.298091     19.298091     38.596181
     -3.738739     20.508101     20.508101     41.016201
     -3.728729     21.549124     21.549124     43.098248
     -3.718719     21.934135     21.934135     43.868270
     -3.708709     21.581159     21.581159     43.162319
     -3.698699     20.821669     20.821669     41.643337
     -3.688689     20.287745     20.287745     40.575490
     -3.678679     20.699122     20.699122     41.398244
     -3.668669     22.604510     22.604510     45.209020
     -3.658659     26.158048     26.158048     52.316096
     -3.648649     31.014880     31.014880     62.029760
     -3.638639     36.396826     36.396826     72.793652
     -3.628629     41.313962     41.313962     82.627925
     -3.618619     44.858657     44.858657     89.717315
     -3.608609     46.455113     46.455113     92.910226
     -3.598599     45.973590     45.973590     91.947179
     -3.588589     43.689398     43.689398     87.378796
     -3.578579     40.136475     40.136475     80.272950
     -3.568569     35.932513     35.932513     71.865025
     -3.558559     31.632708     31.632708     63.265416
     -3.548549     27.632984     27.632984     55.265968
     -3.538539     24.123531     24.123531     48.247063
     -3.528529     21.094415     21.094415     42.188830
     -3.518519     18.396295     18.396295     36.792590
     -3.508509     15.844006     15.844006     31.688013
     -3.498498     13.326268     13.326268     26.652536
     -3.488488     10.874710     10.874710     21.749420
     -3.478478      8.663327      8.663327     17.326655
     -3.468468      6.944212      6.944212     13.888424
     -3.458458      5.952530      5.952530     11.905059
     -3.448448      5.818433      5.818433     11.636866
     -3.438438      6.511682      6.511682     13.023364
     -3.428428      7.831545      7.831545     15.663090
     -3.418418      9.447374      9.447374     18.894748
     -3.408408     10.987776     10.987776     21.975553
     -3.398398     12.160156     12.160156     24.320313
     -3.388388     12.861466     12.861466     25.722932
     -3.378378     13.232132     13.232132     26.464263
     -3.368368     13.622569     13.622569     27.245139
     -3.358358     14.480567     14.480567     28.961134
     -3.348348     16.203937     16.203937     32.407874
     -3.338338     19.011825     19.011825     38.023649
     -3.328328     22.866967     22.866967     45.733935
     -3.318318     27.452068     27.452068     54.904136
     -3.308308     32.192873     32.192873     64.385745
     -3.298298     36.332930     36.332930     72.665861
     -3.288288     39.075871     39.075871     78.151742
     -3.278278     39.791218     39.791218     79.582435
     -3.268268     38.229728     38.229728     76.459457
     -3.258258     34.652730     34.652730     69.305461
     -3.248248     29.792100     29.792100     59.584200
     -3.238238     24.631164     24.631164     49.262327
     -3.228228     20.089213     20.089213     40.178426
     -3.218218     16.743537     16.743537     33.487074
     -3.208208     14.702324     14.702324     29.404649
     -3.198198     13.667024     13.667024     27.334049
     -3.188188     13.139401     13.139401     26.278802
     -3.178178     12.676804     12.676804     25.353608
     -3.168168     12.094540     12.094540     24.189080
     -3.158158     11.548112     11.548112     23.096224
     -3.148148     11.478781     11.478781     22.957562
     -3.138138     12.450956     12.450956     24.901911
     -3.128128     14.936366     14.936366     29.872731
     -3.118118     19.108439     19.108439     38.216877
     -3.108108     24.708170     24.708170     49.416340
     -3.098098     31.032213     31.032213     62.064426
     -3.088088     37.067678     37.067678     74.135355
     -3.078078     41.750535     41.750535     83.501069
     -3.068068     44.267728     44.267728     88.535456
     -3.058058     44.288359     44.288359     88.576717
     -3.048048     42.026972     42.026972     84.053944
     -3.038038     38.114239     38.114239     76.228477
     -3.028028     33.341694     33.341694     66.683388
     -3.018018     28.404749     28.404749     56.809498
     -3.008008     23.757059     23.757059     47.514118
     -2.997998     19.618371     19.618371     39.236742
     -2.987988     16.093165     16.093165     32.186330
     -2.977978     13.309213     13.309213     26.618427
     -2.967968     11.494168     11.494168     22.988336
     -2.957958     10.956322     10.956322     21.912643
     -2.947948     11.986553     11.986553     23.973105
     -2.937938     14.727140     14.727140     29.454281
     -2.927928     19.058083     19.058083     38.116166
     -2.917918     24.543876     24.543876     49.087752
     -2.907908     30.470046     30.470046     60.940091
     -2.897898     35.976119     35.976119     71.952239
     -2.887888     40.257842     40.257842     80.515684
     -2.877878     42.776156     42.776156     85.552312
     -2.867868     43.394029     43.394029     86.788057
     -2.857858     42.381288     42.381288     84.762575
     -2.847848     40.280175     40.280175     80.560350
     -2.837838     37.686828     37.686828     75.373657
     -2.827828     35.043670     35.043670     70.087339
     -2.817818     32.531741     32.531741     65.063482
     -2.807808     30.101438     30.101438     60.202876
     -2.797798     27.610330     27.610330     55.220661
     -2.787788     24.984769     24.984769     49.969538
     -2.777778     22.315493     22.315493     44.630986
     -2.767768     19.839761     19.839761     39.679522
     -2.757758     17.829616     17.829616     35.659231
     -2.747748     16.459709     16.459709     32.919418
     -2.737738     15.737392     15.737392     31.474783
     -2.727728     15.536594     15.536594     31.073187
     -2.717718     15.709601     15.709601     31.419203
     -2.707708     16.199075     16.199075     32.398150
     -2.697698     17.070932     17.070932     34.141863
     -2.687688     18.440989     18.440989     36.881978
     -2.677678     20.342290     20.342290     40.684580
     -2.667668     22.626146     22.626146     45.252292
     -2.657658     24.973846     24.973846     49.947692
     -2.647648     27.024602     27.024602     54.049204
     -2.637638     28.545480     28.545480     57.090959
     -2.627628     29.537030     29.537030     59.074060
     -2.617618     30.208777     30.208777     60.417554
     -2.607608     30.843874     30.843874     61.687748
     -2.597598     31.640680     31.640680     63.281361
     -2.587588     32.622318     32.622318     65.244635
     -2.577578     33.646605     33.646605     67.293210
     -2.567568     34.479279     34.479279     68.958558
     -2.557558     34.867965     34.867965     69.735931
     -2.547548     34.585134     34.585134     69.170267
     -2.537538     33.457303     33.457303     66.914607
     -2.527528     31.414804     31.414804     62.829608
     -2.517518     28.565961     28.565961     57.131922
     -2.507508     25.252941     25.252941     50.505881
     -2.497497     22.030379     22.030379     44.060757
     -2.487487     19.541421     19.541421     39.082842
     -2.477477     18.326327     18.326327     36.652654
     -2.467467     18.644032     18.644032     37.288065
     -2.457457     20.388744     20.388744     40.777487
     -2.447447     23.142452     23.142452     46.284904
     -2.437437     26.342940     26.342940     52.685880
     -2.427427     29.494145     29.494145     58.988290
     -2.417417     32.325007     32.325007     64.650014
     -2.407407     34.824721     34.824721     69.649442
     -2.397397     37.139480     37.139480     74.278961
     -2.387387     39.383371     39.383371     78.766741
     -2.377377     41.461662     41.461662     82.923324
     -2.367367     43.004149     43.004149     86.008298
     -2.357357     43.456537     43.456537     86.913075
     -2.347347     42.300441     42.300441     84.600882
     -2.337337     39.304786     39.304786     78.609573
     -2.327327     34.689929     34.689929     69.379858
     -2.317317     29.125130     29.125130     58.250260
     -2.307307     23.560032     23.560032     47.120064
     -2.297297     18.966024     18.966024     37.932048
     -2.287287     16.092787     16.092787     32.185573
     -2.277277     15.320002     15.320002     30.640003
     -2.267267     16.629405     16.629405     33.258810
     -2.257257     19.673938     19.673938     39.347876
     -2.247247     23.898545     23.898545     47.797091
     -2.237237     28.668502     28.668502     57.337005
     -2.227227     33.373416     33.373416     66.746832
     -2.217217     37.490134     37.490134     74.980267
     -2.207207     40.604866     40.604866     81.209732
     -2.197197     42.412355     42.412355     84.824710
     -2.187187     42.719959     42.719959     85.439917
     -2.177177     41.476511     41.476511     82.953023
     -2.167167     38.818577     38.818577     77.637155
     -2.157157     35.096119     35.096119     70.192239
     -2.147147     30.831697     30.831697     61.663394
     -2.137137     26.597272     26.597272     53.194544
     -2.127127     22.846827     22.846827     45.693655
     -2.117117     19.783309     19.783309     39.566618
     -2.107107     17.330910     17.330910     34.661819
     -2.097097     15.227888     15.227888     30.455775
     -2.087087     13.187364     13.187364     26.374728
     -2.077077     11.039622     11.039622     22.079244
     -2.067067      8.789660      8.789660     17.579320
     -2.057057      6.579453      6.579453     13.158907
     -2.047047      4.595838      4.595838      9.191675
     -2.037037      2.982150      2.982150      5.964301
     -2.027027      1.793109      1.793109      3.586219
     -2.017017      0.998837      0.998837      1.997673
     -2.007007      0.519124      0.519124      1.038249
     -1.996997      0.263359      0.263359      0.526717
     -1.986987      0.160374      0.160374      0.320748
     -1.976977      0.174785      0.174785      0.349570
     -1.966967      0.313693      0.313693      0.627386
     -1.956957      0.627882      0.627882      1.255763
     -1.946947      1.207304      1.207304      2.414609
     -1.936937      2.166353      2.166353      4.332706
     -1.926927      3.614306      3.614306      7.228611
     -1.916917      5.612537      5.612537     11.225073
     -1.906907      8.130380      8.130380     16.260760
     -1.896897     11.019696     11.019696     22.039393
     -1.886887     14.026841     14.026841     28.053681
     -1.876877     16.847590     16.847590     33.695181
     -1.866867     19.211290     19.211290     38.422580
     -1.856857     20.965146     20.965146     41.930292
     -1.846847     22.125440     22.125440     44.250879
     -1.836837     22.870132     22.870132     45.740265
     -1.826827     23.464563     23.464563     46.929126
     -1.816817     24.137031     24.137031     48.274062
     -1.806807     24.949357     24.949357     49.898714
     -1.796797     25.725104     25.725104     51.450208
     -1.786787     26.085751     26.085751     52.171502
     -1.776777     25.596586     25.596586     51.193172
     -1.766767     23.961467     23.961467     47.922933
     -1.756757     21.170447     21.170447     42.340894
     -1.746747     17.525456     17.525456     35.050912
     -1.736737     13.536363     13.536363     27.072725
     -1.726727      9.748574      9.748574     19.497147
     -1.716717      6.590054      6.590054     13.180108
     -1.706707      4.299303      4.299303      8.598606
     -1.696697      2.941253      2.941253      5.882506
     -1.686687      2.472408      2.472408      4.944817
     -1.676677      2.802617      2.802617      5.605233
     -1.666667      3.818173      3.818173      7.636347
     -1.656657      5.363684      5.363684     10.727369
     -1.646647      7.209626      7.209626     14.419251
     -1.636637      9.044657      9.044657     18.089314
     -1.626627     10.520360     10.520360     21.040721
