# EIG2DOS: Utility for SIESTA to obtain the electronic density of states
#  E. Artacho, Apr 1999, A. Garcia, Apr 2012
#  Nick R. Papior, Feb 2017
# ------------------------------------------
# Eigenvalues calculated from a non-polarized calculation
# Eigenvalues read from siesta.EIG
# Kpoint weights read from siesta.KP
# Using smearing parameter:   0.0500
# Using 1000 points in the energy range
# Selected bands: 1 to: 2981
# Emin, Emax in file for selected band(s):    -27.0599153    218.3310990
# Nbands, Nspin, Nk   =   2981     1     1
# E_F                 =    -4.2761 eV --> (shifted to ZERO)
# Broadening          =     0.0500 eV
#
#        E            N(up)  (=)   N(down)         Ntot
     -5.000000     37.463660     37.463660     74.927319
     -4.989990     39.829691     39.829691     79.659383
     -4.979980     42.005148     42.005148     84.010297
     -4.969970     43.507419     43.507419     87.014838
     -4.959960     43.924572     43.924572     87.849144
     -4.949950     43.054848     43.054848     86.109695
     -4.939940     40.975981     40.975981     81.951963
     -4.929930     38.039056     38.039056     76.078111
     -4.919920     34.811215     34.811215     69.622430
     -4.909910     31.995139     31.995139     63.990278
     -4.899900     30.332857     30.332857     60.665713
     -4.889890     30.478477     30.478477     60.956953
     -4.879880     32.826929     32.826929     65.653857
     -4.869870     37.325564     37.325564     74.651128
     -4.859860     43.349922     43.349922     86.699844
     -4.849850     49.745535     49.745535     99.491069
     -4.839840     55.086892     55.086892    110.173783
     -4.829830     58.094539     58.094539    116.189078
     -4.819820     58.046932     58.046932    116.093864
     -4.809810     55.000941     55.000941    110.001881
     -4.799800     49.721034     49.721034     99.442069
     -4.789790     43.363604     43.363604     86.727208
     -4.779780     37.077290     37.077290     74.154581
     -4.769770     31.694872     31.694872     63.389745
     -4.759760     27.611907     27.611907     55.223814
     -4.749750     24.837673     24.837673     49.675346
     -4.739740     23.135143     23.135143     46.270286
     -4.729730     22.163591     22.163591     44.327182
     -4.719720     21.576323     21.576323     43.152646
     -4.709710     21.068584     21.068584     42.137169
     -4.699700     20.395300     20.395300     40.790600
     -4.689690     19.383975     19.383975     38.767950
     -4.679680     17.960720     17.960720     35.921440
     -4.669670     16.191366     16.191366     32.382732
     -4.659660     14.321068     14.321068     28.642135
     -4.649650     12.784398     12.784398     25.568796
     -4.639640     12.160735     12.160735     24.321471
     -4.629630     13.064857     13.064857     26.129715
     -4.619620     15.982961     15.982961     31.965922
     -4.609610     21.086186     21.086186     42.172372
     -4.599600     28.076733     28.076733     56.153466
     -4.589590     36.138169     36.138169     72.276339
     -4.579580     44.052067     44.052067     88.104133
     -4.569570     50.490990     50.490990    100.981979
     -4.559560     54.413534     54.413534    108.827068
     -4.549550     55.414789     55.414789    110.829579
     -4.539540     53.877438     53.877438    107.754876
     -4.529530     50.843781     50.843781    101.687562
     -4.519520     47.652834     47.652834     95.305668
     -4.509510     45.491295     45.491295     90.982589
     -4.499499     45.035976     45.035976     90.071952
     -4.489489     46.308454     46.308454     92.616907
     -4.479479     48.758896     48.758896     97.517792
     -4.469469     51.504193     51.504193    103.008386
     -4.459459     53.607949     53.607949    107.215898
     -4.449449     54.311035     54.311035    108.622069
     -4.439439     53.172760     53.172760    106.345520
     -4.429429     50.127032     50.127032    100.254063
     -4.419419     45.474250     45.474250     90.948500
     -4.409409     39.822347     39.822347     79.644694
     -4.399399     33.978642     33.978642     67.957285
     -4.389389     28.795391     28.795391     57.590782
     -4.379379     24.989358     24.989358     49.978717
     -4.369369     22.978553     22.978553     45.957106
     -4.359359     22.789963     22.789963     45.579926
     -4.349349     24.078138     24.078138     48.156276
     -4.339339     26.256547     26.256547     52.513095
     -4.329329     28.697976     28.697976     57.395952
     -4.319319     30.930451     30.930451     61.860902
     -4.309309     32.758083     32.758083     65.516165
     -4.299299     34.269805     34.269805     68.539609
     -4.289289     35.743722     35.743722     71.487445
     -4.279279     37.488032     37.488032     74.976065
     -4.269269     39.672179     39.672179     79.344358
     -4.259259     42.200817     42.200817     84.401633
     -4.249249     44.676869     44.676869     89.353738
     -4.239239     46.484744     46.484744     92.969488
     -4.229229     46.988476     46.988476     93.976951
     -4.219219     45.783435     45.783435     91.566870
     -4.209209     42.893297     42.893297     85.786595
     -4.199199     38.807498     38.807498     77.614995
     -4.189189     34.324235     34.324235     68.648470
     -4.179179     30.266265     30.266265     60.532529
     -4.169169     27.206377     27.206377     54.412755
     -4.159159     25.330255     25.330255     50.660510
     -4.149149     24.484441     24.484441     48.968882
     -4.139139     24.359759     24.359759     48.719519
     -4.129129     24.701115     24.701115     49.402230
     -4.119119     25.435753     25.435753     50.871506
     -4.109109     26.661105     26.661105     53.322209
     -4.099099     28.503351     28.503351     57.006702
     -4.089089     30.922936     30.922936     61.845872
     -4.079079     33.578880     33.578880     67.157760
     -4.069069     35.847520     35.847520     71.695039
     -4.059059     37.017838     37.017838     74.035675
     -4.049049     36.584960     36.584960     73.169920
     -4.039039     34.495153     34.495153     68.990305
     -4.029029     31.210180     31.210180     62.420361
     -4.019019     27.554921     27.554921     55.109842
     -4.009009     24.430408     24.430408     48.860816
     -3.998999     22.538803     22.538803     45.077606
     -3.988989     22.239816     22.239816     44.479631
     -3.978979     23.566431     23.566431     47.132862
     -3.968969     26.338260     26.338260     52.676520
     -3.958959     30.279815     30.279815     60.559629
     -3.948949     35.086419     35.086419     70.172837
     -3.938939     40.442638     40.442638     80.885277
     -3.928929     46.034728     46.034728     92.069457
     -3.918919     51.585515     51.585515    103.171030
     -3.908909     56.896895     56.896895    113.793789
     -3.898899     61.854981     61.854981    123.709961
     -3.888889     66.366097     66.366097    132.732193
     -3.878879     70.241803     70.241803    140.483607
     -3.868869     73.101542     73.101542    146.203084
     -3.858859     74.373327     74.373327    148.746653
     -3.848849     73.431832     73.431832    146.863664
     -3.838839     69.838577     69.838577    139.677155
     -3.828829     63.583034     63.583034    127.166068
     -3.818819     55.206750     55.206750    110.413500
     -3.808809     45.738484     45.738484     91.476968
     -3.798799     36.453264     36.453264     72.906528
     -3.788789     28.545418     28.545418     57.090836
     -3.778779     22.835337     22.835337     45.670675
     -3.768769     19.603501     19.603501     39.207003
     -3.758759     18.586790     18.586790     37.173579
     -3.748749     19.115367     19.115367     38.230734
     -3.738739     20.335195     20.335195     40.670391
     -3.728729     21.452831     21.452831     42.905662
     -3.718719     21.945367     21.945367     43.890734
     -3.708709     21.689942     21.689942     43.379885
     -3.698699     20.981916     20.981916     41.963832
     -3.688689     20.431373     20.431373     40.862745
     -3.678679     20.756324     20.756324     41.512648
     -3.668669     22.524771     22.524771     45.049542
     -3.658659     25.925728     25.925728     51.851457
     -3.648649     30.654579     30.654579     61.309157
     -3.638639     35.967023     35.967023     71.934046
     -3.628629     40.891528     40.891528     81.783056
     -3.618619     44.519819     44.519819     89.039638
     -3.608609     46.258891     46.258891     92.517781
     -3.598599     45.951586     45.951586     91.903172
     -3.588589     43.842779     43.842779     87.685558
     -3.578579     40.439005     40.439005     80.878011
     -3.568569     36.338139     36.338139     72.676279
     -3.558559     32.086377     32.086377     64.172754
     -3.548549     28.082807     28.082807     56.165614
     -3.538539     24.531257     24.531257     49.062515
     -3.528529     21.440830     21.440830     42.881660
     -3.518519     18.679836     18.679836     37.359673
     -3.508509     16.073947     16.073947     32.147893
     -3.498498     13.514262     13.514262     27.028523
     -3.488488     11.028688     11.028688     22.057377
     -3.478478      8.785704      8.785704     17.571408
     -3.468468      7.033760      7.033760     14.067521
     -3.458458      6.007766      6.007766     12.015533
     -3.448448      5.840413      5.840413     11.680827
     -3.438438      6.505096      6.505096     13.010192
     -3.428428      7.803939      7.803939     15.607878
     -3.418418      9.406820      9.406820     18.813640
     -3.408408     10.939623     10.939623     21.879247
     -3.398398     12.103881     12.103881     24.207762
     -3.388388     12.788984     12.788984     25.577968
     -3.378378     13.128709     13.128709     26.257418
     -3.368368     13.470487     13.470487     26.940974
     -3.358358     14.264397     14.264397     28.528794
     -3.348348     15.915623     15.915623     31.831247
     -3.338338     18.654289     18.654289     37.308578
     -3.328328     22.456109     22.456109     44.912217
     -3.318318     27.017259     27.017259     54.034518
     -3.308308     31.774466     31.774466     63.548932
     -3.298298     35.972825     35.972825     71.945650
     -3.288288     38.796644     38.796644     77.593287
     -3.278278     39.562959     39.562959     79.125919
     -3.268268     37.931059     37.931059     75.862118
     -3.258258     34.040109     34.040109     68.080218
     -3.248248     28.495552     28.495552     56.991105
     -3.238238     22.192284     22.192284     44.384568
     -3.228228     16.047602     16.047602     32.095204
     -3.218218     10.760643     10.760643     21.521287
     -3.208208      6.690061      6.690061     13.380122
     -3.198198      3.871642      3.871642      7.743284
     -3.188188      2.132305      2.132305      4.264611
     -3.178178      1.231682      1.231682      2.463365
     -3.168168      0.977589      0.977589      1.955177
     -3.158158      1.292925      1.292925      2.585850
     -3.148148      2.234704      2.234704      4.469409
     -3.138138      3.972357      3.972357      7.944714
     -3.128128      6.729199      6.729199     13.458397
     -3.118118     10.690491     10.690491     21.380981
     -3.108108     15.891477     15.891477     31.782953
     -3.098098     22.116371     22.116371     44.232742
     -3.088088     28.852478     28.852478     57.704956
     -3.078078     35.338156     35.338156     70.676312
     -3.068068     40.712996     40.712996     81.425991
     -3.058058     44.232571     44.232571     88.465142
     -3.048048     45.472138     45.472138     90.944277
     -3.038038     44.438881     44.438881     88.877761
     -3.028028     41.549465     41.549465     83.098930
     -3.018018     37.490573     37.490573     74.981146
     -3.008008     33.028929     33.028929     66.057859
     -2.997998     28.846196     28.846196     57.692393
     -2.987988     25.444044     25.444044     50.888088
     -2.977978     23.122706     23.122706     46.245411
     -2.967968     22.010062     22.010062     44.020125
     -2.957958     22.113523     22.113523     44.227046
     -2.947948     23.370612     23.370612     46.741224
     -2.937938     25.676035     25.676035     51.352070
     -2.927928     28.869157     28.869157     57.738314
     -2.917918     32.687303     32.687303     65.374606
     -2.907908     36.721670     36.721670     73.443341
     -2.897898     40.428897     40.428897     80.857794
     -2.887888     43.229733     43.229733     86.459466
     -2.877878     44.672348     44.672348     89.344696
     -2.867868     44.586396     44.586396     89.172792
     -2.857858     43.143531     43.143531     86.287063
     -2.847848     40.782568     40.782568     81.565137
     -2.837838     38.028745     38.028745     76.057491
     -2.827828     35.293838     35.293838     70.587676
     -2.817818     32.753443     32.753443     65.506886
     -2.807808     30.354877     30.354877     60.709753
     -2.797798     27.938742     27.938742     55.877484
     -2.787788     25.398483     25.398483     50.796965
     -2.777778     22.786846     22.786846     45.573692
     -2.767768     20.313441     20.313441     40.626882
     -2.757758     18.242877     18.242877     36.485754
     -2.747748     16.760909     16.760909     33.521818
     -2.737738     15.892932     15.892932     31.785864
     -2.727728     15.524602     15.524602     31.049204
     -2.717718     15.508405     15.508405     31.016811
     -2.707708     15.783207     15.783207     31.566414
     -2.697698     16.423286     16.423286     32.846571
     -2.687688     17.578219     17.578219     35.156437
     -2.677678     19.338451     19.338451     38.676902
     -2.667668     21.615498     21.615498     43.230995
     -2.657658     24.122454     24.122454     48.244907
     -2.647648     26.478385     26.478385     52.956769
     -2.637638     28.378475     28.378475     56.756950
     -2.627628     29.726265     29.726265     59.452530
     -2.617618     30.648105     30.648105     61.296209
     -2.607608     31.387592     31.387592     62.775185
     -2.597598     32.153478     32.153478     64.306956
     -2.587588     33.013988     33.013988     66.027976
     -2.577578     33.883975     33.883975     67.767950
     -2.567568     34.581286     34.581286     69.162572
     -2.557558     34.893245     34.893245     69.786489
     -2.547548     34.615969     34.615969     69.231938
     -2.537538     33.578355     33.578355     67.156710
     -2.527528     31.686672     31.686672     63.373345
     -2.517518     29.000671     29.000671     58.001343
     -2.507508     25.802967     25.802967     51.605933
     -2.497497     22.599020     22.599020     45.198040
     -2.487487     20.012022     20.012022     40.024045
     -2.477477     18.598220     18.598220     37.196439
     -2.467467     18.660467     18.660467     37.320935
     -2.457457     20.147109     20.147109     40.294219
     -2.447447     22.685769     22.685769     45.371538
     -2.437437     25.739224     25.739224     51.478448
     -2.427427     28.813961     28.813961     57.627922
     -2.417417     31.626767     31.626767     63.253535
     -2.407407     34.152744     34.152744     68.305488
     -2.397397     36.533165     36.533165     73.066329
     -2.387387     38.889894     38.889894     77.779788
     -2.377377     41.142228     41.142228     82.284457
     -2.367367     42.926703     42.926703     85.853407
     -2.357357     43.675125     43.675125     87.350249
     -2.347347     42.829503     42.829503     85.659006
     -2.337337     40.101168     40.101168     80.202337
     -2.327327     35.653091     35.653091     71.306181
     -2.317317     30.117693     30.117693     60.235386
     -2.307307     24.440983     24.440983     48.881966
     -2.297297     19.623317     19.623317     39.246633
     -2.287287     16.463663     16.463663     32.927326
     -2.277277     15.394248     15.394248     30.788496
     -2.267267     16.438439     16.438439     32.876879
     -2.257257     19.273310     19.273310     38.546620
     -2.247247     23.352006     23.352006     46.704013
     -2.237237     28.039194     28.039194     56.078389
     -2.227227     32.723301     32.723301     65.446601
     -2.217217     36.884101     36.884101     73.768202
     -2.207207     40.112934     40.112934     80.225868
     -2.197197     42.103995     42.103995     84.207990
     -2.187187     42.649210     42.649210     85.298421
     -2.177177     41.663128     41.663128     83.326256
     -2.167167     39.235027     39.235027     78.470053
     -2.157157     35.669537     35.669537     71.339073
     -2.147147     31.463415     31.463415     62.926830
     -2.137137     27.193405     27.193405     54.386809
     -2.127127     23.346827     23.346827     46.693655
     -2.117117     20.173658     20.173658     40.347316
     -2.107107     17.638499     17.638499     35.276998
     -2.097097     15.498055     15.498055     30.996110
     -2.087087     13.458758     13.458758     26.917516
     -2.077077     11.328026     11.328026     22.656053
     -2.067067      9.086322      9.086322     18.172645
     -2.057057      6.861087      6.861087     13.722174
     -2.047047      4.838430      4.838430      9.676859
     -2.037037      3.171092      3.171092      6.342185
     -2.027027      1.926327      1.926327      3.852653
     -2.017017      1.084042      1.084042      2.168083
     -2.007007      0.568559      0.568559      1.137118
     -1.996997      0.289084      0.289084      0.578169
     -1.986987      0.171524      0.171524      0.343049
     -1.976977      0.176687      0.176687      0.353374
     -1.966967      0.308063      0.308063      0.616126
     -1.956957      0.613377      0.613377      1.226755
     -1.946947      1.180110      1.180110      2.360220
     -1.936937      2.120809      2.120809      4.241617
     -1.926927      3.543637      3.543637      7.087273
     -1.916917      5.509404      5.509404     11.018808
     -1.906907      7.986343      7.986343     15.972685
     -1.896897     10.821861     10.821861     21.643722
     -1.886887     13.749294     13.749294     27.498589
     -1.876877     16.435341     16.435341     32.870682
     -1.866867     18.556487     18.556487     37.112974
     -1.856857     19.880451     19.880451     39.760901
     -1.846847     20.327096     20.327096     40.654192
     -1.836837     19.989857     19.989857     39.979714
     -1.826827     19.108007     19.108007     38.216014
     -1.816817     17.991484     17.991484     35.982968
     -1.806807     16.916588     16.916588     33.833176
     -1.796797     16.029985     16.029985     32.059970
     -1.786787     15.306649     15.306649     30.613299
     -1.776777     14.590064     14.590064     29.180128
     -1.766767     13.702001     13.702001     27.404003
     -1.756757     12.567629     12.567629     25.135259
     -1.746747     11.288528     11.288528     22.577056
     -1.736737     10.122580     10.122580     20.245159
     -1.726727      9.379755      9.379755     18.759510
     -1.716717      9.286362      9.286362     18.572724
     -1.706707      9.884311      9.884311     19.768623
     -1.696697     11.012353     11.012353     22.024706
     -1.686687     12.375182     12.375182     24.750364
     -1.676677     13.663290     13.663290     27.326580
     -1.666667     14.661612     14.661612     29.323223
     -1.656657     15.292613     15.292613     30.585226
     -1.646647     15.578841     15.578841     31.157681
     -1.636637     15.560026     15.560026     31.120052
     -1.626627     15.228210     15.228210     30.456420
