# EIG2DOS: Utility for SIESTA to obtain the electronic density of states
#  E. Artacho, Apr 1999, A. Garcia, Apr 2012
#  Nick R. Papior, Feb 2017
# ------------------------------------------
# Eigenvalues calculated from a non-polarized calculation
# Eigenvalues read from siesta.EIG
# Kpoint weights read from siesta.KP
# Using smearing parameter:   0.0500
# Using 1000 points in the energy range
# Selected bands: 1 to: 2981
# Emin, Emax in file for selected band(s):    -27.4405003    218.4034380
# Nbands, Nspin, Nk   =   2981     1     1
# E_F                 =    -4.1964 eV --> (shifted to ZERO)
# Broadening          =     0.0500 eV
#
#        E            N(up)  (=)   N(down)         Ntot
     -5.000000     30.703018     30.703018     61.406037
     -4.989990     35.811381     35.811381     71.622762
     -4.979980     40.804261     40.804261     81.608522
     -4.969970     44.838024     44.838024     89.676048
     -4.959960     47.147445     47.147445     94.294890
     -4.949950     47.301160     47.301160     94.602319
     -4.939940     45.356448     45.356448     90.712896
     -4.929930     41.862990     41.862990     83.725981
     -4.919920     37.736037     37.736037     75.472075
     -4.909910     34.062029     34.062029     68.124057
     -4.899900     31.893209     31.893209     63.786417
     -4.889890     32.052646     32.052646     64.105293
     -4.879880     34.950056     34.950056     69.900113
     -4.869870     40.427050     40.427050     80.854099
     -4.859860     47.690425     47.690425     95.380850
     -4.849850     55.407455     55.407455    110.814910
     -4.839840     61.993694     61.993694    123.987388
     -4.829830     66.032798     66.032798    132.065595
     -4.819820     66.683021     66.683021    133.366041
     -4.809810     63.906135     63.906135    127.812270
     -4.799800     58.423610     58.423610    116.847220
     -4.789790     51.427728     51.427728    102.855456
     -4.779780     44.182105     44.182105     88.364209
     -4.769770     37.677770     37.677770     75.355540
     -4.759760     32.457853     32.457853     64.915706
     -4.749750     28.627744     28.627744     57.255488
     -4.739740     25.987491     25.987491     51.974982
     -4.729730     24.195382     24.195382     48.390765
     -4.719720     22.893913     22.893913     45.787827
     -4.709710     21.774699     21.774699     43.549399
     -4.699700     20.598904     20.598904     41.197808
     -4.689690     19.207532     19.207532     38.415064
     -4.679680     17.547961     17.547961     35.095922
     -4.669670     15.717659     15.717659     31.435318
     -4.659660     13.999913     13.999913     27.999827
     -4.649650     12.856241     12.856241     25.712482
     -4.639640     12.851693     12.851693     25.703387
     -4.629630     14.515030     14.515030     29.030060
     -4.619620     18.163352     18.163352     36.326704
     -4.609610     23.742028     23.742028     47.484056
     -4.599600     30.740989     30.740989     61.481978
     -4.589590     38.240511     38.240511     76.481022
     -4.579580     45.105166     45.105166     90.210331
     -4.569570     50.286652     50.286652    100.573304
     -4.559560     53.137755     53.137755    106.275509
     -4.549550     53.615039     53.615039    107.230077
     -4.539540     52.279339     52.279339    104.558679
     -4.529530     50.082249     50.082249    100.164498
     -4.519520     48.017254     48.017254     96.034509
     -4.509510     46.772299     46.772299     93.544599
     -4.499499     46.518859     46.518859     93.037718
     -4.489489     46.912169     46.912169     93.824338
     -4.479479     47.286235     47.286235     94.572470
     -4.469469     46.947567     46.947567     93.895134
     -4.459459     45.439438     45.439438     90.878876
     -4.449449     42.676557     42.676557     85.353114
     -4.439439     38.920816     38.920816     77.841632
     -4.429429     34.644120     34.644120     69.288239
     -4.419419     30.365462     30.365462     60.730925
     -4.409409     26.538129     26.538129     53.076258
     -4.399399     23.511618     23.511618     47.023236
     -4.389389     21.538159     21.538159     43.076317
     -4.379379     20.772772     20.772772     41.545545
     -4.369369     21.240589     21.240589     42.481178
     -4.359359     22.792467     22.792467     45.584934
     -4.349349     25.099609     25.099609     50.199218
     -4.339339     27.724228     27.724228     55.448456
     -4.329329     30.255493     30.255493     60.510986
     -4.319319     32.452948     32.452948     64.905896
     -4.309309     34.325783     34.325783     68.651565
     -4.299299     36.102824     36.102824     72.205648
     -4.289289     38.096912     38.096912     76.193823
     -4.279279     40.513404     40.513404     81.026808
     -4.269269     43.279660     43.279660     86.559321
     -4.259259     45.973977     45.973977     91.947955
     -4.249249     47.904971     47.904971     95.809942
     -4.239239     48.335999     48.335999     96.671998
     -4.229229     46.778846     46.778846     93.557691
     -4.219219     43.231196     43.231196     86.462392
     -4.209209     38.240342     38.240342     76.480685
     -4.199199     32.749815     32.749815     65.499629
     -4.189189     27.790620     27.790620     55.581241
     -4.179179     24.154222     24.154222     48.308443
     -4.169169     22.186836     22.186836     44.373671
     -4.159159     21.777068     21.777068     43.554136
     -4.149149     22.514324     22.514324     45.028648
     -4.139139     23.924426     23.924426     47.848851
     -4.129129     25.669054     25.669054     51.338109
     -4.119119     27.625117     27.625117     55.250234
     -4.109109     29.819720     29.819720     59.639441
     -4.099099     32.263561     32.263561     64.527122
     -4.089089     34.777398     34.777398     69.554797
     -4.079079     36.918998     36.918998     73.837995
     -4.069069     38.075614     38.075614     76.151229
     -4.059059     37.699964     37.699964     75.399928
     -4.049049     35.579891     35.579891     71.159781
     -4.039039     32.000029     32.000029     64.000058
     -4.029029     27.704477     27.704477     55.408954
     -4.019019     23.674635     23.674635     47.349270
     -4.009009     20.829823     20.829823     41.659645
     -3.998999     19.784431     19.784431     39.568863
     -3.988989     20.747137     20.747137     41.494273
     -3.978979     23.565179     23.565179     47.130358
     -3.968969     27.853330     27.853330     55.706660
     -3.958959     33.133186     33.133186     66.266373
     -3.948949     38.937127     38.937127     77.874254
     -3.938939     44.870704     44.870704     89.741408
     -3.928929     50.646673     50.646673    101.293346
     -3.918919     56.095689     56.095689    112.191378
     -3.908909     61.141671     61.141671    122.283343
     -3.898899     65.730212     65.730212    131.460423
     -3.888889     69.724764     69.724764    139.449528
     -3.878879     72.819294     72.819294    145.638588
     -3.868869     74.527690     74.527690    149.055380
     -3.858859     74.283539     74.283539    148.567077
     -3.848849     71.630148     71.630148    143.260296
     -3.838839     66.430032     66.430032    132.860063
     -3.828829     59.004065     59.004065    118.008131
     -3.818819     50.133677     50.133677    100.267354
     -3.808809     40.913195     40.913195     81.826391
     -3.798799     32.498076     32.498076     64.996152
     -3.788789     25.832007     25.832007     51.664013
     -3.778779     21.438318     21.438318     42.876637
     -3.768769     19.332755     19.332755     38.665510
     -3.758759     19.072081     19.072081     38.144162
     -3.748749     19.914146     19.914146     39.828292
     -3.738739     21.040454     21.040454     42.080907
     -3.728729     21.783427     21.783427     43.566854
     -3.718719     21.803958     21.803958     43.607917
     -3.708709     21.176554     21.176554     42.353108
     -3.698699     20.357781     20.357781     40.715561
     -3.688689     20.038545     20.038545     40.077091
     -3.678679     20.911415     20.911415     41.822830
     -3.668669     23.415675     23.415675     46.831350
     -3.658659     27.543517     27.543517     55.087034
     -3.648649     32.784709     32.784709     65.569419
     -3.638639     38.244755     38.244755     76.489510
     -3.628629     42.902719     42.902719     85.805438
     -3.618619     45.911939     45.911939     91.823878
     -3.608609     46.827762     46.827762     93.655524
     -3.598599     45.686236     45.686236     91.372472
     -3.588589     42.931721     42.931721     85.863442
     -3.578579     39.251714     39.251714     78.503428
     -3.568569     35.390368     35.390368     70.780736
     -3.558559     31.985338     31.985338     63.970677
     -3.548549     29.442123     29.442123     58.884246
     -3.538539     27.854353     27.854353     55.708707
     -3.528529     26.991969     26.991969     53.983939
     -3.518519     26.381981     26.381981     52.763962
     -3.508509     25.477988     25.477988     50.955976
     -3.498498     23.866982     23.866982     47.733963
     -3.488488     21.430792     21.430792     42.861584
     -3.478478     18.392435     18.392435     36.784870
     -3.468468     15.229870     15.229870     30.459739
     -3.458458     12.499164     12.499164     24.998328
     -3.448448     10.642205     10.642205     21.284409
     -3.438438      9.849690      9.849690     19.699380
     -3.428428     10.020485     10.020485     20.040969
     -3.418418     10.822985     10.822985     21.645970
     -3.408408     11.834048     11.834048     23.668097
     -3.398398     12.708594     12.708594     25.417187
     -3.388388     13.321218     13.321218     26.642437
     -3.378378     13.827724     13.827724     27.655449
     -3.368368     14.623138     14.623138     29.246276
     -3.358358     16.213019     16.213019     32.426038
     -3.348348     19.044464     19.044464     38.088927
     -3.338338     23.346354     23.346354     46.692709
     -3.328328     29.011100     29.011100     58.022199
     -3.318318     35.535394     35.535394     71.070787
     -3.308308     42.040586     42.040586     84.081172
     -3.298298     47.401382     47.401382     94.802763
     -3.288288     50.493471     50.493471    100.986942
     -3.278278     50.512637     50.512637    101.025275
     -3.268268     47.250809     47.250809     94.501617
     -3.258258     41.197193     41.197193     82.394386
     -3.248248     33.398554     33.398554     66.797108
     -3.238238     25.130970     25.130970     50.261940
     -3.228228     17.529111     17.529111     35.058221
     -3.218218     11.326916     11.326916     22.653833
     -3.208208      6.788182      6.788182     13.576364
     -3.198198      3.804998      3.804998      7.609996
     -3.188188      2.078685      2.078685      4.157369
     -3.178178      1.294735      1.294735      2.589471
     -3.168168      1.239831      1.239831      2.479662
     -3.158158      1.849216      1.849216      3.698433
     -3.148148      3.194130      3.194130      6.388260
     -3.138138      5.421976      5.421976     10.843952
     -3.128128      8.660801      8.660801     17.321603
     -3.118118     12.906864     12.906864     25.813728
     -3.108108     17.929792     17.929792     35.859585
     -3.098098     23.240923     23.240923     46.481846
     -3.088088     28.160014     28.160014     56.320028
     -3.078078     31.977559     31.977559     63.955117
     -3.068068     34.158871     34.158871     68.317742
     -3.058058     34.502813     34.502813     69.005626
     -3.048048     33.179739     33.179739     66.359477
     -3.038038     30.631243     30.631243     61.262486
     -3.028028     27.387139     27.387139     54.774277
     -3.018018     23.896822     23.896822     47.793644
     -3.008008     20.455458     20.455458     40.910916
     -2.997998     17.242348     17.242348     34.484696
     -2.987988     14.422728     14.422728     28.845456
     -2.977978     12.236187     12.236187     24.472373
     -2.967968     11.015035     11.015035     22.030070
     -2.957958     11.121564     11.121564     22.243128
     -2.947948     12.832469     12.832469     25.664939
     -2.937938     16.215773     16.215773     32.431546
     -2.927928     21.044243     21.044243     42.088486
     -2.917918     26.779812     26.779812     53.559623
     -2.907908     32.648363     32.648363     65.296726
     -2.897898     37.799693     37.799693     75.599386
     -2.887888     41.514201     41.514201     83.028401
     -2.877878     43.388892     43.388892     86.777784
     -2.867868     43.429869     43.429869     86.859737
     -2.857858     42.008057     42.008057     84.016114
     -2.847848     39.691601     39.691601     79.383201
     -2.837838     37.025550     37.025550     74.051100
     -2.827828     34.355942     34.355942     68.711885
     -2.817818     31.773491     31.773491     63.546982
     -2.807808     29.190746     29.190746     58.381492
     -2.797798     26.498007     26.498007     52.996015
     -2.787788     23.705450     23.705450     47.410900
     -2.777778     20.993009     20.993009     41.986019
     -2.767768     18.646913     18.646913     37.293827
     -2.757758     16.928778     16.928778     33.857557
     -2.747748     15.960652     15.960652     31.921305
     -2.737738     15.695325     15.695325     31.390650
     -2.727728     15.984099     15.984099     31.968198
     -2.717718     16.689557     16.689557     33.379115
     -2.707708     17.760975     17.760975     35.521949
     -2.697698     19.217087     19.217087     38.434173
     -2.687688     21.049352     21.049352     42.098704
     -2.677678     23.121970     23.121970     46.243940
     -2.667668     25.155314     25.155314     50.310629
     -2.657658     26.824729     26.824729     53.649458
     -2.647648     27.922558     27.922558     55.845115
     -2.637638     28.478983     28.478983     56.957967
     -2.627628     28.757600     28.757600     57.515200
     -2.617618     29.122127     29.122127     58.244254
     -2.607608     29.853153     29.853153     59.706305
     -2.597598     31.019026     31.019026     62.038052
     -2.587588     32.459148     32.459148     64.918296
     -2.577578     33.861499     33.861499     67.722999
     -2.567568     34.868914     34.868914     69.737828
     -2.557558     35.159635     35.159635     70.319270
     -2.547548     34.495071     34.495071     68.990143
     -2.537538     32.762399     32.762399     65.524797
     -2.527528     30.031107     30.031107     60.062214
     -2.517518     26.603844     26.603844     53.207687
     -2.507508     23.013811     23.013811     46.027621
     -2.497497     19.933157     19.933157     39.866314
     -2.487487     18.003171     18.003171     36.006341
     -2.477477     17.644880     17.644880     35.289761
     -2.467467     18.927303     18.927303     37.854605
     -2.457457     21.550998     21.550998     43.101995
     -2.447447     24.958555     24.958555     49.917111
     -2.437437     28.531397     28.531397     57.062794
     -2.427427     31.794264     31.794264     63.588528
     -2.417417     34.541345     34.541345     69.082689
     -2.407407     36.828352     36.828352     73.656703
     -2.397397     38.834370     38.834370     77.668740
     -2.387387     40.661013     40.661013     81.322026
     -2.377377     42.172945     42.172945     84.345890
     -2.367367     42.971061     42.971061     85.942121
     -2.357357     42.527876     42.527876     85.055753
     -2.347347     40.431004     40.431004     80.862008
     -2.337337     36.619013     36.619013     73.238025
     -2.327327     31.492098     31.492098     62.984197
     -2.317317     25.842273     25.842273     51.684546
     -2.307307     20.638064     20.638064     41.276129
     -2.297297     16.762839     16.762839     33.525678
     -2.287287     14.810295     14.810295     29.620590
     -2.277277     14.994017     14.994017     29.988034
     -2.267267     17.168298     17.168298     34.336595
     -2.257257     20.919732     20.919732     41.839463
     -2.247247     25.683280     25.683280     51.366561
     -2.237237     30.850355     30.850355     61.700710
     -2.227227     35.853083     35.853083     71.706166
     -2.217217     40.219869     40.219869     80.439739
     -2.207207     43.603511     43.603511     87.207021
     -2.197197     45.787863     45.787863     91.575725
     -2.187187     46.682536     46.682536     93.365072
     -2.177177     46.314114     46.314114     92.628228
     -2.167167     44.815215     44.815215     89.630431
     -2.157157     42.403880     42.403880     84.807760
     -2.147147     39.344277     39.344277     78.688553
     -2.137137     35.890636     35.890636     71.781271
     -2.127127     32.233197     32.233197     64.466394
     -2.117117     28.473085     28.473085     56.946170
     -2.107107     24.642002     24.642002     49.284005
     -2.097097     20.757091     20.757091     41.514182
     -2.087087     16.878766     16.878766     33.757531
     -2.077077     13.136737     13.136737     26.273474
     -2.067067      9.709271      9.709271     19.418542
     -2.057057      6.769224      6.769224     13.538448
     -2.047047      4.428162      4.428162      8.856324
     -2.037037      2.706867      2.706867      5.413735
     -2.027027      1.541912      1.541912      3.083825
     -2.017017      0.818313      0.818313      1.636625
     -2.007007      0.409248      0.409248      0.818497
     -1.996997      0.207454      0.207454      0.414907
     -1.986987      0.142770      0.142770      0.285541
     -1.976977      0.188752      0.188752      0.377504
     -1.966967      0.363837      0.363837      0.727674
     -1.956957      0.729813      0.729813      1.459626
     -1.946947      1.385160      1.385160      2.770321
     -1.936937      2.447363      2.447363      4.894725
     -1.926927      4.019759      4.019759      8.039517
     -1.916917      6.146047      6.146047     12.292093
     -1.906907      8.766045      8.766045     17.532089
     -1.896897     11.693018     11.693018     23.386036
     -1.886887     14.629390     14.629390     29.258780
     -1.876877     17.223599     17.223599     34.447199
     -1.866867     19.153478     19.153478     38.306956
     -1.856857     20.210338     20.210338     40.420675
     -1.846847     20.357148     20.357148     40.714297
     -1.836837     19.740972     19.740972     39.481945
     -1.826827     18.650337     18.650337     37.300675
     -1.816817     17.423025     17.423025     34.846049
     -1.806807     16.329905     16.329905     32.659810
     -1.796797     15.479086     15.479086     30.958171
     -1.786787     14.786338     14.786338     29.572675
     -1.776777     14.031988     14.031988     28.063976
     -1.766767     12.980174     12.980174     25.960349
     -1.756757     11.501030     11.501030     23.002060
     -1.746747      9.635404      9.635404     19.270808
     -1.736737      7.576994      7.576994     15.153988
     -1.726727      5.593911      5.593911     11.187822
     -1.716717      3.939492      3.939492      7.878984
     -1.706707      2.795881      2.795881      5.591763
     -1.696697      2.263521      2.263521      4.527042
     -1.686687      2.378617      2.378617      4.757234
     -1.676677      3.128120      3.128120      6.256240
     -1.666667      4.442254      4.442254      8.884508
     -1.656657      6.168904      6.168904     12.337807
     -1.646647      8.056093      8.056093     16.112187
     -1.636637      9.773795      9.773795     19.547590
     -1.626627     10.988848     10.988848     21.977696
