# EIG2DOS: Utility for SIESTA to obtain the electronic density of states
#  E. Artacho, Apr 1999, A. Garcia, Apr 2012
#  Nick R. Papior, Feb 2017
# ------------------------------------------
# Eigenvalues calculated from a non-polarized calculation
# Eigenvalues read from siesta.EIG
# Kpoint weights read from siesta.KP
# Using smearing parameter:   0.0500
# Using 1000 points in the energy range
# Selected bands: 1 to: 2981
# Emin, Emax in file for selected band(s):    -27.3878690    218.3784000
# Nbands, Nspin, Nk   =   2981     1     1
# E_F                 =    -4.2280 eV --> (shifted to ZERO)
# Broadening          =     0.0500 eV
#
#        E            N(up)  (=)   N(down)         Ntot
     -5.000000     31.278743     31.278743     62.557486
     -4.989990     35.841674     35.841674     71.683348
     -4.979980     40.213452     40.213452     80.426904
     -4.969970     43.705059     43.705059     87.410119
     -4.959960     45.684665     45.684665     91.369329
     -4.949950     45.783467     45.783467     91.566934
     -4.939940     44.027865     44.027865     88.055730
     -4.929930     40.853493     40.853493     81.706986
     -4.919920     37.012340     37.012340     74.024679
     -4.909910     33.420122     33.420122     66.840244
     -4.899900     30.988254     30.988254     61.976507
     -4.889890     30.457354     30.457354     60.914708
     -4.879880     32.232644     32.232644     64.465289
     -4.869870     36.238954     36.238954     72.477908
     -4.859860     41.850588     41.850588     83.701175
     -4.849850     47.966804     47.966804     95.933608
     -4.839840     53.264059     53.264059    106.528118
     -4.829830     56.570627     56.570627    113.141253
     -4.819820     57.228862     57.228862    114.457724
     -4.809810     55.292301     55.292301    110.584601
     -4.799800     51.469568     51.469568    102.939136
     -4.789790     46.841422     46.841422     93.682844
     -4.779780     42.476462     42.476462     84.952924
     -4.769770     39.102626     39.102626     78.205253
     -4.759760     36.947658     36.947658     73.895316
     -4.749750     35.776551     35.776551     71.553102
     -4.739740     35.074632     35.074632     70.149264
     -4.729730     34.281924     34.281924     68.563847
     -4.719720     32.984637     32.984637     65.969273
     -4.709710     31.004743     31.004743     62.009485
     -4.699700     28.382600     28.382600     56.765201
     -4.689690     25.297418     25.297418     50.594835
     -4.679680     21.990900     21.990900     43.981801
     -4.669670     18.739549     18.739549     37.479099
     -4.659660     15.875238     15.875238     31.750476
     -4.649650     13.813748     13.813748     27.627495
     -4.639640     13.041538     13.041538     26.083075
     -4.629630     14.033099     14.033099     28.066198
     -4.619620     17.107876     17.107876     34.215753
     -4.609610     22.269466     22.269466     44.538931
     -4.599600     29.090946     29.090946     58.181892
     -4.589590     36.711789     36.711789     73.423578
     -4.579580     43.985568     43.985568     87.971136
     -4.569570     49.762291     49.762291     99.524583
     -4.559560     53.222423     53.222423    106.444846
     -4.549550     54.136509     54.136509    108.273018
     -4.539540     52.936196     52.936196    105.872391
     -4.529530     50.552765     50.552765    101.105531
     -4.519520     48.077678     48.077678     96.155357
     -4.509510     46.377668     46.377668     92.755337
     -4.499499     45.816179     45.816179     91.632358
     -4.489489     46.184125     46.184125     92.368251
     -4.479479     46.850306     46.850306     93.700612
     -4.469469     47.049800     47.049800     94.099599
     -4.459459     46.180070     46.180070     92.360141
     -4.449449     43.988911     43.988911     87.977822
     -4.439439     40.603181     40.603181     81.206363
     -4.429429     36.425790     36.425790     72.851581
     -4.419419     31.979582     31.979582     63.959164
     -4.409409     27.777619     27.777619     55.555238
     -4.399399     24.256735     24.256735     48.513470
     -4.389389     21.757922     21.757922     43.515844
     -4.379379     20.510630     20.510630     41.021260
     -4.369369     20.594360     20.594360     41.188721
     -4.359359     21.892630     21.892630     43.785260
     -4.349349     24.084495     24.084495     48.168989
     -4.339339     26.710449     26.710449     53.420898
     -4.329329     29.307166     29.307166     58.614332
     -4.319319     31.559812     31.559812     63.119625
     -4.309309     33.403004     33.403004     66.806008
     -4.299299     35.021259     35.021259     70.042518
     -4.289289     36.742274     36.742274     73.484547
     -4.279279     38.858953     38.858953     77.717907
     -4.269269     41.444665     41.444665     82.889330
     -4.259259     44.236328     44.236328     88.472655
     -4.249249     46.647883     46.647883     93.295767
     -4.239239     47.936200     47.936200     95.872400
     -4.229229     47.475732     47.475732     94.951463
     -4.219219     45.033396     45.033396     90.066792
     -4.209209     40.913206     40.913206     81.826412
     -4.199199     35.888626     35.888626     71.777253
     -4.189189     30.942775     30.942775     61.885550
     -4.179179     26.934718     26.934718     53.869437
     -4.169169     24.344210     24.344210     48.688420
     -4.159159     23.198704     23.198704     46.397409
     -4.149149     23.189306     23.189306     46.378613
     -4.139139     23.894594     23.894594     47.789188
     -4.129129     24.994798     24.994798     49.989596
     -4.119119     26.379459     26.379459     52.758917
     -4.109109     28.109076     28.109076     56.218152
     -4.099099     30.259501     30.259501     60.519002
     -4.089089     32.734426     32.734426     65.468851
     -4.079079     35.155050     35.155050     70.310099
     -4.069069     36.908445     36.908445     73.816890
     -4.059059     37.358258     37.358258     74.716516
     -4.049049     36.127486     36.127486     72.254973
     -4.039039     33.310020     33.310020     66.620041
     -4.029029     29.495730     29.495730     58.991460
     -4.019019     25.591660     25.591660     51.183321
     -4.009009     22.529026     22.529026     45.058051
     -3.998999     20.995634     20.995634     41.991269
     -3.988989     21.300907     21.300907     42.601814
     -3.978979     23.395788     23.395788     46.791576
     -3.968969     26.991348     26.991348     53.982696
     -3.958959     31.692628     31.692628     63.385255
     -3.948949     37.092129     37.092129     74.184259
     -3.938939     42.817308     42.817308     85.634617
     -3.928929     48.556776     48.556776     97.113552
     -3.918919     54.082516     54.082516    108.165031
     -3.908909     59.256838     59.256838    118.513677
     -3.898899     63.997520     63.997520    127.995041
     -3.888889     68.193353     68.193353    136.386705
     -3.878879     71.603716     71.603716    143.207432
     -3.868869     73.806150     73.806150    147.612301
     -3.858859     74.247267     74.247267    148.494534
     -3.848849     72.404217     72.404217    144.808435
     -3.838839     68.002847     68.002847    136.005694
     -3.828829     61.199820     61.199820    122.399639
     -3.818819     52.641901     52.641901    105.283803
     -3.808809     43.364058     43.364058     86.728116
     -3.798799     34.554605     34.554605     69.109210
     -3.788789     27.267812     27.267812     54.535625
     -3.778779     22.179471     22.179471     44.358942
     -3.768769     19.457444     19.457444     38.914887
     -3.758759     18.774067     18.774067     37.548134
     -3.748749     19.442884     19.442884     38.885768
     -3.738739     20.633063     20.633063     41.266127
     -3.728729     21.603631     21.603631     43.207261
     -3.718719     21.901491     21.901491     43.802981
     -3.708709     21.477112     21.477112     42.954225
     -3.698699     20.687620     20.687620     41.375239
     -3.688689     20.179610     20.179610     40.359221
     -3.678679     20.673640     20.673640     41.347280
     -3.668669     22.705389     22.705389     45.410779
     -3.658659     26.404555     26.404555     52.809109
     -3.648649     31.395216     31.395216     62.790433
     -3.638639     36.867972     36.867972     73.735944
     -3.628629     41.808437     41.808437     83.616874
     -3.618619     45.297088     45.297088     90.594176
     -3.608609     46.762026     46.762026     93.524051
     -3.598599     46.092947     46.092947     92.185895
     -3.588589     43.596310     43.596310     87.192621
     -3.578579     39.842198     39.842198     79.684397
     -3.568569     35.481339     35.481339     70.962678
     -3.558559     31.091599     31.091599     62.183197
     -3.548549     27.077441     27.077441     54.154882
     -3.538539     23.625315     23.625315     47.250630
     -3.528529     20.717247     20.717247     41.434494
     -3.518519     18.204100     18.204100     36.408199
     -3.508509     15.922628     15.922628     31.845256
     -3.498498     13.814282     13.814282     27.628564
     -3.488488     11.992420     11.992420     23.984839
     -3.478478     10.722849     10.722849     21.445697
     -3.468468     10.321577     10.321577     20.643155
     -3.458458     11.010312     11.010312     22.020624
     -3.448448     12.787240     12.787240     25.574480
     -3.438438     15.365504     15.365504     30.731008
     -3.428428     18.210598     18.210598     36.421195
     -3.418418     20.676219     20.676219     41.352437
     -3.408408     22.201266     22.201266     44.402533
     -3.398398     22.500146     22.500146     45.000292
     -3.388388     21.671587     21.671587     43.343174
     -3.378378     20.178725     20.178725     40.357451
     -3.368368     18.706839     18.706839     37.413679
     -3.358358     17.957185     17.957185     35.914370
     -3.348348     18.456073     18.456073     36.912146
     -3.338338     20.437021     20.437021     40.874041
     -3.328328     23.808135     23.808135     47.616269
     -3.318318     28.180617     28.180617     56.361234
     -3.308308     32.931287     32.931287     65.862573
     -3.298298     37.295575     37.295575     74.591149
     -3.288288     40.504497     40.504497     81.008993
     -3.278278     41.960800     41.960800     83.921600
     -3.268268     41.403562     41.403562     82.807124
     -3.258258     38.981032     38.981032     77.962065
     -3.248248     35.179169     35.179169     70.358339
     -3.238238     30.631050     30.631050     61.262100
     -3.228228     25.904007     25.904007     51.808015
     -3.218218     21.369691     21.369691     42.739382
     -3.208208     17.201193     17.201193     34.402385
     -3.198198     13.460690     13.460690     26.921381
     -3.188188     10.200362     10.200362     20.400724
     -3.178178      7.518240      7.518240     15.036480
     -3.168168      5.560166      5.560166     11.120332
     -3.158158      4.494575      4.494575      8.989150
     -3.148148      4.486895      4.486895      8.973789
     -3.138138      5.676838      5.676838     11.353675
     -3.128128      8.142684      8.142684     16.285368
     -3.118118     11.840911     11.840911     23.681821
     -3.108108     16.534991     16.534991     33.069982
     -3.098098     21.754256     21.754256     43.508512
     -3.088088     26.829068     26.829068     53.658136
     -3.078078     31.020716     31.020716     62.041432
     -3.068068     33.713415     33.713415     67.426829
     -3.058058     34.591012     34.591012     69.182024
     -3.048048     33.714636     33.714636     67.429272
     -3.038038     31.461443     31.461443     62.922886
     -3.028028     28.357236     28.357236     56.714471
     -3.018018     24.892171     24.892171     49.784343
     -3.008008     21.411729     21.411729     42.823458
     -2.997998     18.122948     18.122948     36.245896
     -2.987988     15.185027     15.185027     30.370054
     -2.977978     12.810054     12.810054     25.620108
     -2.967968     11.305958     11.305958     22.611915
     -2.957958     11.035563     11.035563     22.071126
     -2.947948     12.310461     12.310461     24.620922
     -2.937938     15.263358     15.263358     30.526717
     -2.927928     19.746145     19.746145     39.492290
     -2.917918     25.292838     25.292838     50.585676
     -2.907908     31.172198     31.172198     62.344397
     -2.897898     36.531593     36.531593     73.063186
     -2.887888     40.600681     40.600681     81.201361
     -2.877878     42.891307     42.891307     85.782615
     -2.867868     43.317879     43.317879     86.635759
     -2.857858     42.184862     42.184862     84.369723
     -2.847848     40.041130     40.041130     80.082261
     -2.837838     37.461045     37.461045     74.922091
     -2.827828     34.847620     34.847620     69.695239
     -2.817818     32.342623     32.342623     64.685247
     -2.807808     29.874597     29.874597     59.749195
     -2.797798     27.305751     27.305751     54.611502
     -2.787788     24.590239     24.590239     49.180479
     -2.777778     21.856040     21.856040     43.712080
     -2.767768     19.370490     19.370490     38.740981
     -2.757758     17.418105     17.418105     34.836210
     -2.747748     16.169066     16.169066     32.338131
     -2.737738     15.618832     15.618832     31.237664
     -2.727728     15.632177     15.632177     31.264353
     -2.717718     16.057005     16.057005     32.114010
     -2.707708     16.827248     16.827248     33.654496
     -2.697698     17.981342     17.981342     35.962683
     -2.687688     19.581401     19.581401     39.162803
     -2.677678     21.590711     21.590711     43.181422
     -2.667668     23.802919     23.802919     47.605839
     -2.657658     25.886666     25.886666     51.773333
     -2.647648     27.530810     27.530810     55.061620
     -2.637638     28.602101     28.602101     57.204203
     -2.627628     29.212771     29.212771     58.425541
     -2.617618     29.652688     29.652688     59.305376
     -2.607608     30.228877     30.228877     60.457753
     -2.597598     31.110273     31.110273     62.220546
     -2.587588     32.260164     32.260164     64.520328
     -2.577578     33.470780     33.470780     66.941559
     -2.567568     34.450871     34.450871     68.901742
     -2.557558     34.904886     34.904886     69.809771
     -2.547548     34.580472     34.580472     69.160945
     -2.537538     33.305830     33.305830     66.611661
     -2.527528     31.045891     31.045891     62.091781
     -2.517518     27.971862     27.971862     55.943724
     -2.507508     24.498247     24.498247     48.996494
     -2.497497     21.235986     21.235986     42.471973
     -2.487487     18.849418     18.849418     37.698836
     -2.477477     17.861157     17.861157     35.722315
     -2.467467     18.484725     18.484725     36.969450
     -2.457457     20.559026     20.559026     41.118053
     -2.447447     23.616694     23.616694     47.233389
     -2.437437     27.060909     27.060909     54.121818
     -2.427427     30.377216     30.377216     60.754431
     -2.417417     33.288652     33.288652     66.577304
     -2.407407     35.784939     35.784939     71.569877
     -2.397397     38.013592     38.013592     76.027183
     -2.387387     40.088325     40.088325     80.176650
     -2.377377     41.914937     41.914937     83.829874
     -2.367367     43.132092     43.132092     86.264183
     -2.357357     43.211415     43.211415     86.422831
     -2.347347     41.681294     41.681294     83.362588
     -2.337337     38.371891     38.371891     76.743783
     -2.327327     33.562675     33.562675     67.125350
     -2.317317     27.959891     27.959891     55.919783
     -2.307307     22.514771     22.514771     45.029542
     -2.297297     18.165327     18.165327     36.330655
     -2.287287     15.606369     15.606369     31.212739
     -2.277277     15.160277     15.160277     30.320553
     -2.267267     16.764617     16.764617     33.529235
     -2.257257     20.047620     20.047620     40.095239
     -2.247247     24.445661     24.445661     48.891323
     -2.237237     29.322657     29.322657     58.645314
     -2.227227     34.065433     34.065433     68.130866
     -2.217217     38.143570     38.143570     76.287140
     -2.207207     41.136103     41.136103     82.272206
     -2.197197     42.740536     42.740536     85.481072
     -2.187187     42.786083     42.786083     85.572166
     -2.177177     41.264668     41.264668     82.529336
     -2.167167     38.369522     38.369522     76.739044
     -2.157157     34.506516     34.506516     69.013032
     -2.147147     30.240371     30.240371     60.480741
     -2.137137     26.168487     26.168487     52.336974
     -2.127127     22.763986     22.763986     45.527972
     -2.117117     20.260352     20.260352     40.520705
     -2.107107     18.633995     18.633995     37.267989
     -2.097097     17.684286     17.684286     35.368572
     -2.087087     17.153487     17.153487     34.306973
     -2.077077     16.814209     16.814209     33.628418
     -2.067067     16.489137     16.489137     32.978275
     -2.057057     16.024601     16.024601     32.049202
     -2.047047     15.270352     15.270352     30.540703
     -2.037037     14.101110     14.101110     28.202221
     -2.027027     12.470217     12.470217     24.940434
     -2.017017     10.452536     10.452536     20.905073
     -2.007007      8.238664      8.238664     16.477329
     -1.996997      6.077639      6.077639     12.155278
     -1.986987      4.200267      4.200267      8.400535
     -1.976977      2.764372      2.764372      5.528743
     -1.966967      1.844821      1.844821      3.689641
     -1.956957      1.462429      1.462429      2.924859
     -1.946947      1.626009      1.626009      3.252018
     -1.936937      2.359331      2.359331      4.718661
     -1.926927      3.696365      3.696365      7.392731
     -1.916917      5.645928      5.645928     11.291855
     -1.906907      8.143176      8.143176     16.286351
     -1.896897     11.014053     11.014053     22.028106
     -1.886887     13.975478     13.975478     27.950956
     -1.876877     16.679392     16.679392     33.358783
     -1.866867     18.789637     18.789637     37.579274
     -1.856857     20.066798     20.066798     40.133597
     -1.846847     20.433069     20.433069     40.866138
     -1.836837     19.995046     19.995046     39.990092
     -1.826827     19.012602     19.012602     38.025204
     -1.816817     17.816002     17.816002     35.632005
     -1.806807     16.692723     16.692723     33.385446
     -1.796797     15.785155     15.785155     31.570310
     -1.786787     15.046377     15.046377     30.092755
     -1.776777     14.280711     14.280711     28.561422
     -1.766767     13.253539     13.253539     26.507078
     -1.756757     11.815880     11.815880     23.631761
     -1.746747      9.981032      9.981032     19.962064
     -1.736737      7.920357      7.920357     15.840715
     -1.726727      5.892503      5.892503     11.785006
     -1.716717      4.153160      4.153160      8.306321
     -1.706707      2.892208      2.892208      5.784416
     -1.696697      2.217527      2.217527      4.435054
     -1.686687      2.172184      2.172184      4.344368
     -1.676677      2.754655      2.754655      5.509310
     -1.666667      3.917709      3.917709      7.835419
     -1.656657      5.543779      5.543779     11.087557
     -1.646647      7.418638      7.418638     14.837277
     -1.636637      9.236007      9.236007     18.472015
     -1.626627     10.654771     10.654771     21.309541
