# EIG2DOS: Utility for SIESTA to obtain the electronic density of states
#  E. Artacho, Apr 1999, A. Garcia, Apr 2012
#  Nick R. Papior, Feb 2017
# ------------------------------------------
# Eigenvalues calculated from a non-polarized calculation
# Eigenvalues read from siesta.EIG
# Kpoint weights read from siesta.KP
# Using smearing parameter:   0.0500
# Using 1000 points in the energy range
# Selected bands: 1 to: 2981
# Emin, Emax in file for selected band(s):    -27.0320163    218.3097870
# Nbands, Nspin, Nk   =   2981     1     1
# E_F                 =    -4.2995 eV --> (shifted to ZERO)
# Broadening          =     0.0500 eV
#
#        E            N(up)  (=)   N(down)         Ntot
     -5.000000     45.998519     45.998519     91.997038
     -4.989990     49.326892     49.326892     98.653785
     -4.979980     51.055707     51.055707    102.111415
     -4.969970     51.066426     51.066426    102.132851
     -4.959960     49.485308     49.485308     98.970616
     -4.949950     46.632482     46.632482     93.264965
     -4.939940     42.948919     42.948919     85.897837
     -4.929930     38.939068     38.939068     77.878136
     -4.919920     35.147010     35.147010     70.294021
     -4.909910     32.153325     32.153325     64.306650
     -4.899900     30.554617     30.554617     61.109233
     -4.889890     30.882361     30.882361     61.764721
     -4.879880     33.444105     33.444105     66.888211
     -4.869870     38.126403     38.126403     76.252807
     -4.859860     44.258129     44.258129     88.516258
     -4.849850     50.648582     50.648582    101.297163
     -4.839840     55.853990     55.853990    111.707980
     -4.829830     58.606064     58.606064    117.212128
     -4.819820     58.227603     58.227603    116.455206
     -4.809810     54.841854     54.841854    109.683709
     -4.799800     49.278799     49.278799     98.557598
     -4.789790     42.736718     42.736718     85.473435
     -4.779780     36.372132     36.372132     72.744263
     -4.769770     30.997589     30.997589     61.995178
     -4.759760     26.976256     26.976256     53.952511
     -4.749750     24.288233     24.288233     48.576467
     -4.739740     22.678094     22.678094     45.356187
     -4.729730     21.796916     21.796916     43.593831
     -4.719720     21.295677     21.295677     42.591353
     -4.709710     20.869340     20.869340     41.738680
     -4.699700     20.272775     20.272775     40.545549
     -4.689690     19.333001     19.333001     38.666003
     -4.679680     17.974689     17.974689     35.949379
     -4.669670     16.260810     16.260810     32.521620
     -4.659660     14.432324     14.432324     28.864649
     -4.649650     12.918924     12.918924     25.837847
     -4.639640     12.295089     12.295089     24.590178
     -4.629630     13.171172     13.171172     26.342344
     -4.619620     16.030460     16.030460     32.060920
     -4.609610     21.045291     21.045291     42.090583
     -4.599600     27.926791     27.926791     55.853581
     -4.589590     35.876919     35.876919     71.753839
     -4.579580     43.701245     43.701245     87.402490
     -4.569570     50.091367     50.091367    100.182735
     -4.559560     54.006754     54.006754    108.013508
     -4.549550     55.017072     55.017072    110.034144
     -4.539540     53.456320     53.456320    106.912640
     -4.529530     50.308310     50.308310    100.616620
     -4.519520     46.859792     46.859792     93.719583
     -4.509510     44.260821     44.260821     88.521642
     -4.499499     43.167497     43.167497     86.334995
     -4.489489     43.595601     43.595601     87.191203
     -4.479479     45.015035     45.015035     90.030069
     -4.469469     46.616240     46.616240     93.232479
     -4.459459     47.624576     47.624576     95.249152
     -4.449449     47.542564     47.542564     95.085128
     -4.439439     46.249933     46.249933     92.499865
     -4.429429     43.958736     43.958736     87.917472
     -4.419419     41.076000     41.076000     82.151999
     -4.409409     38.049629     38.049629     76.099258
     -4.399399     35.259382     35.259382     70.518764
     -4.389389     32.974812     32.974812     65.949623
     -4.379379     31.360380     31.360380     62.720760
     -4.369369     30.489465     30.489465     60.978930
     -4.359359     30.342910     30.342910     60.685821
     -4.349349     30.799664     30.799664     61.599329
     -4.339339     31.648561     31.648561     63.297122
     -4.329329     32.642285     32.642285     65.284569
     -4.319319     33.583145     33.583145     67.166290
     -4.309309     34.401575     34.401575     68.803150
     -4.299299     35.185019     35.185019     70.370038
     -4.289289     36.137810     36.137810     72.275620
     -4.279279     37.483336     37.483336     74.966671
     -4.269269     39.340776     39.340776     78.681552
     -4.259259     41.617490     41.617490     83.234980
     -4.249249     43.960753     43.960753     87.921506
     -4.239239     45.807003     45.807003     91.614007
     -4.229229     46.540235     46.540235     93.080470
     -4.219219     45.719078     45.719078     91.438156
     -4.209209     43.278103     43.278103     86.556205
     -4.199199     39.596296     39.596296     79.192593
     -4.189189     35.380402     35.380402     70.760804
     -4.179179     31.409172     31.409172     62.818344
     -4.169169     28.263630     28.263630     56.527261
     -4.159159     26.173960     26.173960     52.347919
     -4.149149     25.043580     25.043580     50.087160
     -4.139139     24.613780     24.613780     49.227560
     -4.129129     24.666077     24.666077     49.332155
     -4.119119     25.152774     25.152774     50.305548
     -4.109109     26.190786     26.190786     52.381572
     -4.099099     27.923919     27.923919     55.847838
     -4.089089     30.326914     30.326914     60.653828
     -4.079079     33.064260     33.064260     66.128521
     -4.069069     35.503296     35.503296     71.006592
     -4.059059     36.907856     36.907856     73.815712
     -4.049049     36.735656     36.735656     73.471312
     -4.039039     34.890919     34.890919     69.781837
     -4.029029     31.796382     31.796382     63.592764
     -4.019019     28.245994     28.245994     56.491988
     -4.009009     25.120844     25.120844     50.241687
     -3.998999     23.117025     23.117025     46.234049
     -3.988989     22.605744     22.605744     45.211489
     -3.978979     23.651048     23.651048     47.302096
     -3.968969     26.119382     26.119382     52.238763
     -3.958959     29.786626     29.786626     59.573251
     -3.948949     34.388647     34.388647     68.777294
     -3.938939     39.627191     39.627191     79.254382
     -3.928929     45.178935     45.178935     90.357870
     -3.918919     50.738242     50.738242    101.476485
     -3.908909     56.075771     56.075771    112.151542
     -3.898899     61.061206     61.061206    122.122412
     -3.888889     65.610026     65.610026    131.220053
     -3.878879     69.565824     69.565824    139.131648
     -3.868869     72.585511     72.585511    145.171022
     -3.858859     74.114936     74.114936    148.229872
     -3.848849     73.507896     73.507896    147.015792
     -3.838839     70.265966     70.265966    140.531931
     -3.828829     64.300634     64.300634    128.601267
     -3.818819     56.089288     56.089288    112.178576
     -3.808809     46.635600     46.635600     93.271200
     -3.798799     37.234445     37.234445     74.468890
     -3.788789     29.131094     29.131094     58.262188
     -3.778779     23.204869     23.204869     46.409739
     -3.768769     19.783544     19.783544     39.567088
     -3.758759     18.630556     18.630556     37.261112
     -3.748749     19.082681     19.082681     38.165361
     -3.738739     20.278250     20.278250     40.556500
     -3.728729     21.407946     21.407946     42.815892
     -3.718719     21.929150     21.929150     43.858300
     -3.708709     21.698712     21.698712     43.397424
     -3.698699     20.994373     20.994373     41.988747
     -3.688689     20.414942     20.414942     40.829885
     -3.678679     20.676949     20.676949     41.353898
     -3.668669     22.358522     22.358522     44.717043
     -3.658659     25.669143     25.669143     51.338286
     -3.648649     30.330053     30.330053     60.660106
     -3.638639     35.620526     35.620526     71.241052
     -3.628629     40.582501     40.582501     81.165001
     -3.618619     44.306232     44.306232     88.612464
     -3.608609     46.182557     46.182557     92.365113
     -3.598599     46.028607     46.028607     92.057214
     -3.588589     44.061676     44.061676     88.123353
     -3.578579     40.765990     40.765990     81.531980
     -3.568569     36.726751     36.726751     73.453501
     -3.558559     32.488097     32.488097     64.976194
     -3.548549     28.455923     28.455923     56.911845
     -3.538539     24.846470     24.846470     49.692941
     -3.528529     21.683296     21.683296     43.366591
     -3.518519     18.848197     18.848197     37.696395
     -3.508509     16.177393     16.177393     32.354787
     -3.498498     13.568740     13.568740     27.137480
     -3.488488     11.053156     11.053156     22.106312
     -3.478478      8.798942      8.798942     17.597884
     -3.468468      7.051852      7.051852     14.103704
     -3.458458      6.042054      6.042054     12.084108
     -3.448448      5.895745      5.895745     11.791489
     -3.438438      6.578508      6.578508     13.157015
     -3.428428      7.884411      7.884411     15.768822
     -3.418418      9.476915      9.476915     18.953829
     -3.408408     10.979312     10.979312     21.958624
     -3.398398     12.095777     12.095777     24.191553
     -3.388388     12.723223     12.723223     25.446445
     -3.378378     13.005609     13.005609     26.011218
     -3.368368     13.300015     13.300015     26.600029
     -3.358358     14.062788     14.062788     28.125576
     -3.348348     15.700549     15.700549     31.401098
     -3.338338     18.440369     18.440369     36.880738
     -3.328328     22.252501     22.252501     44.505003
     -3.318318     26.828503     26.828503     53.657005
     -3.308308     31.604419     31.604419     63.208839
     -3.298298     35.829634     35.829634     71.659268
     -3.288288     38.695238     38.695238     77.390477
     -3.278278     39.522275     39.522275     79.044550
     -3.268268     37.966291     37.966291     75.932583
     -3.258258     34.153980     34.153980     68.307960
     -3.248248     28.673914     28.673914     57.347828
     -3.238238     22.407056     22.407056     44.814112
     -3.228228     16.265595     16.265595     32.531191
     -3.218218     10.953508     10.953508     21.907016
     -3.208208      6.840490      6.840490     13.680979
     -3.198198      3.973586      3.973586      7.947172
     -3.188188      2.185993      2.185993      4.371987
     -3.178178      1.235758      1.235758      2.471515
     -3.168168      0.920351      0.920351      1.840702
     -3.158158      1.143520      1.143520      2.287040
     -3.148148      1.934310      1.934310      3.868621
     -3.138138      3.425595      3.425595      6.851191
     -3.128128      5.797142      5.797142     11.594284
     -3.118118      9.188750      9.188750     18.377500
     -3.108108     13.599817     13.599817     27.199634
     -3.098098     18.809079     18.809079     37.618157
     -3.088088     24.358083     24.358083     48.716166
     -3.078078     29.628406     29.628406     59.256812
     -3.068068     34.001866     34.001866     68.003732
     -3.058058     37.042422     37.042422     74.084843
     -3.048048     38.611638     38.611638     77.223276
     -3.038038     38.854298     38.854298     77.708596
     -3.028028     38.062902     38.062902     76.125804
     -3.018018     36.506673     36.506673     73.013346
     -3.008008     34.336649     34.336649     68.673299
     -2.997998     31.628320     31.628320     63.256641
     -2.987988     28.527883     28.527883     57.055767
     -2.977978     25.394178     25.394178     50.788355
     -2.967968     22.827039     22.827039     45.654079
     -2.957958     21.541487     21.541487     43.082975
     -2.947948     22.136017     22.136017     44.272033
     -2.937938     24.857806     24.857806     49.715612
     -2.927928     29.465426     29.465426     58.930852
     -2.917918     35.244494     35.244494     70.488989
     -2.907908     41.172488     41.172488     82.344976
     -2.897898     46.178932     46.178932     92.357865
     -2.887888     49.418708     49.418708     98.837417
     -2.877878     50.474156     50.474156    100.948313
     -2.867868     49.425517     49.425517     98.851034
     -2.857858     46.772290     46.772290     93.544579
     -2.847848     43.237202     43.237202     86.474403
     -2.837838     39.523722     39.523722     79.047444
     -2.827828     36.113390     36.113390     72.226780
     -2.817818     33.173137     33.173137     66.346274
     -2.807808     30.598285     30.598285     61.196569
     -2.797798     28.159798     28.159798     56.319596
     -2.787788     25.679438     25.679438     51.358876
     -2.777778     23.146784     23.146784     46.293568
     -2.767768     20.725273     20.725273     41.450546
     -2.757758     18.655429     18.655429     37.310859
     -2.747748     17.119956     17.119956     34.239912
     -2.737738     16.154832     16.154832     32.309664
     -2.727728     15.659925     15.659925     31.319850
     -2.717718     15.498527     15.498527     30.997053
     -2.707708     15.616631     15.616631     31.233262
     -2.697698     16.097673     16.097673     32.195347
     -2.687688     17.109013     17.109013     34.218026
     -2.677678     18.768598     18.768598     37.537196
     -2.667668     21.017420     21.017420     42.034839
     -2.657658     23.586077     23.586077     47.172154
     -2.647648     26.086932     26.086932     52.173864
     -2.637638     28.182121     28.182121     56.364243
     -2.627628     29.726585     29.726585     59.453170
     -2.617618     30.800906     30.800906     61.601813
     -2.607608     31.621609     31.621609     63.243218
     -2.597598     32.394715     32.394715     64.789431
     -2.587588     33.205331     33.205331     66.410661
     -2.577578     33.995633     33.995633     67.991267
     -2.567568     34.613724     34.613724     69.227448
     -2.557558     34.875438     34.875438     69.750877
     -2.547548     34.599040     34.599040     69.198080
     -2.537538     33.622723     33.622723     67.245446
     -2.527528     31.843403     31.843403     63.686807
     -2.517518     29.292837     29.292837     58.585674
     -2.507508     26.215374     26.215374     52.430748
     -2.497497     23.081359     23.081359     46.162717
     -2.487487     20.493298     20.493298     40.986596
     -2.477477     19.004723     19.004723     38.009446
     -2.467467     18.929334     18.929334     37.858667
     -2.457457     20.232141     20.232141     40.464282
     -2.447447     22.557611     22.557611     45.115222
     -2.437437     25.384505     25.384505     50.769010
     -2.427427     28.236791     28.236791     56.473582
     -2.417417     30.852851     30.852851     61.705702
     -2.407407     33.233752     33.233752     66.467503
     -2.397397     35.548224     35.548224     71.096448
     -2.387387     37.941729     37.941729     75.883457
     -2.377377     40.346653     40.346653     80.693305
     -2.367367     42.395393     42.395393     84.790785
     -2.357357     43.493351     43.493351     86.986703
     -2.347347     43.033437     43.033437     86.066874
     -2.337337     40.662326     40.662326     81.324652
     -2.327327     36.477950     36.477950     72.955899
     -2.317317     31.066193     31.066193     62.132385
     -2.307307     25.359692     25.359692     50.719383
     -2.297297     20.381902     20.381902     40.763805
     -2.287287     16.981501     16.981501     33.963002
     -2.277277     15.648656     15.648656     31.297313
     -2.267267     16.454332     16.454332     32.908665
     -2.257257     19.101589     19.101589     38.203178
     -2.247247     23.047671     23.047671     46.095342
     -2.237237     27.648770     27.648770     55.297539
     -2.227227     32.285425     32.285425     64.570849
     -2.217217     36.439381     36.439381     72.878763
     -2.207207     39.713459     39.713459     79.426918
     -2.197197     41.812882     41.812882     83.625765
     -2.187187     42.526960     42.526960     85.053920
     -2.177177     41.746526     41.746526     83.493052
     -2.167167     39.520081     39.520081     79.040163
     -2.157157     36.108661     36.108661     72.217323
     -2.147147     31.979689     31.979689     63.959378
     -2.137137     27.705850     27.705850     55.411699
     -2.127127     23.795297     23.795297     47.590594
     -2.117117     20.532760     20.532760     41.065521
     -2.107107     17.916045     17.916045     35.832089
     -2.097097     15.721232     15.721232     31.442465
     -2.087087     13.656428     13.656428     27.312855
     -2.077077     11.517745     11.517745     23.035489
     -2.067067      9.270564      9.270564     18.541128
     -2.057057      7.031622      7.031622     14.063244
     -2.047047      4.984203      4.984203      9.968407
     -2.037037      3.284765      3.284765      6.569530
     -2.027027      2.006951      2.006951      4.013902
     -2.017017      1.136147      1.136147      2.272295
     -2.007007      0.599506      0.599506      1.199011
     -1.996997      0.306569      0.306569      0.613138
     -1.986987      0.182254      0.182254      0.364508
     -1.976977      0.186267      0.186267      0.372534
     -1.966967      0.321585      0.321585      0.643169
     -1.956957      0.635977      0.635977      1.271953
     -1.946947      1.216820      1.216820      2.433641
     -1.936937      2.175250      2.175250      4.350500
     -1.926927      3.615608      3.615608      7.231217
     -1.916917      5.592271      5.592271     11.184543
     -1.906907      8.065897      8.065897     16.131794
     -1.896897     10.878425     10.878425     21.756850
     -1.886887     13.763710     13.763710     27.527420
     -1.876877     16.397297     16.397297     32.794595
     -1.866867     18.471617     18.471617     36.943234
     -1.856857     19.772225     19.772225     39.544451
     -1.846847     20.231457     20.231457     40.462914
     -1.836837     19.943886     19.943886     39.887771
     -1.826827     19.136768     19.136768     38.273536
     -1.816817     18.097909     18.097909     36.195818
     -1.806807     17.077503     17.077503     34.155006
     -1.796797     16.198160     16.198160     32.396319
     -1.786787     15.415336     15.415336     30.830672
     -1.776777     14.554265     14.554265     29.108530
     -1.766767     13.410975     13.410975     26.821951
     -1.756757     11.867464     11.867464     23.734927
     -1.746747      9.962351      9.962351     19.924703
     -1.736737      7.886484      7.886484     15.772967
     -1.726727      5.918083      5.918083     11.836166
     -1.716717      4.342492      4.342492      8.684983
     -1.706707      3.398610      3.398610      6.797220
     -1.696697      3.264476      3.264476      6.528952
     -1.686687      4.061735      4.061735      8.123469
     -1.676677      5.845652      5.845652     11.691305
     -1.666667      8.561879      8.561879     17.123758
     -1.656657     11.984143     11.984143     23.968286
     -1.646647     15.677324     15.677324     31.354647
     -1.636637     19.035575     19.035575     38.071150
     -1.626627     21.415160     21.415160     42.830321
