# EIG2DOS: Utility for SIESTA to obtain the electronic density of states
#  E. Artacho, Apr 1999, A. Garcia, Apr 2012
#  Nick R. Papior, Feb 2017
# ------------------------------------------
# Eigenvalues calculated from a non-polarized calculation
# Eigenvalues read from siesta.EIG
# Kpoint weights read from siesta.KP
# Using smearing parameter:   0.0500
# Using 1000 points in the energy range
# Selected bands: 1 to: 2981
# Emin, Emax in file for selected band(s):    -27.1888294    218.3437470
# Nbands, Nspin, Nk   =   2981     1     1
# E_F                 =    -4.2633 eV --> (shifted to ZERO)
# Broadening          =     0.0500 eV
#
#        E            N(up)  (=)   N(down)         Ntot
     -5.000000     35.477061     35.477061     70.954122
     -4.989990     38.764631     38.764631     77.529263
     -4.979980     41.336249     41.336249     82.672498
     -4.969970     42.814288     42.814288     85.628576
     -4.959960     42.979179     42.979179     85.958357
     -4.949950     41.825036     41.825036     83.650072
     -4.939940     39.571343     39.571343     79.142686
     -4.929930     36.637283     36.637283     73.274567
     -4.919920     33.596202     33.596202     67.192404
     -4.909910     31.119972     31.119972     62.239944
     -4.899900     29.902781     29.902781     59.805563
     -4.889890     30.540434     30.540434     61.080868
     -4.879880     33.356579     33.356579     66.713157
     -4.869870     38.215159     38.215159     76.430319
     -4.859860     44.410869     44.410869     88.821738
     -4.849850     50.738784     50.738784    101.477568
     -4.839840     55.780708     55.780708    111.561417
     -4.829830     58.330820     58.330820    116.661640
     -4.819820     57.787137     57.787137    115.574274
     -4.809810     54.329536     54.329536    108.659073
     -4.799800     48.805164     48.805164     97.610327
     -4.789790     42.389347     42.389347     84.778694
     -4.779780     36.191697     36.191697     72.383393
     -4.769770     30.974871     30.974871     61.949742
     -4.759760     27.064096     27.064096     54.128192
     -4.749750     24.419081     24.419081     48.838162
     -4.739740     22.781162     22.781162     45.562325
     -4.729730     21.813150     21.813150     43.626300
     -4.719720     21.189654     21.189654     42.379308
     -4.709710     20.635914     20.635914     41.271829
     -4.699700     19.936404     19.936404     39.872809
     -4.689690     18.940943     18.940943     37.881887
     -4.679680     17.589084     17.589084     35.178168
     -4.669670     15.955362     15.955362     31.910723
     -4.659660     14.295591     14.295591     28.591183
     -4.649650     13.060685     13.060685     26.121371
     -4.639640     12.848770     12.848770     25.697541
     -4.629630     14.286478     14.286478     28.572956
     -4.619620     17.856131     17.856131     35.712262
     -4.609610     23.709349     23.709349     47.418698
     -4.599600     31.525675     31.525675     63.051350
     -4.589590     40.480494     40.480494     80.960988
     -4.579580     49.367625     49.367625     98.735249
     -4.569570     56.872038     56.872038    113.744076
     -4.559560     61.921399     61.921399    123.842797
     -4.549550     63.995520     63.995520    127.991041
     -4.539540     63.272927     63.272927    126.545854
     -4.529530     60.550701     60.550701    121.101402
     -4.519520     56.962992     56.962992    113.925983
     -4.509510     53.603612     53.603612    107.207224
     -4.499499     51.193209     51.193209    102.386418
     -4.489489     49.907399     49.907399     99.814798
     -4.479479     49.411241     49.411241     98.822483
     -4.469469     49.060835     49.060835     98.121670
     -4.459459     48.173724     48.173724     96.347448
     -4.449449     46.260870     46.260870     92.521740
     -4.439439     43.151422     43.151422     86.302844
     -4.429429     39.000402     39.000402     78.000804
     -4.419419     34.215353     34.215353     68.430706
     -4.409409     29.350992     29.350992     58.701983
     -4.399399     25.004066     25.004066     50.008132
     -4.389389     21.715136     21.715136     43.430273
     -4.379379     19.873092     19.873092     39.746184
     -4.369369     19.629682     19.629682     39.259364
     -4.359359     20.851973     20.851973     41.703946
     -4.349349     23.146794     23.146794     46.293589
     -4.339339     25.969358     25.969358     51.938715
     -4.329329     28.787465     28.787465     57.574929
     -4.319319     31.239700     31.239700     62.479401
     -4.309309     33.224089     33.224089     66.448179
     -4.299299     34.884798     34.884798     69.769596
     -4.289289     36.508122     36.508122     73.016244
     -4.279279     38.370138     38.370138     76.740276
     -4.269269     40.587280     40.587280     81.174559
     -4.259259     43.016127     43.016127     86.032255
     -4.249249     45.240559     45.240559     90.481117
     -4.239239     46.669600     46.669600     93.339200
     -4.229229     46.735229     46.735229     93.470457
     -4.219219     45.127066     45.127066     90.254131
     -4.209209     41.959765     41.959765     83.919531
     -4.199199     37.778924     37.778924     75.557847
     -4.189189     33.384289     33.384289     66.768579
     -4.179179     29.547296     29.547296     59.094591
     -4.169169     26.759374     26.759374     53.518748
     -4.159159     25.127791     25.127791     50.255583
     -4.149149     24.451642     24.451642     48.903284
     -4.139139     24.417135     24.417135     48.834270
     -4.129129     24.800213     24.800213     49.600426
     -4.119119     25.573243     25.573243     51.146486
     -4.109109     26.866230     26.866230     53.732461
     -4.099099     28.805016     28.805016     57.610032
     -4.089089     31.312960     31.312960     62.625920
     -4.079079     33.992439     33.992439     67.984877
     -4.069069     36.175601     36.175601     72.351203
     -4.059059     37.149926     37.149926     74.299851
     -4.049049     36.461426     36.461426     72.922852
     -4.039039     34.140478     34.140478     68.280956
     -4.029029     30.727420     30.727420     61.454840
     -4.019019     27.083964     27.083964     54.167929
     -4.009009     24.093206     24.093206     48.186411
     -3.998999     22.400263     22.400263     44.800527
     -3.988989     22.300849     22.300849     44.601697
     -3.978979     23.785239     23.785239     47.570478
     -3.968969     26.661640     26.661640     53.323281
     -3.958959     30.666126     30.666126     61.332252
     -3.948949     35.513102     35.513102     71.026204
     -3.938939     40.903232     40.903232     81.806465
     -3.928929     46.533993     46.533993     93.067985
     -3.918919     52.135779     52.135779    104.271558
     -3.908909     57.511410     57.511410    115.022819
     -3.898899     62.533192     62.533192    125.066384
     -3.888889     67.073137     67.073137    134.146274
     -3.878879     70.893839     70.893839    141.787679
     -3.868869     73.570973     73.570973    147.141946
     -3.858859     74.519467     74.519467    149.038934
     -3.848849     73.148215     73.148215    146.296429
     -3.838839     69.096993     69.096993    138.193986
     -3.828829     62.454165     62.454165    124.908330
     -3.818819     53.847815     53.847815    107.695630
     -3.808809     44.353003     44.353003     88.706006
     -3.798799     35.238673     35.238673     70.477345
     -3.788789     27.646454     27.646454     55.292907
     -3.778779     22.315936     22.315936     44.631872
     -3.768769     19.441869     19.441869     38.883738
     -3.758759     18.691408     18.691408     37.382816
     -3.748749     19.355691     19.355691     38.711382
     -3.738739     20.579106     20.579106     41.158212
     -3.728729     21.602419     21.602419     43.204839
     -3.718719     21.962867     21.962867     43.925733
     -3.708709     21.606956     21.606956     43.213911
     -3.698699     20.888156     20.888156     41.776312
     -3.688689     20.444132     20.444132     40.888263
     -3.678679     20.978200     20.978200     41.956400
     -3.668669     23.002888     23.002888     46.005776
     -3.658659     26.627781     26.627781     53.255563
     -3.648649     31.472706     31.472706     62.945412
     -3.638639     36.749723     36.749723     73.499446
     -3.628629     41.491004     41.491004     82.982007
     -3.618619     44.834618     44.834618     89.669236
     -3.608609     46.254903     46.254903     92.509807
     -3.598599     45.656821     45.656821     91.313642
     -3.588589     43.324755     43.324755     86.649510
     -3.578579     39.779290     39.779290     79.558579
     -3.568569     35.614257     35.614257     71.228514
     -3.558559     31.362522     31.362522     62.725044
     -3.548549     27.405336     27.405336     54.810672
     -3.538539     23.925938     23.925938     47.851876
     -3.528529     20.912854     20.912854     41.825709
     -3.518519     18.219237     18.219237     36.438474
     -3.508509     15.666290     15.666290     31.332579
     -3.498498     13.152324     13.152324     26.304648
     -3.488488     10.719371     10.719371     21.438742
     -3.478478      8.548976      8.548976     17.097951
     -3.468468      6.894639      6.894639     13.789278
     -3.458458      5.985094      5.985094     11.970187
     -3.448448      5.936498      5.936498     11.872995
     -3.438438      6.699391      6.699391     13.398783
     -3.428428      8.053197      8.053197     16.106393
     -3.418418      9.653317      9.653317     19.306633
     -3.408408     11.126966     11.126966     22.253931
     -3.398398     12.196417     12.196417     24.392835
     -3.388388     12.787945     12.787945     25.575890
     -3.378378     13.078385     13.078385     26.156769
     -3.368368     13.451483     13.451483     26.902965
     -3.358358     14.375832     14.375832     28.751663
     -3.348348     16.250807     16.250807     32.501614
     -3.338338     19.274176     19.274176     38.548352
     -3.328328     23.364239     23.364239     46.728479
     -3.318318     28.142131     28.142131     56.284262
     -3.308308     32.969625     32.969625     65.939251
     -3.298298     37.046196     37.046196     74.092392
     -3.288288     39.573018     39.573018     79.146037
     -3.278278     39.967672     39.967672     79.935344
     -3.268268     38.067092     38.067092     76.134184
     -3.258258     34.225865     34.225865     68.451729
     -3.248248     29.240428     29.240428     58.480857
     -3.238238     24.106759     24.106759     48.213519
     -3.228228     19.704783     19.704783     39.409566
     -3.218218     16.541999     16.541999     33.083998
     -3.208208     14.658626     14.658626     29.317253
     -3.198198     13.718835     13.718835     27.437669
     -3.188188     13.232328     13.232328     26.464656
     -3.178178     12.804796     12.804796     25.609592
     -3.168168     12.317483     12.317483     24.634966
     -3.158158     11.975691     11.975691     23.951383
     -3.148148     12.221299     12.221299     24.442598
     -3.138138     13.551929     13.551929     27.103859
     -3.128128     16.314277     16.314277     32.628555
     -3.118118     20.539293     20.539293     41.078585
     -3.108108     25.869665     25.869665     51.739330
     -3.098098     31.603613     31.603613     63.207226
     -3.088088     36.847721     36.847721     73.695441
     -3.078078     40.738779     40.738779     81.477558
     -3.068068     42.667774     42.667774     85.335549
     -3.058058     42.430619     42.430619     84.861238
     -3.048048     40.250357     40.250357     80.500714
     -3.038038     36.663474     36.663474     73.326948
     -3.028028     32.320778     32.320778     64.641555
     -3.018018     27.791652     27.791652     55.583304
     -3.008008     23.454989     23.454989     46.909979
     -2.997998     19.510487     19.510487     39.020973
     -2.987988     16.078740     16.078740     32.157479
     -2.977978     13.316875     13.316875     26.633749
     -2.967968     11.479922     11.479922     22.959843
     -2.957958     10.896719     10.896719     21.793438
     -2.947948     11.873578     11.873578     23.747157
     -2.937938     14.566160     14.566160     29.132319
     -2.927928     18.866703     18.866703     37.733406
     -2.917918     24.348783     24.348783     48.697567
     -2.907908     30.300270     30.300270     60.600539
     -2.897898     35.853665     35.853665     71.707331
     -2.887888     40.188970     40.188970     80.377941
     -2.877878     42.747461     42.747461     85.494922
     -2.867868     43.376215     43.376215     86.752431
     -2.857858     42.340461     42.340461     84.680922
     -2.847848     40.192827     40.192827     80.385654
     -2.837838     37.552419     37.552419     75.104838
     -2.827828     34.889056     34.889056     69.778112
     -2.817818     32.404888     32.404888     64.809776
     -2.807808     30.056414     30.056414     60.112828
     -2.797798     27.689385     27.689385     55.378770
     -2.787788     25.204332     25.204332     50.408665
     -2.777778     22.660898     22.660898     45.321797
     -2.767768     20.269551     20.269551     40.539102
     -2.757758     18.286704     18.286704     36.573408
     -2.747748     16.885015     16.885015     33.770030
     -2.737738     16.082063     16.082063     32.164126
     -2.727728     15.770436     15.770436     31.540872
     -2.717718     15.824684     15.824684     31.649368
     -2.707708     16.208356     16.208356     32.416712
     -2.697698     17.002600     17.002600     34.005201
     -2.687688     18.330339     18.330339     36.660678
     -2.677678     20.223846     20.223846     40.447691
     -2.667668     22.528574     22.528574     45.057148
     -2.657658     24.918681     24.918681     49.837361
     -2.647648     27.027703     27.027703     54.055405
     -2.637638     28.618690     28.618690     57.237380
     -2.627628     29.687653     29.687653     59.375307
     -2.617618     30.436225     30.436225     60.872451
     -2.607608     31.135239     31.135239     62.270479
     -2.597598     31.968515     31.968515     63.937031
     -2.587588     32.947377     32.947377     65.894755
     -2.577578     33.925741     33.925741     67.851481
     -2.567568     34.675679     34.675679     69.351357
     -2.557558     34.959685     34.959685     69.919370
     -2.547548     34.569261     34.569261     69.138522
     -2.537538     33.349836     33.349836     66.699672
     -2.527528     31.248009     31.248009     62.496018
     -2.517518     28.384352     28.384352     56.768705
     -2.507508     25.107144     25.107144     50.214288
     -2.497497     21.967381     21.967381     43.934763
     -2.487487     19.591419     19.591419     39.182837
     -2.477477     18.489650     18.489650     36.979299
     -2.467467     18.884047     18.884047     37.768093
     -2.457457     20.635898     20.635898     41.271795
     -2.447447     23.310450     23.310450     46.620901
     -2.437437     26.352405     26.352405     52.704811
     -2.427427     29.295382     29.295382     58.590764
     -2.417417     31.912006     31.912006     63.824012
     -2.407407     34.236874     34.236874     68.473747
     -2.397397     36.452445     36.452445     72.904889
     -2.387387     38.693044     38.693044     77.386088
     -2.377377     40.864850     40.864850     81.729700
     -2.367367     42.578591     42.578591     85.157183
     -2.357357     43.243649     43.243649     86.487298
     -2.347347     42.295684     42.295684     84.591368
     -2.337337     39.460149     39.460149     78.920299
     -2.327327     34.928928     34.928928     69.857855
     -2.317317     29.365018     29.365018     58.730036
     -2.307307     23.732707     23.732707     47.465413
     -2.297297     19.030716     19.030716     38.061432
     -2.287287     16.038587     16.038587     32.077175
     -2.277277     15.160770     15.160770     30.321540
     -2.267267     16.395200     16.395200     32.790399
     -2.257257     19.402171     19.402171     38.804342
     -2.247247     23.626574     23.626574     47.253148
     -2.237237     28.428583     28.428583     56.857166
     -2.227227     33.190434     33.190434     66.380867
     -2.217217     37.381660     37.381660     74.763320
     -2.207207     40.582037     40.582037     81.164074
     -2.197197     42.479904     42.479904     84.959807
     -2.187187     42.874885     42.874885     85.749771
     -2.177177     41.706550     41.706550     83.413099
     -2.167167     39.102324     39.102324     78.204649
     -2.157157     35.405865     35.405865     70.811729
     -2.147147     31.138335     31.138335     62.276669
     -2.137137     26.875488     26.875488     53.750977
     -2.127127     23.078797     23.078797     46.157594
     -2.117117     19.960098     19.960098     39.920195
     -2.107107     17.451855     17.451855     34.903709
     -2.097097     15.298773     15.298773     30.597547
     -2.087087     13.218138     13.218138     26.436275
     -2.077077     11.042090     11.042090     22.084179
     -2.067067      8.775399      8.775399     17.550799
     -2.057057      6.558163      6.558163     13.116326
     -2.047047      4.574366      4.574366      9.148732
     -2.037037      2.964335      2.964335      5.928670
     -2.027027      1.780324      1.780324      3.560649
     -2.017017      0.990973      0.990973      1.981946
     -2.007007      0.515698      0.515698      1.031396
     -1.996997      0.264602      0.264602      0.529204
     -1.986987      0.168342      0.168342      0.336684
     -1.976977      0.194539      0.194539      0.389079
     -1.966967      0.354381      0.354381      0.708763
     -1.956957      0.703052      0.703052      1.406103
     -1.946947      1.333321      1.333321      2.666642
     -1.936937      2.357847      2.357847      4.715694
     -1.926927      3.876675      3.876675      7.753349
     -1.916917      5.933545      5.933545     11.867089
     -1.906907      8.474895      8.474895     16.949790
     -1.896897     11.331770     11.331770     22.663539
     -1.886887     14.240636     14.240636     28.481271
     -1.876877     16.904024     16.904024     33.808049
     -1.866867     19.073687     19.073687     38.147375
     -1.856857     20.627634     20.627634     41.255268
     -1.846847     21.612362     21.612362     43.224724
     -1.836837     22.229951     22.229951     44.459902
     -1.826827     22.763283     22.763283     45.526566
     -1.816817     23.452884     23.452884     46.905767
     -1.806807     24.365761     24.365761     48.731522
     -1.796797     25.317846     25.317846     50.635692
     -1.786787     25.904897     25.904897     51.809795
     -1.776777     25.650225     25.650225     51.300451
     -1.766767     24.210912     24.210912     48.421823
     -1.756757     21.541765     21.541765     43.083531
     -1.746747     17.933154     17.933154     35.866309
     -1.736737     13.908310     13.908310     27.816619
     -1.726727     10.041514     10.041514     20.083029
     -1.716717      6.791414      6.791414     13.582828
     -1.706707      4.418410      4.418410      8.836820
     -1.696697      2.996975      2.996975      5.993950
     -1.686687      2.483391      2.483391      4.966783
     -1.676677      2.782857      2.782857      5.565714
     -1.666667      3.777307      3.777307      7.554615
     -1.656657      5.309630      5.309630     10.619260
     -1.646647      7.151026      7.151026     14.302051
     -1.636637      8.991383      8.991383     17.982765
     -1.626627     10.481570     10.481570     20.963141
