# EIG2DOS: Utility for SIESTA to obtain the electronic density of states
#  E. Artacho, Apr 1999, A. Garcia, Apr 2012
#  Nick R. Papior, Feb 2017
# ------------------------------------------
# Eigenvalues calculated from a non-polarized calculation
# Eigenvalues read from siesta.EIG
# Kpoint weights read from siesta.KP
# Using smearing parameter:   0.0500
# Using 1000 points in the energy range
# Selected bands: 1 to: 2981
# Emin, Emax in file for selected band(s):    -27.0329446    218.3027950
# Nbands, Nspin, Nk   =   2981     1     1
# E_F                 =    -4.3068 eV --> (shifted to ZERO)
# Broadening          =     0.0500 eV
#
#        E            N(up)  (=)   N(down)         Ntot
     -5.000000     41.992059     41.992059     83.984118
     -4.989990     46.787265     46.787265     93.574530
     -4.979980     50.502918     50.502918    101.005835
     -4.969970     52.613371     52.613371    105.226743
     -4.959960     52.798014     52.798014    105.596028
     -4.949950     51.046414     51.046414    102.092828
     -4.939940     47.686626     47.686626     95.373252
     -4.929930     43.332405     43.332405     86.664811
     -4.919920     38.779247     38.779247     77.558495
     -4.909910     34.888137     34.888137     69.776274
     -4.899900     32.474211     32.474211     64.948422
     -4.889890     32.185858     32.185858     64.371715
     -4.879880     34.353216     34.353216     68.706433
     -4.869870     38.822814     38.822814     77.645628
     -4.859860     44.855208     44.855208     89.710416
     -4.849850     51.189510     51.189510    102.379020
     -4.839840     56.327502     56.327502    112.655004
     -4.829830     58.972477     58.972477    117.944954
     -4.819820     58.447283     58.447283    116.894566
     -4.809810     54.897050     54.897050    109.794101
     -4.799800     49.181840     49.181840     98.363680
     -4.789790     42.523800     42.523800     85.047601
     -4.779780     36.088831     36.088831     72.177662
     -4.769770     30.684971     30.684971     61.369941
     -4.759760     26.663615     26.663615     53.327231
     -4.749750     23.992996     23.992996     47.985992
     -4.739740     22.409554     22.409554     44.819108
     -4.729730     21.560235     21.560235     43.120470
     -4.719720     21.094471     21.094471     42.188942
     -4.709710     20.706914     20.706914     41.413829
     -4.699700     20.152352     20.152352     40.304704
     -4.689690     19.256909     19.256909     38.513819
     -4.679680     17.942497     17.942497     35.884994
     -4.669670     16.267147     16.267147     32.534294
     -4.659660     14.465836     14.465836     28.931671
     -4.649650     12.963669     12.963669     25.927339
     -4.639640     12.334622     12.334622     24.669245
     -4.629630     13.194106     13.194106     26.388212
     -4.619620     16.035336     16.035336     32.070672
     -4.609610     21.042365     21.042365     42.084730
     -4.599600     27.935073     27.935073     55.870146
     -4.589590     35.916469     35.916469     71.832938
     -4.579580     43.782956     43.782956     87.565911
     -4.569570     50.208375     50.208375    100.416749
     -4.559560     54.131744     54.131744    108.263487
     -4.549550     55.107582     55.107582    110.215164
     -4.539540     53.466548     53.466548    106.933097
     -4.529530     50.203062     50.203062    100.406123
     -4.519520     46.625594     46.625594     93.251188
     -4.509510     43.910641     43.910641     87.821283
     -4.499499     42.737129     42.737129     85.474258
     -4.489489     43.130450     43.130450     86.260900
     -4.479479     44.546469     44.546469     89.092937
     -4.469469     46.129400     46.129400     92.258801
     -4.459459     47.026216     47.026216     94.052431
     -4.449449     46.646297     46.646297     93.292594
     -4.439439     44.800919     44.800919     89.601837
     -4.429429     41.712023     41.712023     83.424046
     -4.419419     37.918735     37.918735     75.837470
     -4.409409     34.124308     34.124308     68.248615
     -4.399399     31.022750     31.022750     62.045499
     -4.389389     29.137001     29.137001     58.274003
     -4.379379     28.698292     28.698292     57.396584
     -4.369369     29.596450     29.596450     59.192900
     -4.359359     31.422228     31.422228     62.844456
     -4.349349     33.597687     33.597687     67.195375
     -4.339339     35.556461     35.556461     71.112923
     -4.329329     36.911663     36.911663     73.823325
     -4.319319     37.552605     37.552605     75.105211
     -4.309309     37.642833     37.642833     75.285666
     -4.299299     37.533263     37.533263     75.066525
     -4.289289     37.631735     37.631735     75.263470
     -4.279279     38.271641     38.271641     76.543281
     -4.269269     39.605647     39.605647     79.211295
     -4.259259     41.536575     41.536575     83.073150
     -4.249249     43.699814     43.699814     87.399628
     -4.239239     45.521426     45.521426     91.042852
     -4.229229     46.367671     46.367671     92.735342
     -4.219219     45.760120     45.760120     91.520240
     -4.209209     43.575351     43.575351     87.150702
     -4.199199     40.125914     40.125914     80.251828
     -4.189189     36.063374     36.063374     72.126749
     -4.179179     32.138155     32.138155     64.276311
     -4.169169     28.933550     28.933550     57.867099
     -4.159159     26.704614     26.704614     53.409228
     -4.149149     25.388775     25.388775     50.777550
     -4.139139     24.758906     24.758906     49.517812
     -4.129129     24.620309     24.620309     49.240618
     -4.119119     24.941918     24.941918     49.883836
     -4.109109     25.853657     25.853657     51.707314
     -4.099099     27.511358     27.511358     55.022716
     -4.089089     29.900277     29.900277     59.800555
     -4.079079     32.690283     32.690283     65.380566
     -4.069069     35.244499     35.244499     70.488999
     -4.059059     36.810637     36.810637     73.621273
     -4.049049     36.820085     36.820085     73.640169
     -4.039039     35.145828     35.145828     70.291657
     -4.029029     32.181017     32.181017     64.362035
     -4.019019     28.697039     28.697039     57.394079
     -4.009009     25.562722     25.562722     51.125444
     -3.998999     23.473903     23.473903     46.947807
     -3.988989     22.814271     22.814271     45.628543
     -3.978979     23.672170     23.672170     47.344340
     -3.968969     25.946221     25.946221     51.892442
     -3.958959     29.445143     29.445143     58.890286
     -3.948949     33.929845     33.929845     67.859690
     -3.938939     39.113116     39.113116     78.226233
     -3.928929     44.667484     44.667484     89.334969
     -3.918919     50.272105     50.272105    100.544211
     -3.908909     55.678765     55.678765    111.357530
     -3.898899     60.741994     60.741994    121.483988
     -3.888889     65.370276     65.370276    130.740552
     -3.878879     69.408264     69.408264    138.816528
     -3.868869     72.517681     72.517681    145.035363
     -3.858859     74.146711     74.146711    148.293421
     -3.848849     73.644213     73.644213    147.288427
     -3.838839     70.498928     70.498928    140.997856
     -3.828829     64.605620     64.605620    129.211239
     -3.818819     56.427592     56.427592    112.855184
     -3.808809     46.962705     46.962705     93.925409
     -3.798799     37.510445     37.510445     75.020890
     -3.788789     29.329330     29.329330     58.658660
     -3.778779     23.316293     23.316293     46.632587
     -3.768769     19.816400     19.816400     39.632799
     -3.758759     18.606417     18.606417     37.212834
     -3.748749     19.030374     19.030374     38.060747
     -3.738739     20.227078     20.227078     40.454156
     -3.728729     21.381448     21.381448     42.762896
     -3.718719     21.940496     21.940496     43.880992
     -3.708709     21.748605     21.748605     43.497210
     -3.698699     21.071828     21.071828     42.143656
     -3.688689     20.500636     20.500636     41.001273
     -3.678679     20.748244     20.748244     41.496487
     -3.668669     22.394956     22.394956     44.789912
     -3.658659     25.657269     25.657269     51.314537
     -3.648649     30.266718     30.266718     60.533436
     -3.638639     35.514009     35.514009     71.028018
     -3.628629     40.451181     40.451181     80.902363
     -3.618619     44.174910     44.174910     88.349819
     -3.608609     46.077042     46.077042     92.154084
     -3.598599     45.969799     45.969799     91.939599
     -3.588589     44.060698     44.060698     88.121396
     -3.578579     40.821862     40.821862     81.643724
     -3.568569     36.827454     36.827454     73.654909
     -3.558559     32.614721     32.614721     65.229442
     -3.548549     28.588430     28.588430     57.176860
     -3.538539     24.968953     24.968953     49.937906
     -3.528529     21.786899     21.786899     43.573797
     -3.518519     18.931052     18.931052     37.862104
     -3.508509     16.242299     16.242299     32.484597
     -3.498498     13.620152     13.620152     27.240303
     -3.488488     11.094931     11.094931     22.189862
     -3.478478      8.833480      8.833480     17.666959
     -3.468468      7.080359      7.080359     14.160717
     -3.458458      6.065200      6.065200     12.130401
     -3.448448      5.914071      5.914071     11.828142
     -3.438438      6.592335      6.592335     13.184670
     -3.428428      7.893406      7.893406     15.786812
     -3.418418      9.479626      9.479626     18.959252
     -3.408408     10.972958     10.972958     21.945917
     -3.398398     12.076473     12.076473     24.152946
     -3.388388     12.686719     12.686719     25.373439
     -3.378378     12.948519     12.948519     25.897038
     -3.368368     13.221299     13.221299     26.442598
     -3.358358     13.964990     13.964990     27.929980
     -3.348348     15.590096     15.590096     31.180192
     -3.338338     18.326534     18.326534     36.653068
     -3.328328     22.145339     22.145339     44.290678
     -3.318318     26.736817     26.736817     53.473633
     -3.308308     31.534890     31.534890     63.069780
     -3.298298     35.787331     35.787331     71.574661
     -3.288288     38.684515     38.684515     77.369031
     -3.278278     39.546613     39.546613     79.093225
     -3.268268     38.026550     38.026550     76.053099
     -3.258258     34.246120     34.246120     68.492240
     -3.248248     28.788082     28.788082     57.576164
     -3.238238     22.529216     22.529216     45.058431
     -3.228228     16.381187     16.381187     32.762375
     -3.218218     11.051284     11.051284     22.102568
     -3.208208      6.914649      6.914649     13.829299
     -3.198198      4.023467      4.023467      8.046933
     -3.188188      2.213830      2.213830      4.427660
     -3.178178      1.243687      1.243687      2.487374
     -3.168168      0.907763      0.907763      1.815525
     -3.158158      1.105596      1.105596      2.211192
     -3.148148      1.862626      1.862626      3.725252
     -3.138138      3.312005      3.312005      6.624010
     -3.128128      5.642408      5.642408     11.284816
     -3.118118      9.016575      9.016575     18.033151
     -3.108108     13.474385     13.474385     26.948771
     -3.098098     18.849848     18.849848     37.699696
     -3.088088     24.740844     24.740844     49.481689
     -3.078078     30.559865     30.559865     61.119730
     -3.068068     35.660489     35.660489     71.320978
     -3.058058     39.493377     39.493377     78.986754
     -3.048048     41.724594     41.724594     83.449188
     -3.038038     42.267988     42.267988     84.535976
     -3.028028     41.234845     41.234845     82.469690
     -3.018018     38.853568     38.853568     77.707137
     -3.008008     35.422408     35.422408     70.844817
     -2.997998     31.320785     31.320785     62.641569
     -2.987988     27.048790     27.048790     54.097580
     -2.977978     23.233869     23.233869     46.467738
     -2.967968     20.560518     20.560518     41.121036
     -2.957958     19.627893     19.627893     39.255785
     -2.947948     20.785445     20.785445     41.570889
     -2.937938     24.011212     24.011212     48.022425
     -2.927928     28.879560     28.879560     57.759120
     -2.917918     34.631440     34.631440     69.262881
     -2.907908     40.328711     40.328711     80.657422
     -2.897898     45.053472     45.053472     90.106943
     -2.887888     48.104294     48.104294     96.208588
     -2.877878     49.141235     49.141235     98.282469
     -2.867868     48.240434     48.240434     96.480869
     -2.857858     45.838806     45.838806     91.677612
     -2.847848     42.580070     42.580070     85.160140
     -2.837838     39.108536     39.108536     78.217071
     -2.827828     35.881918     35.881918     71.763835
     -2.817818     33.072992     33.072992     66.145983
     -2.807808     30.595735     30.595735     61.191470
     -2.797798     28.236539     28.236539     56.473078
     -2.787788     25.821672     25.821672     51.643344
     -2.777778     23.335888     23.335888     46.671775
     -2.767768     20.935322     20.935322     41.870645
     -2.757758     18.857277     18.857277     37.714554
     -2.747748     17.287640     17.287640     34.575280
     -2.737738     16.269543     16.269543     32.539087
     -2.727728     15.709332     15.709332     31.418665
     -2.717718     15.473065     15.473065     30.946129
     -2.707708     15.506886     15.506886     31.013772
     -2.697698     15.896577     15.896577     31.793153
     -2.687688     16.819223     16.819223     33.638446
     -2.677678     18.411123     18.411123     36.822246
     -2.667668     20.635087     20.635087     41.270174
     -2.657658     23.237023     23.237023     46.474047
     -2.647648     25.828626     25.828626     51.657252
     -2.637638     28.052501     28.052501     56.105002
     -2.627628     29.731547     29.731547     59.463093
     -2.617618     30.914347     30.914347     61.828694
     -2.607608     31.797302     31.797302     63.594604
     -2.597598     32.583237     32.583237     65.166473
     -2.587588     33.368115     33.368115     66.736230
     -2.577578     34.111995     34.111995     68.223990
     -2.567568     34.681600     34.681600     69.363200
     -2.557558     34.908735     34.908735     69.817469
     -2.547548     34.623169     34.623169     69.246338
     -2.537538     33.667879     33.667879     67.335757
     -2.527528     31.935262     31.935262     63.870523
     -2.517518     29.442772     29.442772     58.885545
     -2.507508     26.414378     26.414378     52.828756
     -2.497497     23.301146     23.301146     46.602291
     -2.487487     20.694657     20.694657     41.389314
     -2.477477     19.149463     19.149463     38.298926
     -2.467467     18.990704     18.990704     37.981407
     -2.457457     20.199955     20.199955     40.399910
     -2.447447     22.437228     22.437228     44.874456
     -2.437437     25.191461     25.191461     50.382922
     -2.427427     27.990287     27.990287     55.980574
     -2.417417     30.571259     30.571259     61.142518
     -2.407407     32.934035     32.934035     65.868071
     -2.397397     35.249021     35.249021     70.498042
     -2.387387     37.667629     37.667629     75.335259
     -2.377377     40.129998     40.129998     80.259997
     -2.367367     42.272658     42.272658     84.545316
     -2.357357     43.495882     43.495882     86.991764
     -2.347347     43.175718     43.175718     86.351436
     -2.337337     40.933141     40.933141     81.866282
     -2.327327     36.839203     36.839203     73.678406
     -2.317317     31.460853     31.460853     62.921707
     -2.307307     25.726049     25.726049     51.452099
     -2.297297     20.668562     20.668562     41.337124
     -2.287287     17.157693     17.157693     34.315385
     -2.277277     15.707049     15.707049     31.414098
     -2.267267     16.406839     16.406839     32.813679
     -2.257257     18.971110     18.971110     37.942220
     -2.247247     22.859620     22.859620     45.719239
     -2.237237     27.425752     27.425752     54.851505
     -2.227227     32.046705     32.046705     64.093411
     -2.217217     36.204243     36.204243     72.408486
     -2.207207     39.505211     39.505211     79.010422
     -2.197197     41.659525     41.659525     83.319051
     -2.187187     42.456277     42.456277     84.912554
     -2.177177     41.776947     41.776947     83.553894
     -2.167167     39.651908     39.651908     79.303816
     -2.157157     36.320947     36.320947     72.641895
     -2.147147     32.235494     32.235494     64.470988
     -2.137137     27.964163     27.964163     55.928326
     -2.127127     24.024243     24.024243     48.048486
     -2.117117     20.718022     20.718022     41.436045
     -2.107107     18.061113     18.061113     36.122225
     -2.097097     15.840464     15.840464     31.680927
     -2.087087     13.765326     13.765326     27.530651
     -2.077077     11.625494     11.625494     23.250988
     -2.067067      9.377691      9.377691     18.755382
     -2.057057      7.132438      7.132438     14.264877
     -2.047047      5.071419      5.071419     10.142838
     -2.037037      3.353402      3.353402      6.706803
     -2.027027      2.055987      2.055987      4.111973
     -2.017017      1.167984      1.167984      2.335968
     -2.007007      0.618331      0.618331      1.236663
     -1.996997      0.316741      0.316741      0.633481
     -1.986987      0.187309      0.187309      0.374619
     -1.976977      0.188618      0.188618      0.377235
     -1.966967      0.322624      0.322624      0.645247
     -1.956957      0.636295      0.636295      1.272591
     -1.946947      1.216317      1.216317      2.432635
     -1.936937      2.173058      2.173058      4.346116
     -1.926927      3.609907      3.609907      7.219815
     -1.916917      5.580191      5.580191     11.160383
     -1.906907      8.043826      8.043826     16.087651
     -1.896897     10.842993     10.842993     21.685987
     -1.886887     13.713462     13.713462     27.426924
     -1.876877     16.334549     16.334549     32.669098
     -1.866867     18.403553     18.403553     36.807107
     -1.856857     19.710247     19.710247     39.420494
     -1.846847     20.188437     20.188437     40.376874
     -1.836837     19.930111     19.930111     39.860222
     -1.826827     19.156268     19.156268     38.312536
     -1.816817     18.146901     18.146901     36.293801
     -1.806807     17.145708     17.145708     34.291417
     -1.796797     16.272310     16.272310     32.544621
     -1.786787     15.483196     15.483196     30.966391
     -1.776777     14.607463     14.607463     29.214926
     -1.766767     13.445700     13.445700     26.891401
     -1.756757     11.882949     11.882949     23.765897
     -1.746747      9.957558      9.957558     19.915116
     -1.736737      7.855407      7.855407     15.710815
     -1.726727      5.844084      5.844084     11.688168
     -1.716717      4.192655      4.192655      8.385311
     -1.706707      3.120668      3.120668      6.241337
     -1.696697      2.790714      2.790714      5.581427
     -1.686687      3.324761      3.324761      6.649523
     -1.676677      4.807563      4.807563      9.615127
     -1.666667      7.250352      7.250352     14.500704
     -1.656657     10.519470     10.519470     21.038940
     -1.646647     14.270330     14.270330     28.540660
     -1.636637     17.944504     17.944504     35.889007
     -1.626627     20.869601     20.869601     41.739201
