# EIG2DOS: Utility for SIESTA to obtain the electronic density of states
#  E. Artacho, Apr 1999, A. Garcia, Apr 2012
#  Nick R. Papior, Feb 2017
# ------------------------------------------
# Eigenvalues calculated from a non-polarized calculation
# Eigenvalues read from siesta.EIG
# Kpoint weights read from siesta.KP
# Using smearing parameter:   0.0500
# Using 1000 points in the energy range
# Selected bands: 1 to: 2981
# Emin, Emax in file for selected band(s):    -27.3109117    218.3977050
# Nbands, Nspin, Nk   =   2981     1     1
# E_F                 =    -4.1982 eV --> (shifted to ZERO)
# Broadening          =     0.0500 eV
#
#        E            N(up)  (=)   N(down)         Ntot
     -5.000000     30.654956     30.654956     61.309912
     -4.989990     35.753577     35.753577     71.507154
     -4.979980     40.744448     40.744448     81.488897
     -4.969970     44.785014     44.785014     89.570028
     -4.959960     47.108023     47.108023     94.216047
     -4.949950     47.274785     47.274785     94.549570
     -4.939940     45.328011     45.328011     90.656023
     -4.929930     41.793538     41.793538     83.587076
     -4.919920     37.550659     37.550659     75.101319
     -4.909910     33.634439     33.634439     67.268878
     -4.899900     31.029383     31.029383     62.058767
     -4.889890     30.481440     30.481440     60.962880
     -4.879880     32.334374     32.334374     64.668748
     -4.869870     36.409707     36.409707     72.819414
     -4.859860     41.979208     41.979208     83.958415
     -4.849850     47.884059     47.884059     95.768118
     -4.839840     52.809557     52.809557    105.619114
     -4.829830     55.645927     55.645927    111.291853
     -4.819820     55.805213     55.805213    111.610426
     -4.809810     53.367248     53.367248    106.734496
     -4.799800     49.000271     49.000271     98.000543
     -4.789790     43.703826     43.703826     87.407651
     -4.779780     38.493913     38.493913     76.987825
     -4.769770     34.154657     34.154657     68.309314
     -4.759760     31.123077     31.123077     62.246154
     -4.749750     29.496933     29.496933     58.993867
     -4.739740     29.107360     29.107360     58.214720
     -4.729730     29.598443     29.598443     59.196886
     -4.719720     30.490621     30.490621     60.981242
     -4.709710     31.241335     31.241335     62.482670
     -4.699700     31.328584     31.328584     62.657167
     -4.689690     30.365726     30.365726     60.731452
     -4.679680     28.223797     28.223797     56.447593
     -4.669670     25.114809     25.114809     50.229617
     -4.659660     21.593172     21.593172     43.186345
     -4.649650     18.461112     18.461112     36.922225
     -4.639640     16.598761     16.598761     33.197523
     -4.629630     16.759821     16.759821     33.519642
     -4.619620     19.375047     19.375047     38.750093
     -4.609610     24.401670     24.401670     48.803339
     -4.599600     31.259651     31.259651     62.519302
     -4.589590     38.898249     38.898249     77.796499
     -4.579580     46.015925     46.015925     92.031850
     -4.569570     51.400937     51.400937    102.801873
     -4.559560     54.289949     54.289949    108.579899
     -4.549550     54.603957     54.603957    109.207914
     -4.539540     52.951570     52.951570    105.903139
     -4.529530     50.384058     50.384058    100.768115
     -4.519520     47.997039     47.997039     95.994079
     -4.509510     46.541410     46.541410     93.082820
     -4.499499     46.197166     46.197166     92.394333
     -4.489489     46.586143     46.586143     93.172285
     -4.479479     46.994056     46.994056     93.988113
     -4.469469     46.688885     46.688885     93.377771
     -4.459459     45.196794     45.196794     90.393587
     -4.449449     42.434696     42.434696     84.869391
     -4.439439     38.676225     38.676225     77.352449
     -4.429429     34.404604     34.404604     68.809208
     -4.419419     30.144270     30.144270     60.288540
     -4.409409     26.347678     26.347678     52.695355
     -4.399399     23.359623     23.359623     46.719245
     -4.389389     21.426247     21.426247     42.852493
     -4.379379     20.696412     20.696412     41.392823
     -4.369369     21.189498     21.189498     42.378995
     -4.359359     22.751583     22.751583     45.503165
     -4.349349     25.050940     25.050940     50.101881
     -4.339339     27.649353     27.649353     55.298705
     -4.329329     30.137987     30.137987     60.275975
     -4.319319     32.280417     32.280417     64.560833
     -4.309309     34.092068     34.092068     68.184136
     -4.299299     35.811235     35.811235     71.622469
     -4.289289     37.764097     37.764097     75.528194
     -4.279279     40.171522     40.171522     80.343044
     -4.269269     42.973634     42.973634     85.947268
     -4.259259     45.752286     45.752286     91.504572
     -4.249249     47.806107     47.806107     95.612213
     -4.239239     48.376024     48.376024     96.752049
     -4.229229     46.945974     46.945974     93.891949
     -4.219219     43.490222     43.490222     86.980444
     -4.209209     38.544913     38.544913     77.089825
     -4.199199     33.056813     33.056813     66.113626
     -4.189189     28.070435     28.070435     56.140870
     -4.179179     24.393311     24.393311     48.786621
     -4.169169     22.383001     22.383001     44.766002
     -4.159159     21.931046     21.931046     43.862093
     -4.149149     22.622457     22.622457     45.244915
     -4.139139     23.976192     23.976192     47.952383
     -4.129129     25.650790     25.650790     51.301580
     -4.119119     27.528279     27.528279     55.056557
     -4.109109     29.649610     29.649610     59.299219
     -4.099099     32.043726     32.043726     64.087452
     -4.089089     34.546488     34.546488     69.092976
     -4.079079     36.720325     36.720325     73.440651
     -4.069069     37.943404     37.943404     75.886808
     -4.059059     37.648183     37.648183     75.296367
     -4.049049     35.598521     35.598521     71.197041
     -4.039039     32.060105     32.060105     64.120210
     -4.029029     27.769296     27.769296     55.538593
     -4.019019     23.712243     23.712243     47.424486
     -4.009009     20.822185     20.822185     41.644370
     -3.998999     19.730890     19.730890     39.461779
     -3.988989     20.662321     20.662321     41.324642
     -3.978979     23.473281     23.473281     46.946562
     -3.968969     27.781156     27.781156     55.562311
     -3.958959     33.104004     33.104004     66.208007
     -3.948949     38.966605     38.966605     77.933210
     -3.938939     44.965653     44.965653     89.931307
     -3.928929     50.806805     50.806805    101.613610
     -3.918919     56.317808     56.317808    112.635616
     -3.908909     61.424295     61.424295    122.848591
     -3.898899     66.075261     66.075261    132.150521
     -3.888889     70.133267     70.133267    140.266535
     -3.878879     73.281286     73.281286    146.562571
     -3.868869     75.011406     75.011406    150.022813
     -3.858859     74.732099     74.732099    149.464198
     -3.848849     71.971560     71.971560    143.943120
     -3.838839     66.598845     66.598845    133.197691
     -3.828829     58.965047     58.965047    117.930093
     -3.818819     49.895405     49.895405     99.790810
     -3.808809     40.524698     40.524698     81.049395
     -3.798799     32.030955     32.030955     64.061911
     -3.788789     25.357662     25.357662     50.715324
     -3.778779     21.010625     21.010625     42.021249
     -3.768769     18.981632     18.981632     37.963263
     -3.758759     18.806862     18.806862     37.613724
     -3.748749     19.731663     19.731663     39.463326
     -3.738739     20.932646     20.932646     41.865292
     -3.728729     21.741793     21.741793     43.483586
     -3.718719     21.820914     21.820914     43.641828
     -3.708709     21.245170     21.245170     42.490340
     -3.698699     20.471151     20.471151     40.942303
     -3.688689     20.189079     20.189079     40.378157
     -3.678679     21.089672     21.089672     42.179343
     -3.668669     23.608667     23.608667     47.217335
     -3.658659     27.733314     27.733314     55.466628
     -3.648649     32.948842     32.948842     65.897684
     -3.638639     38.359283     38.359283     76.718566
     -3.628629     42.946764     42.946764     85.893527
     -3.618619     45.870047     45.870047     91.740093
     -3.608609     46.685273     46.685273     93.370546
     -3.598599     45.414036     45.414036     90.828073
     -3.588589     42.460417     42.460417     84.920834
     -3.578579     38.440672     38.440672     76.881345
     -3.568569     34.003119     34.003119     68.006238
     -3.558559     29.687838     29.687838     59.375675
     -3.548549     25.840769     25.840769     51.681539
     -3.538539     22.581889     22.581889     45.163778
     -3.528529     19.829493     19.829493     39.658986
     -3.518519     17.380211     17.380211     34.760423
     -3.508509     15.025213     15.025213     30.050427
     -3.498498     12.660167     12.660167     25.320335
     -3.488488     10.343171     10.343171     20.686343
     -3.478478      8.279323      8.279323     16.558646
     -3.468468      6.746672      6.746672     13.493344
     -3.458458      6.001262      6.001262     12.002524
     -3.448448      6.197767      6.197767     12.395534
     -3.438438      7.345934      7.345934     14.691869
     -3.428428      9.307598      9.307598     18.615196
     -3.418418     11.831121     11.831121     23.662241
     -3.408408     14.614792     14.614792     29.229584
     -3.398398     17.382532     17.382532     34.765065
     -3.388388     19.948048     19.948048     39.896097
     -3.378378     22.246701     22.246701     44.493402
     -3.368368     24.329690     24.329690     48.659380
     -3.358358     26.331613     26.331613     52.663225
     -3.348348     28.425606     28.425606     56.851212
     -3.338338     30.768804     30.768804     61.537607
     -3.328328     33.430917     33.430917     66.861833
     -3.318318     36.309099     36.309099     72.618198
     -3.308308     39.062397     39.062397     78.124793
     -3.298298     41.122805     41.122805     82.245611
     -3.288288     41.824713     41.824713     83.649426
     -3.278278     40.633560     40.633560     81.267120
     -3.268268     37.382615     37.382615     74.765230
     -3.258258     32.398747     32.398747     64.797494
     -3.248248     26.443615     26.443615     52.887229
     -3.238238     20.490825     20.490825     40.981651
     -3.228228     15.439761     15.439761     30.879522
     -3.218218     11.883585     11.883585     23.767170
     -3.208208     10.003399     10.003399     20.006797
     -3.198198      9.595148      9.595148     19.190295
     -3.188188     10.193020     10.193020     20.386040
     -3.178178     11.242675     11.242675     22.485349
     -3.168168     12.281623     12.281623     24.563246
     -3.158158     13.084354     13.084354     26.168707
     -3.148148     13.728074     13.728074     27.456147
     -3.138138     14.547065     14.547065     29.094129
     -3.128128     15.978558     15.978558     31.957115
     -3.118118     18.349867     18.349867     36.699734
     -3.108108     21.690525     21.690525     43.381051
     -3.098098     25.652654     25.652654     51.305308
     -3.088088     29.582849     29.582849     59.165699
     -3.078078     32.724332     32.724332     65.448663
     -3.068068     34.467556     34.467556     68.935113
     -3.058058     34.541650     34.541650     69.083301
     -3.048048     33.065297     33.065297     66.130594
     -3.038038     30.445073     30.445073     60.890147
     -3.028028     27.185737     27.185737     54.371474
     -3.018018     23.716290     23.716290     47.432580
     -3.008008     20.314381     20.314381     40.628762
     -2.997998     17.145324     17.145324     34.290648
     -2.987988     14.364908     14.364908     28.729815
     -2.977978     12.207874     12.207874     24.415748
     -2.967968     11.005263     11.005263     22.010527
     -2.957958     11.120259     11.120259     22.240517
     -2.947948     12.831608     12.831608     25.663216
     -2.937938     16.210273     16.210273     32.420545
     -2.927928     21.032970     21.032970     42.065939
     -2.917918     26.766338     26.766338     53.532676
     -2.907908     32.640551     32.640551     65.281102
     -2.897898     37.807400     37.807400     75.614800
     -2.887888     41.545482     41.545482     83.090964
     -2.877878     43.446232     43.446232     86.892465
     -2.867868     43.508328     43.508328     87.016657
     -2.857858     42.096300     42.096300     84.192601
     -2.847848     39.775216     39.775216     79.550431
     -2.837838     37.090981     37.090981     74.181963
     -2.827828     34.393408     34.393408     68.786816
     -2.817818     31.778189     31.778189     63.556379
     -2.807808     29.162621     29.162621     58.325241
     -2.797798     26.440728     26.440728     52.881457
     -2.787788     23.625116     23.625116     47.250233
     -2.777778     20.896731     20.896731     41.793462
     -2.767768     18.541227     18.541227     37.082454
     -2.757758     16.817802     16.817802     33.635603
     -2.747748     15.844061     15.844061     31.688123
     -2.737738     15.566708     15.566708     31.133416
     -2.727728     15.830908     15.830908     31.661816
     -2.717718     16.496217     16.496217     32.992433
     -2.707708     17.515920     17.515920     35.031840
     -2.697698     18.922281     18.922281     37.844562
     -2.687688     20.728079     20.728079     41.456159
     -2.677678     22.819491     22.819491     45.638982
     -2.667668     24.929071     24.929071     49.858142
     -2.657658     26.725974     26.725974     53.451948
     -2.647648     27.976772     27.976772     55.953544
     -2.637638     28.674427     28.674427     57.348854
     -2.627628     29.047928     29.047928     58.095857
     -2.617618     29.441980     29.441980     58.883960
     -2.607608     30.139327     30.139327     60.278654
     -2.597598     31.228018     31.228018     62.456036
     -2.587588     32.575064     32.575064     65.150129
     -2.577578     33.893820     33.893820     67.787641
     -2.567568     34.843805     34.843805     69.687611
     -2.557558     35.109489     35.109489     70.218978
     -2.547548     34.449404     34.449404     68.898807
     -2.537538     32.741173     32.741173     65.482346
     -2.527528     30.040616     30.040616     60.081233
     -2.517518     26.635542     26.635542     53.271085
     -2.507508     23.046906     23.046906     46.093812
     -2.497497     19.941309     19.941309     39.882618
     -2.487487     17.964206     17.964206     35.928412
     -2.477477     17.550806     17.550806     35.101613
     -2.467467     18.791016     18.791016     37.582032
     -2.457457     21.406657     21.406657     42.813315
     -2.447447     24.854599     24.854599     49.709198
     -2.437437     28.518046     28.518046     57.036091
     -2.427427     31.909733     31.909733     63.819466
     -2.417417     34.801440     34.801440     69.602880
     -2.407407     37.222266     37.222266     74.444532
     -2.397397     39.326513     39.326513     78.653026
     -2.387387     41.196787     41.196787     82.393573
     -2.377377     42.686705     42.686705     85.373410
     -2.367367     43.396071     43.396071     86.792142
     -2.357357     42.808497     42.808497     85.616995
     -2.347347     40.535460     40.535460     81.070921
     -2.337337     36.548398     36.548398     73.096795
     -2.327327     31.280754     31.280754     62.561507
     -2.317317     25.547858     25.547858     51.095716
     -2.307307     20.324736     20.324736     40.649472
     -2.297297     16.484422     16.484422     32.968844
     -2.287287     14.599720     14.599720     29.199439
     -2.277277     14.861276     14.861276     29.722551
     -2.267267     17.104464     17.104464     34.208929
     -2.257257     20.901632     20.901632     41.803263
     -2.247247     25.672965     25.672965     51.345930
     -2.237237     30.785093     30.785093     61.570185
     -2.227227     35.624770     35.624770     71.249541
     -2.217217     39.647974     39.647974     79.295949
     -2.207207     42.412883     42.412883     84.825766
     -2.197197     43.609632     43.609632     87.219264
     -2.187187     43.097353     43.097353     86.194707
     -2.177177     40.946119     40.946119     81.892237
     -2.167167     37.461373     37.461373     74.922746
     -2.157157     33.155901     33.155901     66.311802
     -2.147147     28.646572     28.646572     57.293143
     -2.137137     24.492623     24.492623     48.985246
     -2.127127     21.036822     21.036822     42.073645
     -2.117117     18.325828     18.325828     36.651656
     -2.107107     16.152902     16.152902     32.305804
     -2.097097     14.201603     14.201603     28.403206
     -2.087087     12.215565     12.215565     24.431130
     -2.077077     10.112283     10.112283     20.224567
     -2.067067      7.999429      7.999429     15.998858
     -2.057057      6.109026      6.109026     12.218052
     -2.047047      4.699826      4.699826      9.399651
     -2.037037      3.974982      3.974982      7.949963
     -2.027027      4.033816      4.033816      8.067633
     -2.017017      4.850485      4.850485      9.700969
     -2.007007      6.267423      6.267423     12.534845
     -1.996997      8.005022      8.005022     16.010043
     -1.986987      9.702305      9.702305     19.404611
     -1.976977     10.998780     10.998780     21.997559
     -1.966967     11.643546     11.643546     23.287093
     -1.956957     11.591021     11.591021     23.182042
     -1.946947     11.035363     11.035363     22.070725
     -1.936937     10.357628     10.357628     20.715255
     -1.926927      9.999564      9.999564     19.999128
     -1.916917     10.312328     10.312328     20.624656
     -1.906907     11.438465     11.438465     22.876930
     -1.896897     13.268459     13.268459     26.536918
     -1.886887     15.480907     15.480907     30.961815
     -1.876877     17.644690     17.644690     35.289380
     -1.866867     19.344625     19.344625     38.689250
     -1.856857     20.292066     20.292066     40.584132
     -1.846847     20.392965     20.392965     40.785930
     -1.836837     19.759291     19.759291     39.518581
     -1.826827     18.660993     18.660993     37.321986
     -1.816817     17.428121     17.428121     34.856241
     -1.806807     16.330176     16.330176     32.660352
     -1.796797     15.476877     15.476877     30.953753
     -1.786787     14.785971     14.785971     29.571941
     -1.776777     14.038330     14.038330     28.076660
     -1.766767     12.996559     12.996559     25.993117
     -1.756757     11.527769     11.527769     23.055537
     -1.746747      9.669697      9.669697     19.339394
     -1.736737      7.614207      7.614207     15.228414
     -1.726727      5.629492      5.629492     11.258985
     -1.716717      3.970589      3.970589      7.941179
     -1.706707      2.822049      2.822049      5.644098
     -1.696697      2.286422      2.286422      4.572845
     -1.686687      2.401016      2.401016      4.802033
     -1.676677      3.152572      3.152572      6.305144
     -1.666667      4.469881      4.469881      8.939763
     -1.656657      6.198616      6.198616     12.397232
     -1.646647      8.084572      8.084572     16.169143
     -1.636637      9.796410      9.796410     19.592821
     -1.626627     11.001353     11.001353     22.002707
