# EIG2DOS: Utility for SIESTA to obtain the electronic density of states
#  E. Artacho, Apr 1999, A. Garcia, Apr 2012
#  Nick R. Papior, Feb 2017
# ------------------------------------------
# Eigenvalues calculated from a non-polarized calculation
# Eigenvalues read from siesta.EIG
# Kpoint weights read from siesta.KP
# Using smearing parameter:   0.0500
# Using 1000 points in the energy range
# Selected bands: 1 to: 2981
# Emin, Emax in file for selected band(s):    -27.2973401    218.3777030
# Nbands, Nspin, Nk   =   2981     1     1
# E_F                 =    -4.2285 eV --> (shifted to ZERO)
# Broadening          =     0.0500 eV
#
#        E            N(up)  (=)   N(down)         Ntot
     -5.000000     36.234568     36.234568     72.469137
     -4.989990     40.127011     40.127011     80.254022
     -4.979980     43.066665     43.066665     86.133330
     -4.969970     44.586136     44.586136     89.172273
     -4.959960     44.453562     44.453562     88.907123
     -4.949950     42.747896     42.747896     85.495793
     -4.939940     39.846518     39.846518     79.693036
     -4.929930     36.349431     36.349431     72.698862
     -4.919920     32.981790     32.981790     65.963580
     -4.909910     30.499795     30.499795     60.999589
     -4.899900     29.592129     29.592129     59.184258
     -4.889890     30.752435     30.752435     61.504870
     -4.879880     34.120339     34.120339     68.240677
     -4.869870     39.340299     39.340299     78.680597
     -4.859860     45.528034     45.528034     91.056069
     -4.849850     51.419296     51.419296    102.838593
     -4.839840     55.695949     55.695949    111.391897
     -4.829830     57.381458     57.381458    114.762916
     -4.819820     56.140252     56.140252    112.280505
     -4.809810     52.348349     52.348349    104.696697
     -4.799800     46.912339     46.912339     93.824679
     -4.789790     40.934222     40.934222     81.868444
     -4.779780     35.378870     35.378870     70.757739
     -4.769770     30.871465     30.871465     61.742929
     -4.759760     27.664691     27.664691     55.329383
     -4.749750     25.729960     25.729960     51.459920
     -4.739740     24.887627     24.887627     49.775253
     -4.729730     24.903671     24.903671     49.807342
     -4.719720     25.522168     25.522168     51.044335
     -4.709710     26.448110     26.448110     52.896220
     -4.699700     27.326077     27.326077     54.652153
     -4.689690     27.765643     27.765643     55.531286
     -4.679680     27.438747     27.438747     54.877494
     -4.669670     26.225932     26.225932     52.451865
     -4.659660     24.343822     24.343822     48.687644
     -4.649650     22.375361     22.375361     44.750722
     -4.639640     21.157812     21.157812     42.315624
     -4.629630     21.543693     21.543693     43.087385
     -4.619620     24.106188     24.106188     48.212377
     -4.609610     28.890708     28.890708     57.781415
     -4.599600     35.310918     35.310918     70.621836
     -4.589590     42.250514     42.250514     84.501028
     -4.579580     48.364436     48.364436     96.728871
     -4.569570     52.491276     52.491276    104.982552
     -4.559560     54.027500     54.027500    108.055001
     -4.549550     53.113238     53.113238    106.226475
     -4.539540     50.551300     50.551300    101.102599
     -4.529530     47.494195     47.494195     94.988391
     -4.519520     45.029872     45.029872     90.059744
     -4.509510     43.828813     43.828813     87.657626
     -4.499499     43.974578     43.974578     87.949156
     -4.489489     45.015051     45.015051     90.030103
     -4.479479     46.184896     46.184896     92.369792
     -4.469469     46.695450     46.695450     93.390899
     -4.459459     45.981884     45.981884     91.963769
     -4.449449     43.833896     43.833896     87.667792
     -4.439439     40.394880     40.394880     80.789759
     -4.429429     36.067756     36.067756     72.135513
     -4.419419     31.390002     31.390002     62.780004
     -4.409409     26.928261     26.928261     53.856521
     -4.399399     23.207316     23.207316     46.414631
     -4.389389     20.656347     20.656347     41.312693
     -4.379379     19.550587     19.550587     39.101175
     -4.369369     19.950044     19.950044     39.900088
     -4.359359     21.666360     21.666360     43.332720
     -4.349349     24.295528     24.295528     48.591056
     -4.339339     27.327192     27.327192     54.654383
     -4.329329     30.297345     30.297345     60.594690
     -4.319319     32.921589     32.921589     65.843179
     -4.309309     35.151696     35.151696     70.303392
     -4.299299     37.134402     37.134402     74.268805
     -4.289289     39.093888     39.093888     78.187776
     -4.279279     41.185513     41.185513     82.371026
     -4.269269     43.373155     43.373155     86.746310
     -4.259259     45.374783     45.374783     90.749567
     -4.249249     46.706968     46.706968     93.413936
     -4.239239     46.833293     46.833293     93.666587
     -4.229229     45.378764     45.378764     90.757528
     -4.219219     42.326272     42.326272     84.652543
     -4.209209     38.095575     38.095575     76.191150
     -4.199199     33.446124     33.446124     66.892249
     -4.189189     29.230943     29.230943     58.461887
     -4.179179     26.110196     26.110196     52.220392
     -4.169169     24.357389     24.357389     48.714779
     -4.159159     23.842415     23.842415     47.684830
     -4.149149     24.184490     24.184490     48.368980
     -4.139139     24.986619     24.986619     49.973237
     -4.129129     26.030494     26.030494     52.060988
     -4.119119     27.336140     27.336140     54.672280
     -4.109109     29.058900     29.058900     58.117801
     -4.099099     31.279457     31.279457     62.558915
     -4.089089     33.805416     33.805416     67.610833
     -4.079079     36.110901     36.110901     72.221802
     -4.069069     37.477227     37.477227     74.954453
     -4.059059     37.286358     37.286358     74.572716
     -4.049049     35.322067     35.322067     70.644135
     -4.039039     31.916805     31.916805     63.833609
     -4.029029     27.863285     27.863285     55.726570
     -4.019019     24.139490     24.139490     48.278979
     -4.009009     21.590905     21.590905     43.181810
     -3.998999     20.717660     20.717660     41.435321
     -3.988989     21.634817     21.634817     43.269635
     -3.978979     24.171910     24.171910     48.343819
     -3.968969     28.018507     28.018507     56.037014
     -3.958959     32.832886     32.832886     65.665772
     -3.948949     38.287459     38.287459     76.574918
     -3.938939     44.077470     44.077470     88.154941
     -3.928929     49.930862     49.930862     99.861724
     -3.918919     55.628197     55.628197    111.256393
     -3.908909     61.006776     61.006776    122.013552
     -3.898899     65.919143     65.919143    131.838286
     -3.888889     70.149969     70.149969    140.299938
     -3.878879     73.339326     73.339326    146.678652
     -3.868869     74.977087     74.977087    149.954173
     -3.858859     74.505467     74.505467    149.010935
     -3.848849     71.509276     71.509276    143.018552
     -3.838839     65.920194     65.920194    131.840388
     -3.828829     58.142936     58.142936    116.285872
     -3.818819     49.037543     49.037543     98.075085
     -3.808809     39.750023     39.750023     79.500047
     -3.798799     31.444706     31.444706     62.889412
     -3.788789     25.028055     25.028055     50.056111
     -3.778779     20.951681     20.951681     41.903362
     -3.768769     19.147995     19.147995     38.295990
     -3.758759     19.104977     19.104977     38.209953
     -3.748749     20.046734     20.046734     40.093468
     -3.738739     21.164524     21.164524     42.329048
     -3.728729     21.838410     21.838410     43.676820
     -3.718719     21.797277     21.797277     43.594554
     -3.708709     21.179560     21.179560     42.359121
     -3.698699     20.477174     20.477174     40.954348
     -3.688689     20.371000     20.371000     40.742000
     -3.678679     21.496651     21.496651     42.993301
     -3.668669     24.207198     24.207198     48.414395
     -3.658659     28.412526     28.412526     56.825051
     -3.648649     33.559474     33.559474     67.118949
     -3.638639     38.769819     38.769819     77.539638
     -3.628629     43.089817     43.089817     86.179635
     -3.618619     45.756864     45.756864     91.513728
     -3.608609     46.384621     46.384621     92.769242
     -3.598599     45.011897     45.011897     90.023795
     -3.588589     42.025033     42.025033     84.050067
     -3.578579     38.008919     38.008919     76.017837
     -3.568569     33.587022     33.587022     67.174045
     -3.558559     29.287952     29.287952     58.575905
     -3.548549     25.453939     25.453939     50.907877
     -3.538539     22.201110     22.201110     44.402220
     -3.528529     19.442749     19.442749     38.885499
     -3.518519     16.975637     16.975637     33.951275
     -3.508509     14.602856     14.602856     29.205713
     -3.498498     12.243190     12.243190     24.486381
     -3.488488      9.979673      9.979673     19.959345
     -3.478478      8.030042      8.030042     16.060085
     -3.468468      6.659214      6.659214     13.318429
     -3.458458      6.074596      6.074596     12.149192
     -3.448448      6.342455      6.342455     12.684909
     -3.438438      7.349035      7.349035     14.698071
     -3.428428      8.817444      8.817444     17.634887
     -3.418418     10.382122     10.382122     20.764243
     -3.408408     11.709364     11.709364     23.418728
     -3.398398     12.631534     12.631534     25.263069
     -3.388388     13.244870     13.244870     26.489740
     -3.378378     13.922509     13.922509     27.845018
     -3.368368     15.222053     15.222053     30.444107
     -3.358358     17.708529     17.708529     35.417059
     -3.348348     21.746970     21.746970     43.493941
     -3.338338     27.329273     27.329273     54.658545
     -3.328328     33.988891     33.988891     67.977781
     -3.318318     40.835486     40.835486     81.670972
     -3.308308     46.716746     46.716746     93.433492
     -3.298298     50.483996     50.483996    100.967992
     -3.288288     51.300155     51.300155    102.600310
     -3.278278     48.895298     48.895298     97.790597
     -3.268268     43.672055     43.672055     87.344111
     -3.258258     36.607984     36.607984     73.215968
     -3.248248     28.982319     28.982319     57.964638
     -3.238238     22.027737     22.027737     44.055474
     -3.228228     16.631602     16.631602     33.263204
     -3.218218     13.175961     13.175961     26.351923
     -3.208208     11.539973     11.539973     23.079945
     -3.198198     11.232669     11.232669     22.465338
     -3.188188     11.598461     11.598461     23.196922
     -3.178178     12.036137     12.036137     24.072274
     -3.168168     12.178799     12.178799     24.357598
     -3.158158     11.991437     11.991437     23.982873
     -3.148148     11.759993     11.759993     23.519985
     -3.138138     11.974082     11.974082     23.948163
     -3.128128     13.137770     13.137770     26.275540
     -3.118118     15.566400     15.566400     31.132800
     -3.108108     19.234159     19.234159     38.468318
     -3.098098     23.725880     23.725880     47.451760
     -3.088088     28.318865     28.318865     56.637730
     -3.078078     32.178447     32.178447     64.356894
     -3.068068     34.603991     34.603991     69.207982
     -3.058058     35.231460     35.231460     70.462919
     -3.048048     34.108786     34.108786     68.217571
     -3.038038     31.616968     31.616968     63.233935
     -3.028028     28.286664     28.286664     56.573328
     -3.018018     24.610537     24.610537     49.221074
     -3.008008     20.942339     20.942339     41.884679
     -2.997998     17.512012     17.512012     35.024024
     -2.987988     14.515211     14.515211     29.030422
     -2.977978     12.201034     12.201034     24.402069
     -2.967968     10.897349     10.897349     21.794699
     -2.957958     10.957419     10.957419     21.914838
     -2.947948     12.651644     12.651644     25.303288
     -2.937938     16.046871     16.046871     32.093742
     -2.927928     20.916521     20.916521     41.833043
     -2.917918     26.717873     26.717873     53.435745
     -2.907908     32.660198     32.660198     65.320395
     -2.897898     37.863736     37.863736     75.727472
     -2.887888     41.574187     41.574187     83.148373
     -2.877878     43.363743     43.363743     86.727485
     -2.867868     43.239305     43.239305     86.478609
     -2.857858     41.605995     41.605995     83.211990
     -2.847848     39.093482     39.093482     78.186963
     -2.837838     36.316400     36.316400     72.632799
     -2.827828     33.673473     33.673473     67.346946
     -2.817818     31.271291     31.271291     62.542582
     -2.807808     28.995069     28.995069     57.990139
     -2.797798     26.673719     26.673719     53.347439
     -2.787788     24.241724     24.241724     48.483447
     -2.777778     21.810575     21.810575     43.621149
     -2.767768     19.620888     19.620888     39.241776
     -2.757758     17.917826     17.917826     35.835652
     -2.747748     16.834640     16.834640     33.669281
     -2.737738     16.357062     16.357062     32.714124
     -2.727728     16.383086     16.383086     32.766172
     -2.717718     16.826304     16.826304     33.652609
     -2.707708     17.681006     17.681006     35.362013
     -2.697698     18.996083     18.996083     37.992166
     -2.687688     20.774316     20.774316     41.548632
     -2.677678     22.875135     22.875135     45.750271
     -2.667668     25.005546     25.005546     50.011091
     -2.657658     26.826172     26.826172     53.652343
     -2.647648     28.115650     28.115650     56.231300
     -2.637638     28.887993     28.887993     57.775986
     -2.627628     29.382416     29.382416     58.764832
     -2.617618     29.927842     29.927842     59.855683
     -2.607608     30.764997     30.764997     61.529994
     -2.597598     31.929380     31.929380     63.858759
     -2.587588     33.247551     33.247551     66.495101
     -2.577578     34.421422     34.421422     68.842844
     -2.567568     35.131437     35.131437     70.262874
     -2.557558     35.106665     35.106665     70.213330
     -2.547548     34.161050     34.161050     68.322100
     -2.537538     32.228342     32.228342     64.456684
     -2.527528     29.414649     29.414649     58.829298
     -2.517518     26.045021     26.045021     52.090042
     -2.507508     22.653325     22.653325     45.306650
     -2.497497     19.881723     19.881723     39.763446
     -2.487487     18.306983     18.306983     36.613966
     -2.477477     18.259167     18.259167     36.518333
     -2.467467     19.712119     19.712119     39.424237
     -2.457457     22.297794     22.297794     44.595589
     -2.447447     25.443753     25.443753     50.887506
     -2.437437     28.580138     28.580138     57.160276
     -2.427427     31.331340     31.331340     62.662680
     -2.417417     33.611258     33.611258     67.222516
     -2.407407     35.579653     35.579653     71.159306
     -2.397397     37.476760     37.476760     74.953520
     -2.387387     39.410467     39.410467     78.820933
     -2.377377     41.199916     41.199916     82.399832
     -2.367367     42.363651     42.363651     84.727302
     -2.357357     42.278422     42.278422     84.556844
     -2.347347     40.449566     40.449566     80.899132
     -2.337337     36.769093     36.769093     73.538185
     -2.327327     31.635115     31.635115     63.270229
     -2.317317     25.874082     25.874082     51.748164
     -2.307307     20.506449     20.506449     41.012898
     -2.297297     16.465828     16.465828     32.931656
     -2.287287     14.383425     14.383425     28.766849
     -2.277277     14.495163     14.495163     28.990325
     -2.267267     16.663332     16.663332     33.326664
     -2.257257     20.467096     20.467096     40.934193
     -2.247247     25.314746     25.314746     50.629493
     -2.237237     30.547958     30.547958     61.095917
     -2.227227     35.525067     35.525067     71.050135
     -2.217217     39.680131     39.680131     79.360262
     -2.207207     42.561453     42.561453     85.122906
     -2.197197     43.860036     43.860036     87.720073
     -2.187187     43.440318     43.440318     86.880635
     -2.177177     41.375175     41.375175     82.750350
     -2.167167     37.966449     37.966449     75.932898
     -2.157157     33.717026     33.717026     67.434052
     -2.147147     29.230639     29.230639     58.461277
     -2.137137     25.054623     25.054623     50.109245
     -2.127127     21.525786     21.525786     43.051572
     -2.117117     18.694508     18.694508     37.389016
     -2.107107     16.368384     16.368384     32.736768
     -2.097097     14.252129     14.252129     28.504258
     -2.087087     12.108241     12.108241     24.216482
     -2.077077      9.858162      9.858162     19.716323
     -2.067067      7.586281      7.586281     15.172562
     -2.057057      5.466695      5.466695     10.933389
     -2.047047      3.667461      3.667461      7.334922
     -2.037037      2.283628      2.283628      4.567256
     -2.027027      1.320710      1.320710      2.641420
     -2.017017      0.719509      0.719509      1.439018
     -2.007007      0.398716      0.398716      0.797431
     -1.996997      0.295018      0.295018      0.590036
     -1.986987      0.391663      0.391663      0.783326
     -1.976977      0.734708      0.734708      1.469416
     -1.966967      1.436746      1.436746      2.873491
     -1.956957      2.663047      2.663047      5.326093
     -1.946947      4.591832      4.591832      9.183664
     -1.936937      7.345987      7.345987     14.691974
     -1.926927     10.909952     10.909952     21.819903
     -1.916917     15.065296     15.065296     30.130593
     -1.906907     19.386093     19.386093     38.772187
     -1.896897     23.317384     23.317384     46.634768
     -1.886887     26.319833     26.319833     52.639666
     -1.876877     28.024219     28.024219     56.048438
     -1.866867     28.329460     28.329460     56.658921
     -1.856857     27.407139     27.407139     54.814278
     -1.846847     25.623495     25.623495     51.246990
     -1.836837     23.422488     23.422488     46.844976
     -1.826827     21.213147     21.213147     42.426294
     -1.816817     19.283739     19.283739     38.567479
     -1.806807     17.750068     17.750068     35.500135
     -1.796797     16.545788     16.545788     33.091576
     -1.786787     15.465181     15.465181     30.930363
     -1.776777     14.255420     14.255420     28.510839
     -1.766767     12.728034     12.728034     25.456068
     -1.756757     10.840861     10.840861     21.681722
     -1.746747      8.712724      8.712724     17.425449
     -1.736737      6.569733      6.569733     13.139466
     -1.726727      4.658787      4.658787      9.317575
     -1.716717      3.175548      3.175548      6.351096
     -1.706707      2.236043      2.236043      4.472086
     -1.696697      1.889348      1.889348      3.778697
     -1.686687      2.145067      2.145067      4.290135
     -1.676677      2.986002      2.986002      5.972003
     -1.666667      4.352069      4.352069      8.704138
     -1.656657      6.105709      6.105709     12.211417
     -1.646647      8.008050      8.008050     16.016100
     -1.636637      9.737399      9.737399     19.474798
     -1.626627     10.962992     10.962992     21.925985
