# EIG2DOS: Utility for SIESTA to obtain the electronic density of states
#  E. Artacho, Apr 1999, A. Garcia, Apr 2012
#  Nick R. Papior, Feb 2017
# ------------------------------------------
# Eigenvalues calculated from a non-polarized calculation
# Eigenvalues read from siesta.EIG
# Kpoint weights read from siesta.KP
# Using smearing parameter:   0.0500
# Using 1000 points in the energy range
# Selected bands: 1 to: 2981
# Emin, Emax in file for selected band(s):    -27.0685116    218.3277660
# Nbands, Nspin, Nk   =   2981     1     1
# E_F                 =    -4.2810 eV --> (shifted to ZERO)
# Broadening          =     0.0500 eV
#
#        E            N(up)  (=)   N(down)         Ntot
     -5.000000     44.823497     44.823497     89.646995
     -4.989990     47.188421     47.188421     94.376842
     -4.979980     48.393251     48.393251     96.786502
     -4.969970     48.406382     48.406382     96.812764
     -4.959960     47.270130     47.270130     94.540260
     -4.949950     45.103983     45.103983     90.207965
     -4.939940     42.123360     42.123360     84.246720
     -4.929930     38.661067     38.661067     77.322134
     -4.919920     35.178071     35.178071     70.356142
     -4.909910     32.251775     32.251775     64.503551
     -4.899900     30.526254     30.526254     61.052508
     -4.889890     30.604688     30.604688     61.209377
     -4.879880     32.876847     32.876847     65.753694
     -4.869870     37.315700     37.315700     74.631399
     -4.859860     43.330672     43.330672     86.661344
     -4.849850     49.786571     49.786571     99.573142
     -4.839840     55.248100     55.248100    110.496200
     -4.829830     58.397765     58.397765    116.795530
     -4.819820     58.463442     58.463442    116.926883
     -4.809810     55.460797     55.460797    110.921594
     -4.799800     50.138692     50.138692    100.277384
     -4.789790     43.666577     43.666577     87.333154
     -4.779780     37.225892     37.225892     74.451784
     -4.769770     31.688183     31.688183     63.376365
     -4.759760     27.482256     27.482256     54.964512
     -4.749750     24.638776     24.638776     49.277551
     -4.739740     22.928060     22.928060     45.856120
     -4.729730     22.003008     22.003008     44.006015
     -4.719720     21.499350     21.499350     42.998699
     -4.709710     21.088670     21.088670     42.177341
     -4.699700     20.503007     20.503007     41.006014
     -4.689690     19.553773     19.553773     39.107547
     -4.679680     18.160178     18.160178     36.320356
     -4.669670     16.388208     16.388208     32.776416
     -4.659660     14.485166     14.485166     28.970333
     -4.649650     12.884762     12.884762     25.769523
     -4.639640     12.160408     12.160408     24.320816
     -4.629630     12.918450     12.918450     25.836901
     -4.619620     15.641776     15.641776     31.283552
     -4.609610     20.513695     20.513695     41.027390
     -4.599600     27.271835     27.271835     54.543671
     -4.589590     35.156452     35.156452     70.312905
     -4.579580     43.010654     43.010654     86.021308
     -4.569570     49.545880     49.545880     99.091761
     -4.559560     53.710973     53.710973    107.421946
     -4.549550     55.034063     55.034063    110.068127
     -4.539540     53.790738     53.790738    107.581476
     -4.529530     50.912025     50.912025    101.824050
     -4.519520     47.657822     47.657822     95.315643
     -4.509510     45.187035     45.187035     90.374071
     -4.499499     44.198160     44.198160     88.396321
     -4.489489     44.772844     44.772844     89.545687
     -4.479479     46.455506     46.455506     92.911013
     -4.469469     48.498220     48.498220     96.996440
     -4.459459     50.143060     50.143060    100.286119
     -4.449449     50.826294     50.826294    101.652587
     -4.439439     50.254249     50.254249    100.508498
     -4.429429     48.377079     48.377079     96.754159
     -4.419419     45.329449     45.329449     90.658898
     -4.409409     41.395297     41.395297     82.790594
     -4.399399     37.002624     37.002624     74.005248
     -4.389389     32.705729     32.705729     65.411457
     -4.379379     29.106249     29.106249     58.212498
     -4.369369     26.707690     26.707690     53.415380
     -4.359359     25.758115     25.758115     51.516229
     -4.349349     26.164607     26.164607     52.329214
     -4.339339     27.535795     27.535795     55.071591
     -4.329329     29.341855     29.341855     58.683710
     -4.319319     31.119407     31.119407     62.238813
     -4.309309     32.629678     32.629678     65.259355
     -4.299299     33.908113     33.908113     67.816227
     -4.289289     35.197190     35.197190     70.394381
     -4.279279     36.798815     36.798815     73.597629
     -4.269269     38.902585     38.902585     77.805170
     -4.259259     41.447144     41.447144     82.894289
     -4.249249     44.065314     44.065314     88.130627
     -4.239239     46.148868     46.148868     92.297735
     -4.229229     47.034034     47.034034     94.068069
     -4.219219     46.252895     46.252895     92.505790
     -4.209209     43.745169     43.745169     87.490339
     -4.199199     39.921187     39.921187     79.842374
     -4.189189     35.530291     35.530291     71.060582
     -4.179179     31.390427     31.390427     62.780854
     -4.169169     28.110328     28.110328     56.220655
     -4.159159     25.935038     25.935038     51.870075
     -4.149149     24.771399     24.771399     49.542799
     -4.139139     24.353332     24.353332     48.706664
     -4.129129     24.444211     24.444211     48.888421
     -4.119119     24.970171     24.970171     49.940342
     -4.109109     26.022387     26.022387     52.044775
     -4.099099     27.731919     27.731919     55.463838
     -4.089089     30.083594     30.083594     60.167187
     -4.079079     32.773694     32.773694     65.547389
     -4.069069     35.208141     35.208141     70.416282
     -4.059059     36.674034     36.674034     73.348068
     -4.049049     36.621108     36.621108     73.242216
     -4.039039     34.915825     34.915825     69.831651
     -4.029029     31.932745     31.932745     63.865491
     -4.019019     28.432799     28.432799     56.865597
     -4.009009     25.294995     25.294995     50.589989
     -3.998999     23.241048     23.241048     46.482095
     -3.988989     22.677042     22.677042     45.354083
     -3.978979     23.690751     23.690751     47.381503
     -3.968969     26.151589     26.151589     52.303178
     -3.958959     29.822511     29.822511     59.645023
     -3.948949     34.423618     34.423618     68.847236
     -3.938939     39.649096     39.649096     79.298192
     -3.928929     45.179002     45.179002     90.358004
     -3.918919     50.717179     50.717179    101.434358
     -3.908909     56.042838     56.042838    112.085675
     -3.898899     61.029133     61.029133    122.058267
     -3.888889     65.590287     65.590287    131.180575
     -3.878879     69.567126     69.567126    139.134252
     -3.868869     72.615510     72.615510    145.231019
     -3.858859     74.182826     74.182826    148.365651
     -3.848849     73.624730     73.624730    147.249459
     -3.838839     70.440694     70.440694    140.881389
     -3.828829     64.532680     64.532680    129.065359
     -3.818819     56.361498     56.361498    112.722995
     -3.808809     46.912543     46.912543     93.825086
     -3.798799     37.469004     37.469004     74.938007
     -3.788789     29.278085     29.278085     58.556170
     -3.778779     23.236588     23.236588     46.473175
     -3.768769     19.700827     19.700827     39.401654
     -3.758759     18.464683     18.464683     36.929367
     -3.748749     18.887005     18.887005     37.774009
     -3.738739     20.112180     20.112180     40.224360
     -3.728729     21.318540     21.318540     42.637079
     -3.718719     21.936328     21.936328     43.872656
     -3.708709     21.789007     21.789007     43.578015
     -3.698699     21.125450     21.125450     42.250900
     -3.688689     20.529736     20.529736     41.059473
     -3.678679     20.723021     20.723021     41.446042
     -3.668669     22.306100     22.306100     44.612200
     -3.658659     25.521272     25.521272     51.042545
     -3.648649     30.120831     30.120831     60.241662
     -3.638639     35.402162     35.402162     70.804323
     -3.628629     40.406827     40.406827     80.813653
     -3.618619     44.208693     44.208693     88.417386
     -3.608609     46.174829     46.174829     92.349659
     -3.598599     46.100997     46.100997     92.201994
     -3.588589     44.191564     44.191564     88.383128
     -3.578579     40.926993     40.926993     81.853986
     -3.568569     36.895324     36.895324     73.790648
     -3.558559     32.647418     32.647418     65.294835
     -3.548549     28.598281     28.598281     57.196562
     -3.538539     24.974315     24.974315     49.948629
     -3.528529     21.807567     21.807567     43.615134
     -3.518519     18.982880     18.982880     37.965761
     -3.508509     16.331518     16.331518     32.663036
     -3.498498     13.739358     13.739358     27.478715
     -3.488488     11.222915     11.222915     22.445830
     -3.478478      8.939653      8.939653     17.879307
     -3.468468      7.132602      7.132602     14.265204
     -3.458458      6.038949      6.038949     12.077899
     -3.448448      5.800523      5.800523     11.601046
     -3.438438      6.403915      6.403915     12.807830
     -3.428428      7.664513      7.664513     15.329026
     -3.418418      9.260830      9.260830     18.521660
     -3.408408     10.818369     10.818369     21.636738
     -3.398398     12.027078     12.027078     24.054155
     -3.388388     12.755279     12.755279     25.510558
     -3.378378     13.111913     13.111913     26.223827
     -3.368368     13.423374     13.423374     26.846749
     -3.358358     14.128950     14.128950     28.257899
     -3.348348     15.636901     15.636901     31.273801
     -3.338338     18.195525     18.195525     36.391049
     -3.328328     21.813693     21.813693     43.627385
     -3.318318     26.233495     26.233495     52.466990
     -3.308308     30.942927     30.942927     61.885854
     -3.298298     35.228899     35.228899     70.457797
     -3.288288     38.288917     38.288917     76.577834
     -3.278278     39.410592     39.410592     78.821184
     -3.268268     38.183032     38.183032     76.366064
     -3.258258     34.655711     34.655711     69.311423
     -3.248248     29.357041     29.357041     58.714083
     -3.238238     23.144497     23.144497     46.288995
     -3.228228     16.945943     16.945943     33.891887
     -3.218218     11.506785     11.506785     23.013570
     -3.208208      7.244011      7.244011     14.488022
     -3.198198      4.242065      4.242065      8.484130
     -3.188188      2.355870      2.355870      4.711739
     -3.178178      1.353357      1.353357      2.706713
     -3.168168      1.039504      1.039504      2.079008
     -3.158158      1.334001      1.334001      2.668001
     -3.148148      2.299291      2.299291      4.598582
     -3.138138      4.123422      4.123422      8.246844
     -3.128128      7.058707      7.058707     14.117413
     -3.118118     11.316774     11.316774     22.633547
     -3.108108     16.933772     16.933772     33.867543
     -3.098098     23.644720     23.644720     47.289440
     -3.088088     30.827673     30.827673     61.655347
     -3.078078     37.574055     37.574055     75.148110
     -3.068068     42.897955     42.897955     85.795911
     -3.058058     46.026266     46.026266     92.052533
     -3.048048     46.651996     46.651996     93.303993
     -3.038038     45.029342     45.029342     90.058683
     -3.028028     41.856687     41.856687     83.713374
     -3.018018     38.000209     38.000209     76.000418
     -3.008008     34.192170     34.192170     68.384341
     -2.997998     30.843778     30.843778     61.687556
     -2.987988     28.042067     28.042067     56.084133
     -2.977978     25.700649     25.700649     51.401297
     -2.967968     23.763186     23.763186     47.526372
     -2.957958     22.347029     22.347029     44.694058
     -2.947948     21.756421     21.756421     43.512842
     -2.937938     22.361779     22.361779     44.723558
     -2.927928     24.403494     24.403494     48.806987
     -2.917918     27.813139     27.813139     55.626278
     -2.907908     32.140311     32.140311     64.280621
     -2.897898     36.630310     36.630310     73.260620
     -2.887888     40.432578     40.432578     80.865155
     -2.877878     42.859858     42.859858     85.719717
     -2.867868     43.592001     43.592001     87.184002
     -2.857858     42.740415     42.740415     85.480831
     -2.847848     40.750698     40.750698     81.501396
     -2.837838     38.193038     38.193038     76.386077
     -2.827828     35.538046     35.538046     71.076091
     -2.817818     33.016519     33.016519     66.033038
     -2.807808     30.615744     30.615744     61.231487
     -2.797798     28.195533     28.195533     56.391066
     -2.787788     25.649524     25.649524     51.299049
     -2.777778     23.020241     23.020241     46.040482
     -2.767768     20.508239     20.508239     41.016478
     -2.757758     18.378668     18.378668     36.757335
     -2.747748     16.827799     16.827799     33.655598
     -2.737738     15.893871     15.893871     31.787741
     -2.727728     15.467460     15.467460     30.934920
     -2.717718     15.393010     15.393010     30.786020
     -2.707708     15.593441     15.593441     31.186882
     -2.697698     16.132459     16.132459     32.264917
     -2.687688     17.167574     17.167574     34.335149
     -2.677678     18.818802     18.818802     37.637603
     -2.667668     21.037397     21.037397     42.074794
     -2.657658     23.565196     23.565196     47.130393
     -2.647648     26.020516     26.020516     52.041032
     -2.637638     28.064807     28.064807     56.129614
     -2.627628     29.549902     29.549902     59.099804
     -2.617618     30.557524     30.557524     61.115048
     -2.607608     31.313773     31.313773     62.627547
     -2.597598     32.041061     32.041061     64.082123
     -2.587588     32.840972     32.840972     65.681945
     -2.577578     33.664783     33.664783     67.329567
     -2.567568     34.358794     34.358794     68.717588
     -2.557558     34.728001     34.728001     69.456003
     -2.547548     34.575308     34.575308     69.150616
     -2.537538     33.722062     33.722062     67.444123
     -2.527528     32.046897     32.046897     64.093793
     -2.517518     29.561394     29.561394     59.122787
     -2.507508     26.490810     26.490810     52.981620
     -2.497497     23.295111     23.295111     46.590222
     -2.487487     20.584037     20.584037     41.168075
     -2.477477     18.940079     18.940079     37.880158
     -2.467467     18.722467     18.722467     37.444935
     -2.457457     19.944223     19.944223     39.888447
     -2.447447     22.282725     22.282725     44.565449
     -2.437437     25.221359     25.221359     50.442718
     -2.427427     28.257831     28.257831     56.515663
     -2.417417     31.082514     31.082514     62.165029
     -2.407407     33.643233     33.643233     67.286467
     -2.397397     36.066917     36.066917     72.133834
     -2.387387     38.479520     38.479520     76.959039
     -2.377377     40.819019     40.819019     81.638038
     -2.367367     42.744262     42.744262     85.488524
     -2.357357     43.698907     43.698907     87.397814
     -2.347347     43.114364     43.114364     86.228728
     -2.337337     40.664831     40.664831     81.329662
     -2.327327     36.457525     36.457525     72.915050
     -2.317317     31.069073     31.069073     62.138145
     -2.307307     25.410910     25.410910     50.821820
     -2.297297     20.483213     20.483213     40.966426
     -2.287287     17.117394     17.117394     34.234787
     -2.277277     15.795593     15.795593     31.591186
     -2.267267     16.588653     16.588653     33.177307
     -2.257257     19.204046     19.204046     38.408091
     -2.247247     23.104876     23.104876     46.209752
     -2.237237     27.652829     27.652829     55.305659
     -2.227227     32.233036     32.233036     64.466072
     -2.217217     36.331507     36.331507     72.663014
     -2.207207     39.556289     39.556289     79.112577
     -2.197197     41.619649     41.619649     83.239297
     -2.187187     42.318653     42.318653     84.637307
     -2.177177     41.549173     41.549173     83.098346
     -2.167167     39.358115     39.358115     78.716230
     -2.157157     35.997131     35.997131     71.994261
     -2.147147     31.919912     31.919912     63.839824
     -2.137137     27.687602     27.687602     55.375205
     -2.127127     23.804421     23.804421     47.608843
     -2.117117     20.559416     20.559416     41.118832
     -2.107107     17.958542     17.958542     35.917085
     -2.097097     15.783665     15.783665     31.567330
     -2.087087     13.742527     13.742527     27.485053
     -2.077077     11.625471     11.625471     23.250942
     -2.067067      9.390757      9.390757     18.781515
     -2.057057      7.150943      7.150943     14.301885
     -2.047047      5.090006      5.090006     10.180011
     -2.037037      3.368986      3.368986      6.737972
     -2.027027      2.067371      2.067371      4.134743
     -2.017017      1.175170      1.175170      2.350341
     -2.007007      0.621674      0.621674      1.243348
     -1.996997      0.316042      0.316042      0.632085
     -1.986987      0.180845      0.180845      0.361690
     -1.976977      0.172046      0.172046      0.344093
     -1.966967      0.287932      0.287932      0.575864
     -1.956957      0.571348      0.571348      1.142696
     -1.946947      1.106034      1.106034      2.212068
     -1.936937      2.003268      2.003268      4.006535
     -1.926927      3.374013      3.374013      6.748027
     -1.916917      5.286892      5.286892     10.573785
     -1.906907      7.722068      7.722068     15.444136
     -1.896897     10.539782     10.539782     21.079565
     -1.886887     13.482408     13.482408     26.964816
     -1.876877     16.217714     16.217714     32.435427
     -1.866867     18.413725     18.413725     36.827450
     -1.856857     19.822076     19.822076     39.644152
     -1.846847     20.343604     20.343604     40.687207
     -1.836837     20.055590     20.055590     40.111180
     -1.826827     19.189275     19.189275     38.378549
     -1.816817     18.057767     18.057767     36.115533
     -1.806807     16.951113     16.951113     33.902226
     -1.796797     16.034994     16.034994     32.069988
     -1.786787     15.299567     15.299567     30.599134
     -1.776777     14.590363     14.590363     29.180727
     -1.766767     13.713662     13.713662     27.427325
     -1.756757     12.565863     12.565863     25.131726
     -1.746747     11.219228     11.219228     22.438457
     -1.736737      9.918257      9.918257     19.836515
     -1.726727      8.988341      8.988341     17.976682
     -1.716717      8.702202      8.702202     17.404404
     -1.706707      9.167045      9.167045     18.334091
     -1.696697     10.281753     10.281753     20.563507
     -1.686687     11.779243     11.779243     23.558486
     -1.676677     13.330126     13.330126     26.660253
     -1.666667     14.655974     14.655974     29.311948
     -1.656657     15.597561     15.597561     31.195123
     -1.646647     16.110561     16.110561     32.221121
     -1.636637     16.205947     16.205947     32.411893
     -1.626627     15.887125     15.887125     31.774250
