# EIG2DOS: Utility for SIESTA to obtain the electronic density of states
#  E. Artacho, Apr 1999, A. Garcia, Apr 2012
#  Nick R. Papior, Feb 2017
# ------------------------------------------
# Eigenvalues calculated from a non-polarized calculation
# Eigenvalues read from siesta.EIG
# Kpoint weights read from siesta.KP
# Using smearing parameter:   0.0500
# Using 1000 points in the energy range
# Selected bands: 1 to: 2981
# Emin, Emax in file for selected band(s):    -27.0690697    218.3457260
# Nbands, Nspin, Nk   =   2981     1     1
# E_F                 =    -4.2626 eV --> (shifted to ZERO)
# Broadening          =     0.0500 eV
#
#        E            N(up)  (=)   N(down)         Ntot
     -5.000000     34.771292     34.771292     69.542585
     -4.989990     38.181444     38.181444     76.362887
     -4.979980     41.228271     41.228271     82.456542
     -4.969970     43.343191     43.343191     86.686382
     -4.959960     44.104850     44.104850     88.209701
     -4.949950     43.354221     43.354221     86.708442
     -4.939940     41.239703     41.239703     82.479406
     -4.929930     38.190322     38.190322     76.380645
     -4.919920     34.842222     34.842222     69.684443
     -4.909910     31.946830     31.946830     63.893661
     -4.899900     30.268423     30.268423     60.536846
     -4.889890     30.455553     30.455553     60.911106
     -4.879880     32.874008     32.874008     65.748016
     -4.869870     37.429115     37.429115     74.858231
     -4.859860     43.457866     43.457866     86.915732
     -4.849850     49.787744     49.787744     99.575488
     -4.839840     55.005325     55.005325    110.010650
     -4.829830     57.869452     57.869452    115.738905
     -4.819820     57.706533     57.706533    115.413066
     -4.809810     54.610382     54.610382    109.220764
     -4.799800     49.357499     49.357499     98.714997
     -4.789790     43.090266     43.090266     86.180532
     -4.779780     36.926975     36.926975     73.853949
     -4.769770     31.666947     31.666947     63.333895
     -4.759760     27.679208     27.679208     55.358415
     -4.749750     24.957805     24.957805     49.915610
     -4.739740     23.261976     23.261976     46.523951
     -4.729730     22.257024     22.257024     44.514049
     -4.719720     21.609395     21.609395     43.218789
     -4.709710     21.030981     21.030981     42.061962
     -4.699700     20.292901     20.292901     40.585802
     -4.689690     19.235639     19.235639     38.471277
     -4.679680     17.794861     17.794861     35.589723
     -4.669670     16.044448     16.044448     32.088896
     -4.659660     14.237799     14.237799     28.475598
     -4.649650     12.816697     12.816697     25.633395
     -4.639640     12.361316     12.361316     24.722633
     -4.629630     13.472864     13.472864     26.945728
     -4.619620     16.603485     16.603485     33.206970
     -4.609610     21.871357     21.871357     43.742713
     -4.599600     28.920245     28.920245     57.840490
     -4.589590     36.893753     36.893753     73.787506
     -4.579580     44.577602     44.577602     89.155205
     -4.569570     50.706910     50.706910    101.413820
     -4.559560     54.354393     54.354393    108.708786
     -4.549550     55.253282     55.253282    110.506563
     -4.539540     53.910585     53.910585    107.821171
     -4.529530     51.443726     51.443726    102.887451
     -4.519520     49.191096     49.191096     98.382192
     -4.509510     48.244554     48.244554     96.489109
     -4.499499     49.082000     49.082000     98.163999
     -4.489489     51.431773     51.431773    102.863545
     -4.479479     54.404587     54.404587    108.809174
     -4.469469     56.826740     56.826740    113.653480
     -4.459459     57.640143     57.640143    115.280285
     -4.449449     56.223269     56.223269    112.446539
     -4.439439     52.533262     52.533262    105.066525
     -4.429429     47.051017     47.051017     94.102035
     -4.419419     40.589543     40.589543     81.179087
     -4.409409     34.063719     34.063719     68.127438
     -4.399399     28.302622     28.302622     56.605245
     -4.389389     23.934143     23.934143     47.868286
     -4.379379     21.326119     21.326119     42.652237
     -4.369369     20.558403     20.558403     41.116806
     -4.359359     21.422231     21.422231     42.844462
     -4.349349     23.466567     23.466567     46.933134
     -4.339339     26.107513     26.107513     52.215027
     -4.329329     28.785195     28.785195     57.570390
     -4.319319     31.117794     31.117794     62.235588
     -4.309309     32.992811     32.992811     65.985621
     -4.299299     34.559052     34.559052     69.118103
     -4.289289     36.123176     36.123176     72.246352
     -4.279279     37.988382     37.988382     75.976763
     -4.269269     40.288519     40.288519     80.577037
     -4.259259     42.872508     42.872508     85.745016
     -4.249249     45.287051     45.287051     90.574101
     -4.239239     46.885234     46.885234     93.770467
     -4.229229     47.045590     47.045590     94.091180
     -4.219219     45.427775     45.427775     90.855551
     -4.209209     42.150653     42.150653     84.301307
     -4.199199     37.794941     37.794941     75.589881
     -4.189189     33.212577     33.212577     66.425154
     -4.179179     29.226855     29.226855     58.453710
     -4.169169     26.366173     26.366173     52.732346
     -4.159159     24.751703     24.751703     49.503405
     -4.149149     24.172243     24.172243     48.344487
     -4.139139     24.284264     24.284264     48.568529
     -4.129129     24.823361     24.823361     49.646722
     -4.119119     25.722019     25.722019     51.444039
     -4.109109     27.082075     27.082075     54.164151
     -4.099099     29.021402     29.021402     58.042803
     -4.089089     31.477674     31.477674     62.955348
     -4.079079     34.083006     34.083006     68.166013
     -4.069069     36.200331     36.200331     72.400662
     -4.059059     37.133666     37.133666     74.267331
     -4.049049     36.424019     36.424019     72.848037
     -4.039039     34.081246     34.081246     68.162491
     -4.029029     30.626142     30.626142     61.252283
     -4.019019     26.918471     26.918471     53.836941
     -4.009009     23.862441     23.862441     47.724882
     -3.998999     22.137329     22.137329     44.274658
     -3.988989     22.066521     22.066521     44.133042
     -3.978979     23.644831     23.644831     47.289662
     -3.968969     26.658298     26.658298     53.316597
     -3.958959     30.804914     30.804914     61.609829
     -3.948949     35.762366     35.762366     71.524732
     -3.938939     41.209199     41.209199     82.418397
     -3.928929     46.838855     46.838855     93.677710
     -3.918919     52.391410     52.391410    104.782821
     -3.908909     57.686830     57.686830    115.373660
     -3.898899     62.618148     62.618148    125.236296
     -3.888889     67.079737     67.079737    134.159474
     -3.878879     70.855129     70.855129    141.710259
     -3.868869     73.533849     73.533849    147.067699
     -3.858859     74.531574     74.531574    149.063147
     -3.848849     73.242701     73.242701    146.485401
     -3.838839     69.281463     69.281463    138.562927
     -3.828829     62.708611     62.708611    125.417222
     -3.818819     54.131869     54.131869    108.263739
     -3.808809     44.618715     44.618715     89.237429
     -3.798799     35.443620     35.443620     70.887241
     -3.788789     27.763417     27.763417     55.526834
     -3.778779     22.337690     22.337690     44.675379
     -3.768769     19.381245     19.381245     38.762491
     -3.758759     18.577212     18.577212     37.154424
     -3.748749     19.225076     19.225076     38.450151
     -3.738739     20.467486     20.467486     40.934972
     -3.728729     21.532957     21.532957     43.065913
     -3.718719     21.938470     21.938470     43.876940
     -3.708709     21.607879     21.607879     43.215757
     -3.698699     20.877207     20.877207     41.754413
     -3.688689     20.379250     20.379250     40.758500
     -3.678679     20.829130     20.829130     41.658260
     -3.668669     22.765984     22.765984     45.531967
     -3.658659     26.332249     26.332249     52.664498
     -3.648649     31.174111     31.174111     62.348222
     -3.638639     36.512116     36.512116     73.024231
     -3.628629     41.364962     41.364962     82.729924
     -3.618619     44.841089     44.841089     89.682177
     -3.608609     46.381810     46.381810     92.763620
     -3.598599     45.868472     45.868472     91.736945
     -3.588589     43.577634     43.577634     87.155269
     -3.578579     40.035957     40.035957     80.071915
     -3.568569     35.850364     35.850364     71.700728
     -3.558559     31.567119     31.567119     63.134239
     -3.548549     27.577803     27.577803     55.155605
     -3.538539     24.072482     24.072482     48.144965
     -3.528529     21.043342     21.043342     42.086683
     -3.518519     18.343679     18.343679     36.687359
     -3.508509     15.790852     15.790852     31.581704
     -3.498498     13.276030     13.276030     26.552060
     -3.488488     10.833184     10.833184     21.666367
     -3.478478      8.638022      8.638022     17.276044
     -3.468468      6.942888      6.942888     13.885775
     -3.458458      5.980927      5.980927     11.961853
     -3.448448      5.877613      5.877613     11.755225
     -3.438438      6.595772      6.595772     13.191544
     -3.428428      7.927014      7.927014     15.854028
     -3.418418      9.534886      9.534886     19.069771
     -3.408408     11.046850     11.046850     22.093700
     -3.398398     12.175468     12.175468     24.350936
     -3.388388     12.828463     12.828463     25.656925
     -3.378378     13.159619     13.159619     26.319237
     -3.368368     13.531191     13.531191     27.062383
     -3.358358     14.397817     14.397817     28.795633
     -3.348348     16.157330     16.157330     32.314660
     -3.338338     19.021828     19.021828     38.043655
     -3.328328     22.940700     22.940700     45.881401
     -3.318318     27.578511     27.578511     55.157022
     -3.308308     32.340229     32.340229     64.680458
     -3.298298     36.448036     36.448036     72.896072
     -3.288288     39.083500     39.083500     78.167001
     -3.278278     39.588925     39.588925     79.177851
     -3.268268     37.674305     37.674305     75.348610
     -3.258258     33.539883     33.539883     67.079766
     -3.248248     27.840894     27.840894     55.681788
     -3.238238     21.493453     21.493453     42.986906
     -3.228228     15.403339     15.403339     30.806678
     -3.218218     10.235241     10.235241     20.470483
     -3.208208      6.307492      6.307492     12.614984
     -3.198198      3.625126      3.625126      7.250251
     -3.188188      2.002375      2.002375      4.004751
     -3.178178      1.206005      1.206005      2.412009
     -3.168168      1.069208      1.069208      2.138416
     -3.158158      1.556378      1.556378      3.112757
     -3.148148      2.778609      2.778609      5.557218
     -3.138138      4.962469      4.962469      9.924938
     -3.128128      8.370509      8.370509     16.741018
     -3.118118     13.176351     13.176351     26.352703
     -3.108108     19.317940     19.317940     38.635879
     -3.098098     26.382008     26.382008     52.764017
     -3.088088     33.588963     33.588963     67.177927
     -3.078078     39.926432     39.926432     79.852864
     -3.068068     44.416780     44.416780     88.833559
     -3.058058     46.425938     46.425938     92.851877
     -3.048048     45.877320     45.877320     91.754639
     -3.038038     43.263806     43.263806     86.527612
     -3.028028     39.446492     39.446492     78.892983
     -3.018018     35.336570     35.336570     70.673140
     -3.008008     31.610337     31.610337     63.220675
     -2.997998     28.576780     28.576780     57.153560
     -2.987988     26.228635     26.228635     52.457270
     -2.977978     24.418303     24.418303     48.836607
     -2.967968     23.054834     23.054834     46.109669
     -2.957958     22.226669     22.226669     44.453338
     -2.947948     22.199018     22.199018     44.398035
     -2.937938     23.291094     23.291094     46.582189
     -2.927928     25.689033     25.689033     51.378066
     -2.917918     29.280567     29.280567     58.561135
     -2.907908     33.594439     33.594439     67.188878
     -2.897898     37.886714     37.886714     75.773428
     -2.887888     41.351186     41.351186     82.702372
     -2.877878     43.371254     43.371254     86.742509
     -2.867868     43.706953     43.706953     87.413906
     -2.857858     42.537315     42.537315     85.074629
     -2.847848     40.343629     40.343629     80.687257
     -2.837838     37.691684     37.691684     75.383369
     -2.827828     35.015144     35.015144     70.030289
     -2.817818     32.496034     32.496034     64.992067
     -2.807808     30.085572     30.085572     60.171143
     -2.797798     27.636498     27.636498     55.272996
     -2.787788     25.064019     25.064019     50.128039
     -2.777778     22.444449     22.444449     44.888899
     -2.767768     20.001817     20.001817     40.003634
     -2.757758     17.999699     17.999699     35.999397
     -2.747748     16.610244     16.610244     33.220489
     -2.737738     15.843181     15.843181     31.686362
     -2.727728     15.577614     15.577614     31.155229
     -2.717718     15.672359     15.672359     31.344717
     -2.707708     16.077976     16.077976     32.155952
     -2.697698     16.870719     16.870719     33.741439
     -2.687688     18.179740     18.179740     36.359479
     -2.677678     20.052794     20.052794     40.105588
     -2.667668     22.352940     22.352940     44.705880
     -2.657658     24.764634     24.764634     49.529269
     -2.647648     26.917905     26.917905     53.835810
     -2.637638     28.559189     28.559189     57.118378
     -2.627628     29.663021     29.663021     59.326041
     -2.617618     30.416056     30.416056     60.832112
     -2.607608     31.088593     31.088593     62.177186
     -2.597598     31.878446     31.878446     63.756892
     -2.587588     32.818270     32.818270     65.636539
     -2.577578     33.781020     33.781020     67.562039
     -2.567568     34.548849     34.548849     69.097697
     -2.557558     34.883879     34.883879     69.767759
     -2.547548     34.568843     34.568843     69.137686
     -2.537538     33.434576     33.434576     66.869151
     -2.527528     31.409119     31.409119     62.818239
     -2.517518     28.592931     28.592931     57.185863
     -2.507508     25.317363     25.317363     50.634727
     -2.497497     22.126402     22.126402     44.252804
     -2.487487     19.654940     19.654940     39.309880
     -2.477477     18.438117     18.438117     36.876233
     -2.467467     18.732684     18.732684     37.465368
     -2.457457     20.433460     20.433460     40.866920
     -2.447447     23.126232     23.126232     46.252465
     -2.437437     26.256229     26.256229     52.512458
     -2.427427     29.338131     29.338131     58.676262
     -2.417417     32.113300     32.113300     64.226599
     -2.407407     34.582484     34.582484     69.164968
     -2.397397     36.899868     36.899868     73.799736
     -2.387387     39.181821     39.181821     78.363642
     -2.377377     41.328997     41.328997     82.657993
     -2.367367     42.959777     42.959777     85.919554
     -2.357357     43.503498     43.503498     87.006996
     -2.347347     42.424093     42.424093     84.848185
     -2.337337     39.476154     39.476154     78.952309
     -2.327327     34.873014     34.873014     69.746028
     -2.317317     29.285763     29.285763     58.571527
     -2.307307     23.673279     23.673279     47.346558
     -2.297297     19.020055     19.020055     38.040111
     -2.287287     16.088861     16.088861     32.177722
     -2.277277     15.269517     15.269517     30.539035
     -2.267267     16.549433     16.549433     33.098867
     -2.257257     19.582511     19.582511     39.165022
     -2.247247     23.810837     23.810837     47.621673
     -2.237237     28.594931     28.594931     57.189862
     -2.227227     33.320089     33.320089     66.640179
     -2.217217     37.460885     37.460885     74.921770
     -2.207207     40.603103     40.603103     81.206205
     -2.197197     42.441065     42.441065     84.882130
     -2.187187     42.779694     42.779694     85.559387
     -2.177177     41.562911     41.562911     83.125822
     -2.167167     38.921584     38.921584     77.843168
     -2.157157     35.201971     35.201971     70.403943
     -2.147147     30.926932     30.926932     61.853864
     -2.137137     26.672728     26.672728     53.345456
     -2.127127     22.899748     22.899748     45.799495
     -2.117117     19.816851     19.816851     39.633701
     -2.107107     17.351687     17.351687     34.703375
     -2.097097     15.242925     15.242925     30.485850
     -2.087087     13.201751     13.201751     26.403503
     -2.077077     11.055569     11.055569     22.111138
     -2.067067      8.806885      8.806885     17.613770
     -2.057057      6.596335      6.596335     13.192669
     -2.047047      4.610628      4.610628      9.221256
     -2.037037      2.993764      2.993764      5.987527
     -2.027027      1.801344      1.801344      3.602689
     -2.017017      1.004199      1.004199      2.008399
     -2.007007      0.522523      0.522523      1.045046
     -1.996997      0.265908      0.265908      0.531816
     -1.986987      0.163421      0.163421      0.326842
     -1.976977      0.180145      0.180145      0.360289
     -1.966967      0.323966      0.323966      0.647932
     -1.956957      0.646599      0.646599      1.293199
     -1.946947      1.238546      1.238546      2.477093
     -1.936937      2.213476      2.213476      4.426953
     -1.926927      3.677639      3.677639      7.355277
     -1.916917      5.686216      5.686216     11.372432
     -1.906907      8.198685      8.198685     16.397370
     -1.896897     11.052727     11.052727     22.105454
     -1.886887     13.974146     13.974146     27.948292
     -1.876877     16.627205     16.627205     33.254411
     -1.866867     18.692481     18.692481     37.384963
     -1.856857     19.947820     19.947820     39.895639
     -1.846847     20.327284     20.327284     40.654569
     -1.836837     19.940073     19.940073     39.880146
     -1.826827     19.040898     19.040898     38.081796
     -1.816817     17.955015     17.955015     35.910029
     -1.806807     16.977570     16.977570     33.955141
     -1.796797     16.284397     16.284397     32.568794
     -1.786787     15.895530     15.895530     31.791060
     -1.776777     15.711024     15.711024     31.422047
     -1.766767     15.597247     15.597247     31.194493
     -1.756757     15.468399     15.468399     30.936799
     -1.746747     15.311043     15.311043     30.622086
     -1.736737     15.141657     15.141657     30.283315
     -1.726727     14.938796     14.938796     29.877592
     -1.716717     14.611955     14.611955     29.223909
     -1.706707     14.041619     14.041619     28.083237
     -1.696697     13.169547     13.169547     26.339095
     -1.686687     12.076947     12.076947     24.153894
     -1.676677     10.990736     10.990736     21.981471
     -1.666667     10.201434     10.201434     20.402868
     -1.656657      9.930054      9.930054     19.860107
     -1.646647     10.212421     10.212421     20.424843
     -1.636637     10.862229     10.862229     21.724459
     -1.626627     11.535800     11.535800     23.071599
