# EIG2DOS: Utility for SIESTA to obtain the electronic density of states
#  E. Artacho, Apr 1999, A. Garcia, Apr 2012
#  Nick R. Papior, Feb 2017
# ------------------------------------------
# Eigenvalues calculated from a non-polarized calculation
# Eigenvalues read from siesta.EIG
# Kpoint weights read from siesta.KP
# Using smearing parameter:   0.0500
# Using 1000 points in the energy range
# Selected bands: 1 to: 2981
# Emin, Emax in file for selected band(s):    -27.1998011    218.3516630
# Nbands, Nspin, Nk   =   2981     1     1
# E_F                 =    -4.2586 eV --> (shifted to ZERO)
# Broadening          =     0.0500 eV
#
#        E            N(up)  (=)   N(down)         Ntot
     -5.000000     32.858821     32.858821     65.717642
     -4.989990     36.815469     36.815469     73.630939
     -4.979980     40.413632     40.413632     80.827264
     -4.969970     43.084515     43.084515     86.169029
     -4.959960     44.361877     44.361877     88.723754
     -4.949950     44.020564     44.020564     88.041127
     -4.939940     42.154722     42.154722     84.309444
     -4.929930     39.173162     39.173162     78.346324
     -4.919920     35.727535     35.727535     71.455070
     -4.909910     32.606516     32.606516     65.213031
     -4.899900     30.616909     30.616909     61.233818
     -4.889890     30.447671     30.447671     60.895342
     -4.879880     32.506733     32.506733     65.013465
     -4.869870     36.750839     36.750839     73.501679
     -4.859860     42.577428     42.577428     85.154857
     -4.849850     48.869072     48.869072     97.738144
     -4.839840     54.238047     54.238047    108.476095
     -4.829830     57.419757     57.419757    114.839515
     -4.819820     57.667120     57.667120    115.334240
     -4.809810     54.973041     54.973041    109.946082
     -4.799800     50.022162     50.022162    100.044324
     -4.789790     43.905924     43.905924     87.811847
     -4.779780     37.744554     37.744554     75.489108
     -4.769770     32.381334     32.381334     64.762667
     -4.759760     28.246851     28.246851     56.493702
     -4.749750     25.389930     25.389930     50.779859
     -4.739740     23.602710     23.602710     47.205420
     -4.729730     22.557882     22.557882     45.115763
     -4.719720     21.908802     21.908802     43.817605
     -4.709710     21.343659     21.343659     42.687318
     -4.699700     20.610405     20.610405     41.220811
     -4.689690     19.536246     19.536246     39.072492
     -4.679680     18.058324     18.058324     36.116648
     -4.669670     16.266135     16.266135     32.532271
     -4.659660     14.438323     14.438323     28.876647
     -4.649650     13.046777     13.046777     26.093555
     -4.639640     12.705424     12.705424     25.410848
     -4.629630     14.056674     14.056674     28.113349
     -4.619620     17.607426     17.607426     35.214852
     -4.609610     23.545058     23.545058     47.090115
     -4.599600     31.582822     31.582822     63.165644
     -4.589590     40.898973     40.898973     81.797946
     -4.579580     50.229548     50.229548    100.459096
     -4.569570     58.134556     58.134556    116.269113
     -4.559560     63.384171     63.384171    126.768342
     -4.549550     65.337359     65.337359    130.674717
     -4.539540     64.157145     64.157145    128.314290
     -4.529530     60.754495     60.754495    121.508989
     -4.519520     56.464259     56.464259    112.928518
     -4.509510     52.577866     52.577866    105.155732
     -4.499499     49.923317     49.923317     99.846634
     -4.489489     48.656878     48.656878     97.313756
     -4.479479     48.327605     48.327605     96.655209
     -4.469469     48.152449     48.152449     96.304899
     -4.459459     47.359850     47.359850     94.719701
     -4.449449     45.457115     45.457115     90.914230
     -4.439439     42.340327     42.340327     84.680654
     -4.429429     38.251750     38.251750     76.503501
     -4.419419     33.651562     33.651562     67.303123
     -4.409409     29.082172     29.082172     58.164344
     -4.399399     25.070350     25.070350     50.140699
     -4.389389     22.065613     22.065613     44.131225
     -4.379379     20.387850     20.387850     40.775701
     -4.369369     20.168155     20.168155     40.336311
     -4.359359     21.299831     21.299831     42.599663
     -4.349349     23.439287     23.439287     46.878575
     -4.339339     26.085577     26.085577     52.171154
     -4.329329     28.726983     28.726983     57.453966
     -4.319319     31.001415     31.001415     62.002829
     -4.309309     32.803385     32.803385     65.606769
     -4.299299     34.291901     34.291901     68.583802
     -4.289289     35.794987     35.794987     71.589973
     -4.279279     37.644554     37.644554     75.289108
     -4.269269     39.997437     39.997437     79.994874
     -4.259259     42.705516     42.705516     85.411032
     -4.249249     45.292104     45.292104     90.584207
     -4.239239     47.066874     47.066874     94.133748
     -4.229229     47.361014     47.361014     94.722029
     -4.219219     45.800371     45.800371     91.600741
     -4.209209     42.493984     42.493984     84.987968
     -4.199199     38.036717     38.036717     76.073434
     -4.189189     33.310580     33.310580     66.621159
     -4.179179     29.174201     29.174201     58.348402
     -4.169169     26.187747     26.187747     52.375494
     -4.159159     24.494949     24.494949     48.989897
     -4.149149     23.894538     23.894538     47.789077
     -4.139139     24.038101     24.038101     48.076202
     -4.129129     24.641426     24.641426     49.282852
     -4.119119     25.606742     25.606742     51.213484
     -4.109109     27.005707     27.005707     54.011414
     -4.099099     28.940127     28.940127     57.880255
     -4.089089     31.356066     31.356066     62.712132
     -4.079079     33.917174     33.917174     67.834347
     -4.069069     36.025741     36.025741     72.051482
     -4.059059     37.010547     37.010547     74.021094
     -4.049049     36.406592     36.406592     72.813183
     -4.039039     34.187986     34.187986     68.375971
     -4.029029     30.828602     30.828602     61.657204
     -4.019019     27.154962     27.154962     54.309925
     -4.009009     24.067617     24.067617     48.135233
     -3.998999     22.269949     22.269949     44.539898
     -3.988989     22.120755     22.120755     44.241511
     -3.978979     23.642122     23.642122     47.284244
     -3.968969     26.628299     26.628299     53.256597
     -3.958959     30.767991     30.767991     61.535981
     -3.948949     35.721660     35.721660     71.443321
     -3.938939     41.152271     41.152271     82.304542
     -3.928929     46.743840     46.743840     93.487681
     -3.918919     52.233203     52.233203    104.466406
     -3.908909     57.442847     57.442847    114.885694
     -3.898899     62.276151     62.276151    124.552302
     -3.888889     66.648902     66.648902    133.297804
     -3.878879     70.376845     70.376845    140.753690
     -3.868869     73.084569     73.084569    146.169137
     -3.858859     74.210669     74.210669    148.421338
     -3.848849     73.144968     73.144968    146.289935
     -3.838839     69.463362     69.463362    138.926724
     -3.828829     63.163305     63.163305    126.326610
     -3.818819     54.785803     54.785803    109.571607
     -3.808809     45.352483     45.352483     90.704965
     -3.798799     36.128232     36.128232     72.256464
     -3.788789     28.296819     28.296819     56.593638
     -3.778779     22.668390     22.668390     45.336780
     -3.768769     19.513418     19.513418     39.026836
     -3.758759     18.559421     18.559421     37.118842
     -3.748749     19.129133     19.129133     38.258267
     -3.738739     20.364626     20.364626     40.729252
     -3.728729     21.473182     21.473182     42.946364
     -3.718719     21.937267     21.937267     43.874534
     -3.708709     21.642953     21.642953     43.285907
     -3.698699     20.896261     20.896261     41.792523
     -3.688689     20.317656     20.317656     40.635313
     -3.678679     20.633574     20.633574     41.267147
     -3.668669     22.417296     22.417296     44.834592
     -3.658659     25.859086     25.859086     51.718172
     -3.648649     30.650694     30.650694     61.301388
     -3.638639     36.038750     36.038750     72.077499
     -3.628629     41.037705     41.037705     82.075409
     -3.618619     44.722683     44.722683     89.445365
     -3.608609     46.485734     46.485734     92.971468
     -3.598599     46.161338     46.161338     92.322677
     -3.588589     43.996141     43.996141     87.992283
     -3.578579     40.508886     40.508886     81.017772
     -3.568569     36.316559     36.316559     72.633118
     -3.558559     31.985245     31.985245     63.970490
     -3.548549     27.928503     27.928503     55.857006
     -3.538539     24.355518     24.355518     48.711036
     -3.528529     21.271693     21.271693     42.543386
     -3.518519     18.535776     18.535776     37.071552
     -3.508509     15.962389     15.962389     31.924777
     -3.498498     13.433629     13.433629     26.867257
     -3.488488     10.972036     10.972036     21.944071
     -3.478478      8.744167      8.744167     17.488335
     -3.468468      6.998968      6.998968     13.997935
     -3.458458      5.973285      5.973285     11.946570
     -3.448448      5.802714      5.802714     11.605429
     -3.438438      6.464316      6.464316     12.928633
     -3.428428      7.764281      7.764281     15.528561
     -3.418418      9.376131      9.376131     18.752262
     -3.408408     10.927811     10.927811     21.855621
     -3.398398     12.120249     12.120249     24.240498
     -3.388388     12.839036     12.839036     25.678072
     -3.378378     13.211179     13.211179     26.422357
     -3.368368     13.575377     13.575377     27.150753
     -3.358358     14.372844     14.372844     28.745688
     -3.348348     16.002461     16.002461     32.004921
     -3.338338     18.693865     18.693865     37.387730
     -3.328328     22.430835     22.430835     44.861670
     -3.318318     26.926799     26.926799     53.853599
     -3.308308     31.642709     31.642709     63.285418
     -3.298298     35.851173     35.851173     71.702347
     -3.288288     38.765602     38.765602     77.531205
     -3.278278     39.737155     39.737155     79.474310
     -3.268268     38.472112     38.472112     76.944225
     -3.258258     35.175079     35.175079     70.350158
     -3.248248     30.528032     30.528032     61.056063
     -3.238238     25.485343     25.485343     50.970686
     -3.228228     20.961175     20.961175     41.922349
     -3.218218     17.544966     17.544966     35.089932
     -3.208208     15.365965     15.365965     30.731931
     -3.198198     14.151881     14.151881     28.303762
     -3.188188     13.437092     13.437092     26.874183
     -3.178178     12.818472     12.818472     25.636943
     -3.168168     12.151875     12.151875     24.303750
     -3.158158     11.621012     11.621012     23.242024
     -3.148148     11.667281     11.667281     23.334563
     -3.138138     12.817592     12.817592     25.635183
     -3.128128     15.472764     15.472764     30.945528
     -3.118118     19.722552     19.722552     39.445104
     -3.108108     25.243425     25.243425     50.486851
     -3.098098     31.316965     31.316965     62.633931
     -3.088088     36.977535     36.977535     73.955070
     -3.078078     41.256437     41.256437     82.512874
     -3.068068     43.447045     43.447045     86.894090
     -3.058058     43.294363     43.294363     86.588726
     -3.048048     41.033296     41.033296     82.066593
     -3.038038     37.261635     37.261635     74.523269
     -3.028028     32.708566     32.708566     65.417131
     -3.018018     28.006399     28.006399     56.012799
     -3.008008     23.563717     23.563717     47.127434
     -2.997998     19.577357     19.577357     39.154714
     -2.987988     16.145466     16.145466     32.290932
     -2.977978     13.398624     13.398624     26.797248
     -2.967968     11.571946     11.571946     23.143892
     -2.957958     10.984552     10.984552     21.969105
     -2.947948     11.941334     11.941334     23.882668
     -2.937938     14.600916     14.600916     29.201831
     -2.927928     18.859986     18.859986     37.719973
     -2.917918     24.297467     24.297467     48.594935
     -2.907908     30.208574     30.208574     60.417149
     -2.897898     35.736077     35.736077     71.472155
     -2.887888     40.071954     40.071954     80.143907
     -2.877878     42.667089     42.667089     85.334177
     -2.867868     43.370116     43.370116     86.740232
     -2.857858     42.435452     42.435452     84.870904
     -2.847848     40.392778     40.392778     80.785557
     -2.837838     37.832091     37.832091     75.664181
     -2.827828     35.197662     35.197662     70.395324
     -2.817818     32.678757     32.678757     65.357513
     -2.807808     30.235878     30.235878     60.471757
     -2.797798     27.733503     27.733503     55.467006
     -2.787788     25.098907     25.098907     50.197814
     -2.777778     22.418927     22.418927     44.837853
     -2.767768     19.926114     19.926114     39.852227
     -2.757758     17.890872     17.890872     35.781744
     -2.747748     16.490151     16.490151     32.980302
     -2.737738     15.734888     15.734888     31.469776
     -2.727728     15.500031     15.500031     31.000061
     -2.717718     15.634719     15.634719     31.269439
     -2.707708     16.076951     16.076951     32.153902
     -2.697698     16.892069     16.892069     33.784139
     -2.687688     18.203904     18.203904     36.407808
     -2.677678     20.061282     20.061282     40.122564
     -2.667668     22.331879     22.331879     44.663759
     -2.657658     24.703891     24.703891     49.407782
     -2.647648     26.807514     26.807514     53.615027
     -2.637638     28.387052     28.387052     56.774104
     -2.627628     29.417160     29.417160     58.834320
     -2.617618     30.091422     30.091422     60.182843
     -2.607608     30.694758     30.694758     61.389515
     -2.597598     31.443208     31.443208     62.886416
     -2.587588     32.384398     32.384398     64.768795
     -2.577578     33.397564     33.397564     66.795129
     -2.567568     34.261369     34.261369     68.522737
     -2.557558     34.727307     34.727307     69.454613
     -2.547548     34.563405     34.563405     69.126810
     -2.537538     33.582541     33.582541     67.165082
     -2.527528     31.690851     31.690851     63.381703
     -2.517518     28.964176     28.964176     57.928352
     -2.507508     25.712256     25.712256     51.424512
     -2.497497     22.469366     22.469366     44.938731
     -2.487487     19.879718     19.879718     39.759435
     -2.477477     18.507123     18.507123     37.014245
     -2.467467     18.648246     18.648246     37.296491
     -2.457457     20.235582     20.235582     40.471165
     -2.447447     22.877524     22.877524     45.755047
     -2.437437     26.020281     26.020281     52.040562
     -2.427427     29.160086     29.160086     58.320172
     -2.417417     32.009472     32.009472     64.018943
     -2.407407     34.541274     34.541274     69.082547
     -2.397397     36.891778     36.891778     73.783556
     -2.387387     39.174269     39.174269     78.348538
     -2.377377     41.301538     41.301538     82.603075
     -2.367367     42.915480     42.915480     85.830960
     -2.357357     43.471979     43.471979     86.943959
     -2.347347     42.452982     42.452982     84.905964
     -2.337337     39.612306     39.612306     79.224611
     -2.327327     35.141089     35.141089     70.282177
     -2.317317     29.675014     29.675014     59.350027
     -2.307307     24.139802     24.139802     48.279605
     -2.297297     19.503039     19.503039     39.006078
     -2.287287     16.531466     16.531466     33.062932
     -2.277277     15.633516     15.633516     31.267032
     -2.267267     16.817890     16.817890     33.635780
     -2.257257     19.752462     19.752462     39.504925
     -2.247247     23.883037     23.883037     47.766075
     -2.237237     28.567896     28.567896     57.135793
     -2.227227     33.191883     33.191883     66.383767
     -2.217217     37.236992     37.236992     74.473983
     -2.207207     40.304948     40.304948     80.609897
     -2.197197     42.109019     42.109019     84.218038
     -2.187187     42.466929     42.466929     84.933858
     -2.177177     41.321310     41.321310     82.642619
     -2.167167     38.785542     38.785542     77.571083
     -2.157157     35.177902     35.177902     70.355804
     -2.147147     30.993970     30.993970     61.987939
     -2.137137     26.794438     26.794438     53.588877
     -2.127127     23.040773     23.040773     46.081546
     -2.117117     19.955947     19.955947     39.911895
     -2.107107     17.485198     17.485198     34.970395
     -2.097097     15.378618     15.378618     30.757235
     -2.087087     13.348265     13.348265     26.696531
     -2.077077     11.214168     11.214168     22.428335
     -2.067067      8.969510      8.969510     17.939020
     -2.057057      6.749500      6.749500     13.499001
     -2.047047      4.741586      4.741586      9.483172
     -2.037037      3.095144      3.095144      6.190289
     -2.027027      1.872431      1.872431      3.744863
     -2.017017      1.049283      1.049283      2.098565
     -2.007007      0.547967      0.547967      1.095933
     -1.996997      0.277427      0.277427      0.554853
     -1.986987      0.164218      0.164218      0.328436
     -1.976977      0.169838      0.169838      0.339676
     -1.966967      0.298036      0.298036      0.596072
     -1.956957      0.596423      0.596423      1.192847
     -1.946947      1.152587      1.152587      2.305174
     -1.936937      2.080434      2.080434      4.160867
     -1.926927      3.491950      3.491950      6.983899
     -1.916917      5.455269      5.455269     10.910539
     -1.906907      7.950162      7.950162     15.900323
     -1.896897     10.840665     10.840665     21.681331
     -1.886887     13.884128     13.884128     27.768257
     -1.876877     16.783271     16.783271     33.566542
     -1.866867     19.268235     19.268235     38.536469
     -1.856857     21.179253     21.179253     42.358506
     -1.846847     22.516035     22.516035     45.032070
     -1.836837     23.428858     23.428858     46.857717
     -1.826827     24.145690     24.145690     48.291381
     -1.816817     24.855340     24.855340     49.710680
     -1.806807     25.592012     25.592012     51.184025
     -1.796797     26.178710     26.178710     52.357421
     -1.786787     26.270715     26.270715     52.541430
     -1.776777     25.493974     25.493974     50.987949
     -1.766767     23.618797     23.618797     47.237594
     -1.756757     20.682880     20.682880     41.365759
     -1.746747     17.001583     17.001583     34.003167
     -1.736737     13.064784     13.064784     26.129568
     -1.726727      9.378678      9.378678     18.757357
     -1.716717      6.330962      6.330962     12.661924
     -1.706707      4.131693      4.131693      8.263386
     -1.696697      2.833117      2.833117      5.666234
     -1.686687      2.391845      2.391845      4.783690
     -1.676677      2.725318      2.725318      5.450636
     -1.666667      3.730613      3.730613      7.461226
     -1.656657      5.263786      5.263786     10.527572
     -1.646647      7.105661      7.105661     14.211321
     -1.636637      8.952076      8.952076     17.904152
     -1.626627     10.456360     10.456360     20.912719
