# EIG2DOS: Utility for SIESTA to obtain the electronic density of states
#  E. Artacho, Apr 1999, A. Garcia, Apr 2012
#  Nick R. Papior, Feb 2017
# ------------------------------------------
# Eigenvalues calculated from a non-polarized calculation
# Eigenvalues read from siesta.EIG
# Kpoint weights read from siesta.KP
# Using smearing parameter:   0.0500
# Using 1000 points in the energy range
# Selected bands: 1 to: 2981
# Emin, Emax in file for selected band(s):    -27.0728090    218.3243760
# Nbands, Nspin, Nk   =   2981     1     1
# E_F                 =    -4.2870 eV --> (shifted to ZERO)
# Broadening          =     0.0500 eV
#
#        E            N(up)  (=)   N(down)         Ntot
     -5.000000     40.380957     40.380957     80.761915
     -4.989990     42.038190     42.038190     84.076381
     -4.979980     43.381171     43.381171     86.762341
     -4.969970     44.151730     44.151730     88.303460
     -4.959960     44.068974     44.068974     88.137947
     -4.949950     42.957997     42.957997     85.915993
     -4.939940     40.844825     40.844825     81.689650
     -4.929930     37.990767     37.990767     75.981535
     -4.919920     34.872031     34.872031     69.744062
     -4.909910     32.123484     32.123484     64.246968
     -4.899900     30.453953     30.453953     60.907907
     -4.889890     30.521216     30.521216     61.042433
     -4.879880     32.755854     32.755854     65.511709
     -4.869870     37.160122     37.160122     74.320243
     -4.859860     43.163098     43.163098     86.326195
     -4.849850     49.639174     49.639174     99.278348
     -4.839840     55.151448     55.151448    110.302895
     -4.829830     58.370645     58.370645    116.741290
     -4.819820     58.507202     58.507202    117.014405
     -4.809810     55.560403     55.560403    111.120806
     -4.799800     50.269612     50.269612    100.539223
     -4.789790     43.803912     43.803912     87.607823
     -4.779780     37.351615     37.351615     74.703229
     -4.769770     31.794113     31.794113     63.588227
     -4.759760     27.568976     27.568976     55.137951
     -4.749750     24.712350     24.712350     49.424701
     -4.739740     22.996467     22.996467     45.992933
     -4.729730     22.073212     22.073212     44.146423
     -4.719720     21.575190     21.575190     43.150381
     -4.709710     21.169574     21.169574     42.339148
     -4.699700     20.583714     20.583714     41.167427
     -4.689690     19.625114     19.625114     39.250227
     -4.679680     18.210412     18.210412     36.420825
     -4.669670     16.404123     16.404123     32.808246
     -4.659660     14.452608     14.452608     28.905215
     -4.649650     12.789476     12.789476     25.578953
     -4.639640     11.991037     11.991037     23.982074
     -4.629630     12.673033     12.673033     25.346067
     -4.619620     15.336645     15.336645     30.673290
     -4.609610     20.190169     20.190169     40.380337
     -4.599600     26.994239     26.994239     53.988479
     -4.589590     34.997324     34.997324     69.994647
     -4.579580     43.025769     43.025769     86.051539
     -4.569570     49.749454     49.749454     99.498909
     -4.559560     54.064349     54.064349    108.128698
     -4.549550     55.456150     55.456150    110.912300
     -4.539540     54.187669     54.187669    108.375338
     -4.529530     51.214004     51.214004    102.428008
     -4.519520     47.848952     47.848952     95.697905
     -4.509510     45.319191     45.319191     90.638383
     -4.499499     44.387093     44.387093     88.774185
     -4.489489     45.177855     45.177855     90.355710
     -4.479479     47.242769     47.242769     94.485537
     -4.469469     49.787864     49.787864     99.575727
     -4.459459     51.947561     51.947561    103.895123
     -4.449449     53.001297     53.001297    106.002594
     -4.439439     52.492162     52.492162    104.984325
     -4.429429     50.265485     50.265485    100.530969
     -4.419419     46.467431     46.467431     92.934862
     -4.409409     41.525587     41.525587     83.051173
     -4.399399     36.100365     36.100365     72.200729
     -4.389389     30.981472     30.981472     61.962943
     -4.379379     26.923756     26.923756     53.847512
     -4.369369     24.459062     24.459062     48.918124
     -4.359359     23.753630     23.753630     47.507260
     -4.349349     24.576825     24.576825     49.153650
     -4.339339     26.403437     26.403437     52.806873
     -4.329329     28.611656     28.611656     57.223312
     -4.319319     30.696278     30.696278     61.392555
     -4.309309     32.414296     32.414296     64.828593
     -4.299299     33.815653     33.815653     67.631305
     -4.289289     35.161781     35.161781     70.323562
     -4.279279     36.772193     36.772193     73.544385
     -4.269269     38.853412     38.853412     77.706823
     -4.259259     41.362776     41.362776     82.725553
     -4.249249     43.953373     43.953373     87.906746
     -4.239239     46.034328     46.034328     92.068655
     -4.229229     46.949698     46.949698     93.899396
     -4.219219     46.225723     46.225723     92.451446
     -4.209209     43.784622     43.784622     87.569243
     -4.199199     40.015587     40.015587     80.031174
     -4.189189     35.652947     35.652947     71.305895
     -4.179179     31.511799     31.511799     63.023597
     -4.169169     28.209574     28.209574     56.419148
     -4.159159     26.005582     26.005582     52.011163
     -4.149149     24.819213     24.819213     49.638425
     -4.139139     24.390547     24.390547     48.781093
     -4.129129     24.482198     24.482198     48.964397
     -4.119119     25.015281     25.015281     50.030562
     -4.109109     26.075363     26.075363     52.150726
     -4.099099     27.790070     27.790070     55.580139
     -4.089089     30.143766     30.143766     60.287532
     -4.079079     32.834189     32.834189     65.668379
     -4.069069     35.268667     35.268667     70.537334
     -4.059059     36.734128     36.734128     73.468256
     -4.049049     36.678405     36.678405     73.356809
     -4.039039     34.965559     34.965559     69.931119
     -4.029029     31.968923     31.968923     63.937846
     -4.019019     28.450304     28.450304     56.900607
     -4.009009     25.291279     25.291279     50.582558
     -3.998999     23.216419     23.216419     46.432838
     -3.988989     22.633517     22.633517     45.267034
     -3.978979     23.630324     23.630324     47.260648
     -3.968969     26.074984     26.074984     52.149968
     -3.958959     29.729019     29.729019     59.458037
     -3.948949     34.311808     34.311808     68.623616
     -3.938939     39.517756     39.517756     79.035513
     -3.928929     45.027789     45.027789     90.055578
     -3.918919     50.547061     50.547061    101.094121
     -3.908909     55.856816     55.856816    111.713632
     -3.898899     60.833497     60.833497    121.666994
     -3.888889     65.395950     65.395950    130.791901
     -3.878879     69.390092     69.390092    138.780184
     -3.868869     72.475629     72.475629    144.951259
     -3.858859     74.100744     74.100744    148.201489
     -3.848849     73.617654     73.617654    147.235309
     -3.838839     70.517989     70.517989    141.035978
     -3.828829     64.692380     64.692380    129.384760
     -3.818819     56.588886     56.588886    113.177772
     -3.808809     47.181767     47.181767     94.363533
     -3.798799     37.747992     37.747992     75.495985
     -3.788789     29.535679     29.535679     59.071358
     -3.778779     23.449533     23.449533     46.899065
     -3.768769     19.858107     19.858107     39.716215
     -3.758759     18.567816     18.567816     37.135631
     -3.748749     18.946696     18.946696     37.893391
     -3.738739     20.143121     20.143121     40.286242
     -3.728729     21.334360     21.334360     42.668721
     -3.718719     21.946133     21.946133     43.892266
     -3.708709     21.795977     21.795977     43.591954
     -3.698699     21.127334     21.127334     42.254668
     -3.688689     20.520724     20.520724     41.041448
     -3.678679     20.696391     20.696391     41.392782
     -3.668669     22.256958     22.256958     44.513916
     -3.658659     25.448619     25.448619     50.897238
     -3.648649     30.028306     30.028306     60.056613
     -3.638639     35.297265     35.297265     70.594530
     -3.628629     40.299109     40.299109     80.598218
     -3.618619     44.107925     44.107925     88.215851
     -3.608609     46.089997     46.089997     92.179994
     -3.598599     46.040163     46.040163     92.080327
     -3.588589     44.161787     44.161787     88.323574
     -3.578579     40.933394     40.933394     81.866788
     -3.568569     36.939273     36.939273     73.878546
     -3.558559     32.724919     32.724919     65.449838
     -3.548549     28.699961     28.699961     57.399922
     -3.538539     25.087542     25.087542     50.175083
     -3.528529     21.919815     21.919815     43.839629
     -3.518519     19.084624     19.084624     38.169249
     -3.508509     16.417343     16.417343     32.834685
     -3.498498     13.807137     13.807137     27.614274
     -3.488488     11.272004     11.272004     22.544009
     -3.478478      8.969321      8.969321     17.938641
     -3.468468      7.141522      7.141522     14.283044
     -3.458458      6.025918      6.025918     12.051837
     -3.448448      5.766009      5.766009     11.532019
     -3.438438      6.351719      6.351719     12.703439
     -3.428428      7.602631      7.602631     15.205262
     -3.418418      9.200697      9.200697     18.401395
     -3.408408     10.772264     10.772264     21.544529
     -3.398398     12.004398     12.004398     24.008797
     -3.388388     12.759291     12.759291     25.518582
     -3.378378     13.138615     13.138615     26.277229
     -3.368368     13.463178     13.463178     26.926356
     -3.358358     14.170397     14.170397     28.340794
     -3.348348     15.670587     15.670587     31.341174
     -3.338338     18.216500     18.216500     36.433000
     -3.328328     21.821672     21.821672     43.643344
     -3.318318     26.231488     26.231488     52.462975
     -3.308308     30.935494     30.935494     61.870988
     -3.298298     35.220935     35.220935     70.441869
     -3.288288     38.285046     38.285046     76.570092
     -3.278278     39.414703     39.414703     78.829406
     -3.268268     38.197577     38.197577     76.395155
     -3.258258     34.680928     34.680928     69.361856
     -3.248248     29.390634     29.390634     58.781269
     -3.238238     23.182209     23.182209     46.364418
     -3.228228     16.982867     16.982867     33.965735
     -3.218218     11.538806     11.538806     23.077613
     -3.208208      7.268695      7.268695     14.537390
     -3.198198      4.258686      4.258686      8.517371
     -3.188188      2.364727      2.364727      4.729454
     -3.178178      1.354841      1.354841      2.709681
     -3.168168      1.033393      1.033393      2.066786
     -3.158158      1.319384      1.319384      2.638768
     -3.148148      2.275329      2.275329      4.550657
     -3.138138      4.090858      4.090858      8.181717
     -3.128128      7.021560      7.021560     14.043120
     -3.118118     11.283105     11.283105     22.566210
     -3.108108     16.914265     16.914265     33.828529
     -3.098098     23.648478     23.648478     47.296955
     -3.088088     30.856115     30.856115     61.712230
     -3.078078     37.615292     37.615292     75.230583
     -3.068068     42.924438     42.924438     85.848877
     -3.058058     45.997373     45.997373     91.994745
     -3.048048     46.521355     46.521355     93.042710
     -3.038038     44.755478     44.755478     89.510956
     -3.028028     41.415497     41.415497     82.830995
     -3.018018     37.397728     37.397728     74.795457
     -3.008008     33.474619     33.474619     66.949238
     -2.997998     30.099375     30.099375     60.198750
     -2.987988     27.388587     27.388587     54.777173
     -2.977978     25.257256     25.257256     50.514511
     -2.967968     23.613973     23.613973     47.227946
     -2.957958     22.511372     22.511372     45.022745
     -2.947948     22.181083     22.181083     44.362166
     -2.937938     22.939947     22.939947     45.879894
     -2.927928     25.012150     25.012150     50.024299
     -2.917918     28.351341     28.351341     56.702681
     -2.907908     32.552429     32.552429     65.104858
     -2.897898     36.908036     36.908036     73.816072
     -2.887888     40.600475     40.600475     81.200951
     -2.877878     42.955120     42.955120     85.910241
     -2.867868     43.648153     43.648153     87.296307
     -2.857858     42.779667     42.779667     85.559334
     -2.847848     40.784301     40.784301     81.568601
     -2.837838     38.225927     38.225927     76.451855
     -2.827828     35.573628     35.573628     71.147255
     -2.817818     33.058964     33.058964     66.117927
     -2.807808     30.669297     30.669297     61.338593
     -2.797798     28.262157     28.262157     56.524314
     -2.787788     25.726883     25.726883     51.453766
     -2.777778     23.101529     23.101529     46.203057
     -2.767768     20.584072     20.584072     41.168143
     -2.757758     18.439916     18.439916     36.879833
     -2.747748     16.867679     16.867679     33.735358
     -2.737738     15.908053     15.908053     31.816106
     -2.727728     15.452266     15.452266     30.904532
     -2.717718     15.343159     15.343159     30.686318
     -2.707708     15.501539     15.501539     31.003077
     -2.697698     15.991772     15.991772     31.983543
     -2.687688     16.977740     16.977740     33.955480
     -2.677678     18.591809     18.591809     37.183618
     -2.667668     20.799961     20.799961     41.599922
     -2.657658     23.354699     23.354699     46.709399
     -2.647648     25.874932     25.874932     51.749864
     -2.637638     28.010655     28.010655     56.021311
     -2.627628     29.593874     29.593874     59.187748
     -2.617618     30.685606     30.685606     61.371211
     -2.607608     31.497587     31.497587     62.995173
     -2.597598     32.247547     32.247547     64.495095
     -2.587588     33.040817     33.040817     66.081633
     -2.577578     33.837094     33.837094     67.674187
     -2.567568     34.492359     34.492359     68.984718
     -2.557558     34.820754     34.820754     69.641508
     -2.547548     34.632997     34.632997     69.265993
     -2.537538     33.755955     33.755955     67.511911
     -2.527528     32.070119     32.070119     64.140238
     -2.517518     29.584403     29.584403     59.168806
     -2.507508     26.517623     26.517623     53.035247
     -2.497497     23.321972     23.321972     46.643944
     -2.487487     20.601222     20.601222     41.202445
     -2.477477     18.936103     18.936103     37.872206
     -2.467467     18.688971     18.688971     37.377943
     -2.457457     19.879625     19.879625     39.759249
     -2.447447     22.193232     22.193232     44.386465
     -2.437437     25.118938     25.118938     50.237875
     -2.427427     28.155969     28.155969     56.311937
     -2.417417     30.991791     30.991791     61.983583
     -2.407407     33.569028     33.569028     67.138056
     -2.397397     36.010522     36.010522     72.021045
     -2.387387     38.441845     38.441845     76.883689
     -2.377377     40.804142     40.804142     81.608284
     -2.367367     42.759932     42.759932     85.519864
     -2.357357     43.753059     43.753059     87.506119
     -2.347347     43.209567     43.209567     86.419134
     -2.337337     40.794229     40.794229     81.588458
     -2.327327     36.604987     36.604987     73.209974
     -2.317317     31.213507     31.213507     62.427013
     -2.307307     25.532133     25.532133     51.064267
     -2.297297     20.566188     20.566188     41.132376
     -2.287287     17.153267     17.153267     34.306533
     -2.277277     15.780394     15.780394     31.560788
     -2.267267     16.521907     16.521907     33.043815
     -2.257257     19.089039     19.089039     38.178079
     -2.247247     22.950513     22.950513     45.901026
     -2.237237     27.475325     27.475325     54.950649
     -2.227227     32.055347     32.055347     64.110693
     -2.217217     36.179623     36.179623     72.359245
     -2.207207     39.453393     39.453393     78.906785
     -2.197197     41.580422     41.580422     83.160844
     -2.187187     42.345895     42.345895     84.691791
     -2.177177     41.633727     41.633727     83.267454
     -2.167167     39.481755     39.481755     78.963511
     -2.157157     36.137311     36.137311     72.274623
     -2.147147     32.055108     32.055108     64.110215
     -2.137137     27.802007     27.802007     55.604015
     -2.127127     23.890853     23.890853     47.781706
     -2.117117     20.619567     20.619567     41.239135
     -2.107107     18.000519     18.000519     36.001038
     -2.097097     15.817790     15.817790     31.635581
     -2.087087     13.777154     13.777154     27.554308
     -2.077077     11.664449     11.664449     23.328898
     -2.067067      9.433266      9.433266     18.866532
     -2.057057      7.193229      7.193229     14.386458
     -2.047047      5.127784      5.127784     10.255568
     -2.037037      3.399295      3.399295      6.798589
     -2.027027      2.089288      2.089288      4.178576
     -2.017017      1.189504      1.189504      2.379008
     -2.007007      0.630151      0.630151      1.260303
     -1.996997      0.320504      0.320504      0.641007
     -1.986987      0.182724      0.182724      0.365449
     -1.976977      0.172154      0.172154      0.344309
     -1.966967      0.286443      0.286443      0.572885
     -1.956957      0.567884      0.567884      1.135769
     -1.946947      1.099831      1.099831      2.199662
     -1.936937      1.993439      1.993439      3.986878
     -1.926927      3.359951      3.359951      6.719902
     -1.916917      5.268726      5.268726     10.537451
     -1.906907      7.701017      7.701017     15.402035
     -1.896897     10.518179     10.518179     21.036357
     -1.886887     13.463240     13.463240     26.926479
     -1.876877     16.203778     16.203778     32.407557
     -1.866867     18.406687     18.406687     36.813374
     -1.856857     19.821823     19.821823     39.643647
     -1.846847     20.348197     20.348197     40.696394
     -1.836837     20.061860     20.061860     40.123720
     -1.826827     19.193897     19.193897     38.387795
     -1.816817     18.058503     18.058503     36.117006
     -1.806807     16.947872     16.947872     33.895744
     -1.796797     16.030434     16.030434     32.060868
     -1.786787     15.299130     15.299130     30.598261
     -1.776777     14.601897     14.601897     29.203794
     -1.766767     13.746929     13.746929     27.493858
     -1.756757     12.632063     12.632063     25.264126
     -1.746747     11.330080     11.330080     22.660161
     -1.736737     10.083648     10.083648     20.167296
     -1.726727      9.211752      9.211752     18.423505
     -1.716717      8.974573      8.974573     17.949146
     -1.706707      9.461833      9.461833     18.923665
     -1.696697     10.555205     10.555205     21.110411
     -1.686687     11.978663     11.978663     23.957326
     -1.676677     13.408993     13.408993     26.817986
     -1.666667     14.590302     14.590302     29.180604
     -1.656657     15.395923     15.395923     30.791847
     -1.646647     15.812565     15.812565     31.625130
     -1.636637     15.869541     15.869541     31.739082
     -1.626627     15.570411     15.570411     31.140821
