# EIG2DOS: Utility for SIESTA to obtain the electronic density of states
#  E. Artacho, Apr 1999, A. Garcia, Apr 2012
#  Nick R. Papior, Feb 2017
# ------------------------------------------
# Eigenvalues calculated from a non-polarized calculation
# Eigenvalues read from siesta.EIG
# Kpoint weights read from siesta.KP
# Using smearing parameter:   0.0500
# Using 1000 points in the energy range
# Selected bands: 1 to: 2981
# Emin, Emax in file for selected band(s):    -27.1210545    218.3273230
# Nbands, Nspin, Nk   =   2981     1     1
# E_F                 =    -4.2820 eV --> (shifted to ZERO)
# Broadening          =     0.0500 eV
#
#        E            N(up)  (=)   N(down)         Ntot
     -5.000000     43.503570     43.503570     87.007140
     -4.989990     45.036330     45.036330     90.072661
     -4.979980     45.842900     45.842900     91.685800
     -4.969970     45.822446     45.822446     91.644892
     -4.959960     44.880833     44.880833     89.761666
     -4.949950     43.006476     43.006476     86.012951
     -4.939940     40.333677     40.333677     80.667354
     -4.929930     37.171028     37.171028     74.342056
     -4.919920     33.993698     33.993698     67.987396
     -4.909910     31.405517     31.405517     62.811034
     -4.899900     30.066229     30.066229     60.132458
     -4.889890     30.567436     30.567436     61.134871
     -4.879880     33.252092     33.252092     66.504183
     -4.869870     38.016418     38.016418     76.032837
     -4.859860     44.185653     44.185653     88.371306
     -4.849850     50.568249     50.568249    101.136497
     -4.839840     55.732888     55.732888    111.465776
     -4.829830     58.436642     58.436642    116.873284
     -4.819820     58.030557     58.030557    116.061115
     -4.809810     54.656323     54.656323    109.312646
     -4.799800     49.145181     49.145181     98.290363
     -4.789790     42.681107     42.681107     85.362215
     -4.779780     36.398841     36.398841     72.797683
     -4.769770     31.090438     31.090438     62.180875
     -4.759760     27.104967     27.104967     54.209933
     -4.749750     24.415973     24.415973     48.831945
     -4.739740     22.768551     22.768551     45.537101
     -4.729730     21.821165     21.821165     43.642329
     -4.719720     21.238573     21.238573     42.477146
     -4.709710     20.733590     20.733590     41.467181
     -4.699700     20.078503     20.078503     40.157006
     -4.689690     19.112670     19.112670     38.225340
     -4.679680     17.766096     17.766096     35.532193
     -4.669670     16.102110     16.102110     32.204221
     -4.659660     14.361323     14.361323     28.722645
     -4.649650     12.975315     12.975315     25.950629
     -4.639640     12.521130     12.521130     25.042259
     -4.629630     13.605587     13.605587     27.211174
     -4.619620     16.693251     16.693251     33.386502
     -4.609610     21.917002     21.917002     43.834004
     -4.599600     28.932246     28.932246     57.864492
     -4.589590     36.886433     36.886433     73.772865
     -4.579580     44.558051     44.558051     89.116102
     -4.569570     50.662616     50.662616    101.325231
     -4.559560     54.242211     54.242211    108.484422
     -4.549550     54.993218     54.993218    109.986436
     -4.539540     53.388896     53.388896    106.777791
     -4.529530     50.530519     50.530519    101.061039
     -4.519520     47.776342     47.776342     95.552684
     -4.509510     46.290631     46.290631     92.581263
     -4.499499     46.679853     46.679853     93.359707
     -4.489489     48.835362     48.835362     97.670724
     -4.479479     52.014219     52.014219    104.028438
     -4.469469     55.105615     55.105615    110.211230
     -4.459459     56.979747     56.979747    113.959493
     -4.449449     56.806990     56.806990    113.613981
     -4.439439     54.260432     54.260432    108.520863
     -4.429429     49.561485     49.561485     99.122970
     -4.419419     43.380979     43.380979     86.761958
     -4.409409     36.648689     36.648689     73.297378
     -4.399399     30.337916     30.337916     60.675832
     -4.389389     25.277202     25.277202     50.554403
     -4.379379     22.014800     22.014800     44.029600
     -4.369369     20.743816     20.743816     41.487633
     -4.359359     21.294008     21.294008     42.588015
     -4.349349     23.198012     23.198012     46.396024
     -4.339339     25.828450     25.828450     51.656899
     -4.329329     28.575720     28.575720     57.151440
     -4.319319     31.011510     31.011510     62.023019
     -4.309309     32.981295     32.981295     65.962589
     -4.299299     34.596041     34.596041     69.192083
     -4.289289     36.132997     36.132997     72.265994
     -4.279279     37.885070     37.885070     75.770139
     -4.269269     40.007439     40.007439     80.014878
     -4.259259     42.406262     42.406262     84.812523
     -4.249249     44.708321     44.708321     89.416642
     -4.239239     46.339369     46.339369     92.678738
     -4.229229     46.708600     46.708600     93.417200
     -4.219219     45.444756     45.444756     90.889513
     -4.209209     42.582463     42.582463     85.164926
     -4.199199     38.597595     38.597595     77.195190
     -4.189189     34.256157     34.256157     68.512314
     -4.179179     30.340710     30.340710     60.681419
     -4.169169     27.387408     27.387408     54.774815
     -4.159159     25.558220     25.558220     51.116440
     -4.149149     24.694206     24.694206     49.388411
     -4.139139     24.499415     24.499415     48.998830
     -4.129129     24.746355     24.746355     49.492709
     -4.119119     25.395629     25.395629     50.791258
     -4.109109     26.572436     26.572436     53.144872
     -4.099099     28.414455     28.414455     56.828911
     -4.089089     30.872294     30.872294     61.744588
     -4.079079     33.578394     33.578394     67.156788
     -4.069069     35.879536     35.879536     71.759071
     -4.059059     37.048522     37.048522     74.097044
     -4.049049     36.586901     36.586901     73.173802
     -4.039039     34.465613     34.465613     68.931226
     -4.029029     31.173427     31.173427     62.346853
     -4.019019     27.546963     27.546963     55.093927
     -4.009009     24.475866     24.475866     48.951731
     -3.998999     22.634549     22.634549     45.269097
     -3.988989     22.355258     22.355258     44.710516
     -3.978979     23.659338     23.659338     47.318676
     -3.968969     26.375748     26.375748     52.751496
     -3.958959     30.252501     30.252501     60.505003
     -3.948949     35.009824     35.009824     70.019648
     -3.938939     40.348232     40.348232     80.696464
     -3.928929     45.957528     45.957528     91.915057
     -3.918919     51.553842     51.553842    103.107685
     -3.908909     56.925768     56.925768    113.851535
     -3.898899     61.942099     61.942099    123.884199
     -3.888889     66.490084     66.490084    132.980168
     -3.878879     70.364368     70.364368    140.728737
     -3.868869     73.175384     73.175384    146.350768
     -3.858859     74.355000     74.355000    148.710000
     -3.848849     73.295410     73.295410    146.590820
     -3.838839     69.584689     69.584689    139.169379
     -3.828829     63.239738     63.239738    126.479477
     -3.818819     54.822365     54.822365    109.644730
     -3.808809     45.369475     45.369475     90.738950
     -3.798799     36.151182     36.151182     72.302364
     -3.788789     28.346072     28.346072     56.692144
     -3.778779     22.752039     22.752039     45.504078
     -3.768769     19.625299     19.625299     39.250598
     -3.758759     18.682008     18.682008     37.364016
     -3.748749     19.240051     19.240051     38.480103
     -3.738739     20.444925     20.444925     40.889850
     -3.728729     21.515131     21.515131     43.030262
     -3.718719     21.949236     21.949236     43.898471
     -3.708709     21.649324     21.649324     43.298649
     -3.698699     20.931409     20.931409     41.862819
     -3.688689     20.414735     20.414735     40.829469
     -3.678679     20.810937     20.810937     41.621874
     -3.668669     22.667260     22.667260     45.334520
     -3.658659     26.144369     26.144369     52.288738
     -3.648649     30.912085     30.912085     61.824171
     -3.638639     36.213037     36.213037     72.426075
     -3.628629     41.079483     41.079483     82.158965
     -3.618619     44.620617     44.620617     89.241235
     -3.608609     46.265821     46.265821     92.531643
     -3.598599     45.876008     45.876008     91.752015
     -3.588589     43.705009     43.705009     87.410018
     -3.578579     40.260211     40.260211     80.520422
     -3.568569     36.136420     36.136420     72.272841
     -3.558559     31.876296     31.876296     63.752593
     -3.548549     27.875663     27.875663     55.751325
     -3.538539     24.334461     24.334461     48.668923
     -3.528529     21.257134     21.257134     42.514268
     -3.518519     18.508216     18.508216     37.016431
     -3.508509     15.912794     15.912794     31.825588
     -3.498498     13.365475     13.365475     26.730950
     -3.488488     10.900227     10.900227     21.800454
     -3.478478      8.690981      8.690981     17.381961
     -3.468468      6.987935      6.987935     13.975870
     -3.458458      6.022277      6.022277     12.044553
     -3.448448      5.917451      5.917451     11.834902
     -3.438438      6.633702      6.633702     13.267405
     -3.428428      7.959383      7.959383     15.918767
     -3.418418      9.554623      9.554623     19.109246
     -3.408408     11.044302     11.044302     22.088605
     -3.398398     12.140330     12.140330     24.280661
     -3.388388     12.752530     12.752530     25.505060
     -3.378378     13.039846     13.039846     26.079692
     -3.368368     13.372319     13.372319     26.744638
     -3.358358     14.213514     14.213514     28.427029
     -3.348348     15.968717     15.968717     31.937435
     -3.338338     18.852883     18.852883     37.705766
     -3.328328     22.811675     22.811675     45.623351
     -3.318318     27.500175     27.500175     55.000350
     -3.308308     32.312050     32.312050     64.624101
     -3.298298     36.461430     36.461430     72.922860
     -3.288288     39.128061     39.128061     78.256123
     -3.278278     39.657576     39.657576     79.315152
     -3.268268     37.764292     37.764292     75.528584
     -3.258258     33.649872     33.649872     67.299743
     -3.248248     27.967443     27.967443     55.934886
     -3.238238     21.630726     21.630726     43.261453
     -3.228228     15.548139     15.548139     31.096278
     -3.218218     10.397318     10.397318     20.794635
     -3.208208      6.524224      6.524224     13.048448
     -3.198198      3.979517      3.979517      7.959033
     -3.188188      2.641625      2.641625      5.283249
     -3.178178      2.352910      2.352910      4.705820
     -3.168168      3.011796      3.011796      6.023592
     -3.158158      4.598138      4.598138      9.196276
     -3.148148      7.140298      7.140298     14.280597
     -3.138138     10.650518     10.650518     21.301036
     -3.128128     15.059672     15.059672     30.119345
     -3.118118     20.176214     20.176214     40.352428
     -3.108108     25.681465     25.681465     51.362930
     -3.098098     31.160527     31.160527     62.321053
     -3.088088     36.160120     36.160120     72.320240
     -3.078078     40.261389     40.261389     80.522779
     -3.068068     43.151954     43.151954     86.303908
     -3.058058     44.675493     44.675493     89.350985
     -3.048048     44.836514     44.836514     89.673027
     -3.038038     43.753735     43.753735     87.507469
     -3.028028     41.585811     41.585811     83.171623
     -3.018018     38.476910     38.476910     76.953819
     -3.008008     34.562184     34.562184     69.124368
     -2.997998     30.032693     30.032693     60.065386
     -2.987988     25.213926     25.213926     50.427852
     -2.977978     20.597631     20.597631     41.195262
     -2.967968     16.793605     16.793605     33.587210
     -2.957958     14.413477     14.413477     28.826953
     -2.947948     13.928843     13.928843     27.857686
     -2.937938     15.547409     15.547409     31.094817
     -2.927928     19.135654     19.135654     38.271307
     -2.917918     24.204634     24.204634     48.409268
     -2.907908     29.971715     29.971715     59.943430
     -2.897898     35.503136     35.503136     71.006272
     -2.887888     39.918566     39.918566     79.837132
     -2.877878     42.604638     42.604638     85.209277
     -2.867868     43.362348     43.362348     86.724695
     -2.857858     42.425047     42.425047     84.850095
     -2.847848     40.332428     40.332428     80.664856
     -2.837838     37.709551     37.709551     75.419102
     -2.827828     35.044874     35.044874     70.089748
     -2.817818     32.561339     32.561339     65.122678
     -2.807808     30.227885     30.227885     60.455771
     -2.797798     27.888668     27.888668     55.777336
     -2.787788     25.430467     25.430467     50.860935
     -2.777778     22.895355     22.895355     45.790710
     -2.767768     20.482430     20.482430     40.964861
     -2.757758     18.448680     18.448680     36.897359
     -2.747748     16.977186     16.977186     33.954372
     -2.737738     16.097256     16.097256     32.194512
     -2.727728     15.705409     15.705409     31.410818
     -2.717718     15.669639     15.669639     31.339277
     -2.707708     15.943385     15.943385     31.886769
     -2.697698     16.607276     16.607276     33.214553
     -2.687688     17.803797     17.803797     35.607595
     -2.677678     19.603698     19.603698     39.207396
     -2.667668     21.894407     21.894407     43.788815
     -2.657658     24.372869     24.372869     48.745737
     -2.647648     26.659672     26.659672     53.319344
     -2.637638     28.470175     28.470175     56.940350
     -2.627628     29.737551     29.737551     59.475102
     -2.617618     30.612839     30.612839     61.225678
     -2.607608     31.348045     31.348045     62.696089
     -2.597598     32.141948     32.141948     64.283897
     -2.587588     33.041544     33.041544     66.083089
     -2.577578     33.939941     33.939941     67.879882
     -2.567568     34.640609     34.640609     69.281217
     -2.557558     34.926112     34.926112     69.852224
     -2.547548     34.596009     34.596009     69.192018
     -2.537538     33.489260     33.489260     66.978520
     -2.527528     31.528358     31.528358     63.056716
     -2.517518     28.794111     28.794111     57.588222
     -2.507508     25.590232     25.590232     51.180464
     -2.497497     22.435089     22.435089     44.870179
     -2.487487     19.948492     19.948492     39.896984
     -2.477477     18.663981     18.663981     37.327962
     -2.467467     18.847366     18.847366     37.694732
     -2.457457     20.407536     20.407536     40.815072
     -2.447447     22.944409     22.944409     45.888819
     -2.437437     25.915098     25.915098     51.830195
     -2.427427     28.844416     28.844416     57.688831
     -2.417417     31.484543     31.484543     62.969087
     -2.407407     33.850774     33.850774     67.701548
     -2.397397     36.117288     36.117288     72.234576
     -2.387387     38.423971     38.423971     76.847942
     -2.377377     40.691396     40.691396     81.382792
     -2.367367     42.543195     42.543195     85.086390
     -2.357357     43.389134     43.389134     86.778268
     -2.347347     42.646219     42.646219     85.292438
     -2.337337     40.004093     40.004093     80.008186
     -2.327327     35.612332     35.612332     71.224665
     -2.317317     30.100354     30.100354     60.200708
     -2.307307     24.420163     24.420163     48.840327
     -2.297297     19.583325     19.583325     39.166650
     -2.287287     16.401061     16.401061     32.802121
     -2.277277     15.315874     15.315874     30.631747
     -2.267267     16.357861     16.357861     32.715721
     -2.257257     19.206613     19.206613     38.413226
     -2.247247     23.313507     23.313507     46.627015
     -2.237237     28.037834     28.037834     56.075667
     -2.227227     32.760670     32.760670     65.521340
     -2.217217     36.954681     36.954681     73.909362
     -2.207207     40.206259     40.206259     80.412518
     -2.197197     42.207794     42.207794     84.415589
     -2.187187     42.752523     42.752523     85.505045
     -2.177177     41.758718     41.758718     83.517436
     -2.167167     39.320617     39.320617     78.641234
     -2.157157     35.747343     35.747343     71.494686
     -2.147147     31.537720     31.537720     63.075439
     -2.137137     27.266795     27.266795     54.533590
     -2.127127     23.416833     23.416833     46.833666
     -2.117117     20.231857     20.231857     40.463715
     -2.107107     17.673102     17.673102     35.346204
     -2.097097     15.498968     15.498968     30.997936
     -2.087087     13.422518     13.422518     26.845037
     -2.077077     11.259958     11.259958     22.519917
     -2.067067      8.998866      8.998866     17.997731
     -2.057057      6.769381      6.769381     13.538763
     -2.047047      4.755514      4.755514      9.511027
     -2.037037      3.104850      3.104850      6.209700
     -2.027027      1.878990      1.878990      3.757980
     -2.017017      1.053701      1.053701      2.107402
     -2.007007      0.551491      0.551491      1.102981
     -1.996997      0.281890      0.281890      0.563780
     -1.986987      0.172676      0.172676      0.345351
     -1.976977      0.187537      0.187537      0.375075
     -1.966967      0.333466      0.333466      0.666932
     -1.956957      0.661735      0.661735      1.323470
     -1.946947      1.262269      1.262269      2.524538
     -1.936937      2.247131      2.247131      4.494261
     -1.926927      3.719187      3.719187      7.438375
     -1.916917      5.728514      5.728514     11.457028
     -1.906907      8.229177      8.229177     16.458354
     -1.896897     11.055910     11.055910     22.111820
     -1.886887     13.937096     13.937096     27.874191
     -1.876877     16.546596     16.546596     33.093192
     -1.866867     18.579876     18.579876     37.159753
     -1.856857     19.829826     19.829826     39.659652
     -1.846847     20.239063     20.239063     40.478127
     -1.836837     19.913798     19.913798     39.827597
     -1.826827     19.093301     19.093301     38.186602
     -1.816817     18.078659     18.078659     36.157318
     -1.806807     17.138887     17.138887     34.277773
     -1.796797     16.429004     16.429004     32.858009
     -1.786787     15.959422     15.959422     31.918845
     -1.776777     15.635350     15.635350     31.270700
     -1.766767     15.344173     15.344173     30.688346
     -1.756757     15.035075     15.035075     30.070150
     -1.746747     14.737736     14.737736     29.475471
     -1.736737     14.509573     14.509573     29.019146
     -1.726727     14.354540     14.354540     28.709080
     -1.716717     14.180109     14.180109     28.360217
     -1.706707     13.833224     13.833224     27.666448
     -1.696697     13.198761     13.198761     26.397522
     -1.686687     12.296873     12.296873     24.593746
     -1.676677     11.311674     11.311674     22.623348
     -1.666667     10.524323     10.524323     21.048646
     -1.656657     10.180763     10.180763     20.361527
     -1.646647     10.362740     10.362740     20.725481
     -1.636637     10.930301     10.930301     21.860602
     -1.626627     11.568204     11.568204     23.136408
