# EIG2DOS: Utility for SIESTA to obtain the electronic density of states
#  E. Artacho, Apr 1999, A. Garcia, Apr 2012
#  Nick R. Papior, Feb 2017
# ------------------------------------------
# Eigenvalues calculated from a non-polarized calculation
# Eigenvalues read from siesta.EIG
# Kpoint weights read from siesta.KP
# Using smearing parameter:   0.0500
# Using 1000 points in the energy range
# Selected bands: 1 to: 2981
# Emin, Emax in file for selected band(s):    -27.0390228    218.3235450
# Nbands, Nspin, Nk   =   2981     1     1
# E_F                 =    -4.2830 eV --> (shifted to ZERO)
# Broadening          =     0.0500 eV
#
#        E            N(up)  (=)   N(down)         Ntot
     -5.000000     43.937699     43.937699     87.875398
     -4.989990     45.971414     45.971414     91.942829
     -4.979980     47.137546     47.137546     94.275091
     -4.969970     47.324908     47.324908     94.649817
     -4.959960     46.447258     46.447258     92.894516
     -4.949950     44.510384     44.510384     89.020767
     -4.939940     41.672808     41.672808     83.345617
     -4.929930     38.273372     38.273372     76.546743
     -4.919920     34.820168     34.820168     69.640337
     -4.909910     31.946743     31.946743     63.893485
     -4.899900     30.334504     30.334504     60.669009
     -4.889890     30.588279     30.588279     61.176557
     -4.879880     33.060103     33.060103     66.120205
     -4.869870     37.656881     37.656881     75.313761
     -4.859860     43.718662     43.718662     87.437324
     -4.849850     50.069188     50.069188    100.138376
     -4.839840     55.284246     55.284246    110.568492
     -4.829830     58.111463     58.111463    116.222926
     -4.819820     57.874157     57.874157    115.748313
     -4.809810     54.675617     54.675617    109.351234
     -4.799800     49.311610     49.311610     98.623220
     -4.789790     42.945595     42.945595     85.891190
     -4.779780     36.710867     36.710867     73.421734
     -4.769770     31.412390     31.412390     62.824779
     -4.759760     27.417301     27.417301     54.834601
     -4.749750     24.714316     24.714316     49.428632
     -4.739740     23.056821     23.056821     46.113643
     -4.729730     22.104330     22.104330     44.208659
     -4.719720     21.516926     21.516926     43.033853
     -4.709710     20.999422     20.999422     41.998845
     -4.699700     20.315837     20.315837     40.631673
     -4.689690     19.300184     19.300184     38.600368
     -4.679680     17.881947     17.881947     35.763895
     -4.669670     16.128108     16.128108     32.256216
     -4.659660     14.284375     14.284375     28.568749
     -4.649650     12.786429     12.786429     25.572858
     -4.639640     12.215035     12.215035     24.430069
     -4.629630     13.184670     13.184670     26.369340
     -4.619620     16.176673     16.176673     32.353347
     -4.609610     21.350656     21.350656     42.701312
     -4.599600     28.391276     28.391276     56.782553
     -4.589590     36.463107     36.463107     72.926213
     -4.579580     44.334727     44.334727     88.669453
     -4.569570     50.678600     50.678600    101.357201
     -4.559560     54.467940     54.467940    108.935880
     -4.549550     55.321121     55.321121    110.642242
     -4.539540     53.639970     53.639970    107.279940
     -4.529530     50.467262     50.467262    100.934524
     -4.519520     47.114500     47.114500     94.228999
     -4.509510     44.714841     44.714841     89.429683
     -4.499499     43.882268     43.882268     87.764536
     -4.489489     44.597252     44.597252     89.194503
     -4.479479     46.329269     46.329269     92.658539
     -4.469469     48.306139     48.306139     96.612278
     -4.459459     49.795847     49.795847     99.591695
     -4.449449     50.291392     50.291392    100.582785
     -4.439439     49.560855     49.560855     99.121710
     -4.429429     47.600192     47.600192     95.200384
     -4.419419     44.563674     44.563674     89.127349
     -4.409409     40.729301     40.729301     81.458602
     -4.399399     36.501392     36.501392     73.002784
     -4.389389     32.402818     32.402818     64.805637
     -4.379379     29.004409     29.004409     58.008818
     -4.369369     26.784875     26.784875     53.569750
     -4.359359     25.976685     25.976685     51.953370
     -4.349349     26.482630     26.482630     52.965261
     -4.339339     27.919281     27.919281     55.838561
     -4.329329     29.775249     29.775249     59.550497
     -4.319319     31.610328     31.610328     63.220656
     -4.309309     33.204418     33.204418     66.408837
     -4.299299     34.597387     34.597387     69.194774
     -4.289289     36.015642     36.015642     72.031283
     -4.279279     37.724838     37.724838     75.449676
     -4.269269     39.865798     39.865798     79.731597
     -4.259259     42.329524     42.329524     84.659047
     -4.249249     44.719029     44.719029     89.438059
     -4.239239     46.429390     46.429390     92.858780
     -4.229229     46.841142     46.841142     93.682284
     -4.219219     45.566576     45.566576     91.133152
     -4.209209     42.641762     42.641762     85.283524
     -4.199199     38.560608     38.560608     77.121215
     -4.189189     34.116804     34.116804     68.233608
     -4.179179     30.121191     30.121191     60.242381
     -4.169169     27.130999     27.130999     54.261999
     -4.159159     25.317508     25.317508     50.635016
     -4.149149     24.518323     24.518323     49.036645
     -4.139139     24.423192     24.423192     48.846385
     -4.129129     24.783326     24.783326     49.566652
     -4.119119     25.535999     25.535999     51.071997
     -4.109109     26.786440     26.786440     53.572880
     -4.099099     28.660526     28.660526     57.321053
     -4.089089     31.107889     31.107889     62.215778
     -4.079079     33.769875     33.769875     67.539750
     -4.069069     36.007400     36.007400     72.014799
     -4.059059     37.106366     37.106366     74.212732
     -4.049049     36.575989     36.575989     73.151978
     -4.039039     34.389565     34.389565     68.779131
     -4.029029     31.037259     31.037259     62.074518
     -4.019019     27.361309     27.361309     54.722618
     -4.009009     24.262850     24.262850     48.525701
     -3.998999     22.429701     22.429701     44.859403
     -3.988989     22.201762     22.201762     44.403524
     -3.978979     23.595808     23.595808     47.191616
     -3.968969     26.423121     26.423121     52.846243
     -3.958959     30.406447     30.406447     60.812895
     -3.948949     35.241891     35.241891     70.483782
     -3.938939     40.614324     40.614324     81.228648
     -3.928929     46.209517     46.209517     92.419033
     -3.918919     51.750459     51.750459    103.500918
     -3.908909     57.040902     57.040902    114.081804
     -3.898899     61.969918     61.969918    123.939835
     -3.888889     66.446161     66.446161    132.892322
     -3.878879     70.281549     70.281549    140.563098
     -3.868869     73.094131     73.094131    146.188263
     -3.858859     74.310675     74.310675    148.621349
     -3.848849     73.307346     73.307346    146.614691
     -3.838839     69.651762     69.651762    139.303524
     -3.828829     63.343973     63.343973    126.687947
     -3.818819     54.938006     54.938006    109.876012
     -3.808809     45.472653     45.472653     90.945306
     -3.798799     36.226147     36.226147     72.452294
     -3.788789     28.386775     28.386775     56.773550
     -3.778779     22.760412     22.760412     45.520823
     -3.768769     19.608411     19.608411     39.216823
     -3.758759     18.649508     18.649508     37.299017
     -3.748749     19.202108     19.202108     38.404217
     -3.738739     20.410267     20.410267     40.820534
     -3.728729     21.488963     21.488963     42.977925
     -3.718719     21.931421     21.931421     43.862843
     -3.708709     21.633703     21.633703     43.267407
     -3.698699     20.907116     20.907116     41.814232
     -3.688689     20.369807     20.369807     40.739614
     -3.678679     20.737415     20.737415     41.474830
     -3.668669     22.565861     22.565861     45.131722
     -3.658659     26.026361     26.026361     52.052722
     -3.648649     30.796793     30.796793     61.593586
     -3.638639     36.121469     36.121469     72.242939
     -3.628629     41.026858     41.026858     82.053716
     -3.618619     44.611528     44.611528     89.223056
     -3.608609     46.294460     46.294460     92.588920
     -3.598599     45.930949     45.930949     91.861898
     -3.588589     43.775387     43.775387     87.550774
     -3.578579     40.339648     40.339648     80.679296
     -3.568569     36.222994     36.222994     72.445987
     -3.558559     31.969606     31.969606     63.939211
     -3.548549     27.973678     27.973678     55.947355
     -3.538539     24.432346     24.432346     48.864691
     -3.528529     21.348404     21.348404     42.696809
     -3.518519     18.586968     18.586968     37.173936
     -3.508509     15.975357     15.975357     31.950713
     -3.498498     13.410639     13.410639     26.821278
     -3.488488     10.928309     10.928309     21.856617
     -3.478478      8.702594      8.702594     17.405187
     -3.468468      6.983338      6.983338     13.966675
     -3.458458      6.001692      6.001692     12.003385
     -3.448448      5.882240      5.882240     11.764481
     -3.438438      6.587795      6.587795     13.175591
     -3.428428      7.910132      7.910132     15.820264
     -3.418418      9.512297      9.512297     19.024594
     -3.408408     11.019938     11.019938     22.039876
     -3.398398     12.142371     12.142371     24.284742
     -3.388388     12.783286     12.783286     25.566573
     -3.378378     13.092923     13.092923     26.185846
     -3.368368     13.431859     13.431859     26.863718
     -3.358358     14.255746     14.255746     28.511492
     -3.348348     15.966181     15.966181     31.932363
     -3.338338     18.781431     18.781431     37.562863
     -3.328328     22.659359     22.659359     45.318719
     -3.318318     27.275362     27.275362     54.550723
     -3.308308     32.046665     32.046665     64.093329
     -3.298298     36.205811     36.205811     72.411623
     -3.288288     38.937298     38.937298     77.874596
     -3.278278     39.573896     39.573896     79.147791
     -3.268268     37.803052     37.803052     75.606105
     -3.258258     33.795480     33.795480     67.590960
     -3.248248     28.180402     28.180402     56.360803
     -3.238238     21.861015     21.861015     43.722031
     -3.228228     15.746777     15.746777     31.493555
     -3.218218     10.518669     10.518669     21.037337
     -3.208208      6.515291      6.515291     13.030582
     -3.198198      3.757114      3.757114      7.514228
     -3.188188      2.062938      2.062938      4.125875
     -3.178178      1.190018      1.190018      2.380037
     -3.168168      0.945728      0.945728      1.891455
     -3.158158      1.249727      1.249727      2.499455
     -3.148148      2.147943      2.147943      4.295886
     -3.138138      3.785832      3.785832      7.571665
     -3.128128      6.346349      6.346349     12.692698
     -3.118118      9.959938      9.959938     19.919876
     -3.108108     14.605865     14.605865     29.211730
     -3.098098     20.040226     20.040226     40.080453
     -3.088088     25.791222     25.791222     51.582444
     -3.078078     31.243232     31.243232     62.486464
     -3.068068     35.789479     35.789479     71.578958
     -3.058058     38.990367     38.990367     77.980734
     -3.048048     40.662453     40.662453     81.324905
     -3.038038     40.858551     40.858551     81.717102
     -3.028028     39.765779     39.765779     79.531557
     -3.018018     37.600288     37.600288     75.200575
     -3.008008     34.574249     34.574249     69.148498
     -2.997998     30.951314     30.951314     61.902628
     -2.987988     27.134754     27.134754     54.269508
     -2.977978     23.701914     23.701914     47.403827
     -2.967968     21.330734     21.330734     42.661468
     -2.957958     20.632443     20.632443     41.264887
     -2.947948     21.960491     21.960491     43.920982
     -2.937938     25.277267     25.277267     50.554534
     -2.927928     30.129837     30.129837     60.259675
     -2.917918     35.739715     35.739715     71.479431
     -2.907908     41.174837     41.174837     82.349673
     -2.897898     45.554696     45.554696     91.109392
     -2.887888     48.238366     48.238366     96.476732
     -2.877878     48.952094     48.952094     97.904188
     -2.867868     47.824788     47.824788     95.649575
     -2.857858     45.318232     45.318232     90.636463
     -2.847848     42.067012     42.067012     84.134024
     -2.837838     38.676028     38.676028     77.352056
     -2.827828     35.546454     35.546454     71.092909
     -2.817818     32.796917     32.796917     65.593834
     -2.807808     30.309270     30.309270     60.618541
     -2.797798     27.871531     27.871531     55.743062
     -2.787788     25.343176     25.343176     50.686351
     -2.777778     22.757956     22.757956     45.515912
     -2.767768     20.314927     20.314927     40.629855
     -2.757758     18.271574     18.271574     36.543149
     -2.747748     16.808191     16.808191     33.616381
     -2.737738     15.947342     15.947342     31.894684
     -2.727728     15.576191     15.576191     31.152382
     -2.717718     15.553262     15.553262     31.106524
     -2.707708     15.825549     15.825549     31.651098
     -2.697698     16.473246     16.473246     32.946493
     -2.687688     17.645923     17.645923     35.291846
     -2.677678     19.427513     19.427513     38.855026
     -2.667668     21.719953     21.719953     43.439905
     -2.657658     24.229384     24.229384     48.458767
     -2.647648     26.575010     26.575010     53.150020
     -2.637638     28.459471     28.459471     56.918942
     -2.627628     29.796665     29.796665     59.593331
     -2.617618     30.719885     30.719885     61.439769
     -2.607608     31.472065     31.472065     62.944129
     -2.597598     32.254190     32.254190     64.508381
     -2.587588     33.124062     33.124062     66.248123
     -2.577578     33.988517     33.988517     67.977035
     -2.567568     34.662379     34.662379     69.324758
     -2.557558     34.934396     34.934396     69.868792
     -2.547548     34.604876     34.604876     69.209752
     -2.537538     33.509085     33.509085     67.018171
     -2.527528     31.562624     31.562624     63.125248
     -2.517518     28.837716     28.837716     57.675432
     -2.507508     25.630053     25.630053     51.260106
     -2.497497     22.453528     22.453528     44.907056
     -2.487487     19.929701     19.929701     39.859403
     -2.477477     18.600977     18.600977     37.201954
     -2.467467     18.747235     18.747235     37.494470
     -2.457457     20.292265     20.292265     40.584530
     -2.447447     22.846504     22.846504     45.693008
     -2.437437     25.869353     25.869353     51.738706
     -2.427427     28.878789     28.878789     57.757577
     -2.417417     31.613149     31.613149     63.226297
     -2.407407     34.070647     34.070647     68.141293
     -2.397397     36.408799     36.408799     72.817599
     -2.387387     38.753928     38.753928     77.507855
     -2.377377     41.018185     41.018185     82.036369
     -2.367367     42.823950     42.823950     85.647901
     -2.357357     43.588539     43.588539     87.177077
     -2.347347     42.745108     42.745108     85.490216
     -2.337337     40.004772     40.004772     80.009545
     -2.327327     35.537980     35.537980     71.075961
     -2.317317     29.988199     29.988199     59.976398
     -2.307307     24.310903     24.310903     48.621806
     -2.297297     19.510651     19.510651     39.021301
     -2.287287     16.384530     16.384530     32.769061
     -2.277277     15.358560     15.358560     30.717120
     -2.267267     16.448468     16.448468     32.896936
     -2.257257     19.324786     19.324786     38.649571
     -2.247247     23.436582     23.436582     46.873163
     -2.237237     28.147036     28.147036     56.294072
     -2.227227     32.844814     32.844814     65.689627
     -2.217217     37.010210     37.010210     74.020421
     -2.207207     40.234064     40.234064     80.468128
     -2.197197     42.208832     42.208832     84.417663
     -2.187187     42.724925     42.724925     85.449851
     -2.177177     41.698144     41.698144     83.396288
     -2.167167     39.223567     39.223567     78.447134
     -2.157157     35.615324     35.615324     71.230648
     -2.147147     31.379606     31.379606     62.759213
     -2.137137     27.097869     27.097869     54.195738
     -2.127127     23.254927     23.254927     46.509853
     -2.117117     20.092533     20.092533     40.185066
     -2.107107     17.566019     17.566019     35.132038
     -2.097097     15.426637     15.426637     30.853274
     -2.087087     13.381360     13.381360     26.762720
     -2.077077     11.242702     11.242702     22.485405
     -2.067067      8.997153      8.997153     17.994306
     -2.057057      6.775771      6.775771     13.551543
     -2.047047      4.764563      4.764563      9.529127
     -2.037037      3.113323      3.113323      6.226645
     -2.027027      1.885470      1.885470      3.770939
     -2.017017      1.057941      1.057941      2.115881
     -2.007007      0.553751      0.553751      1.107502
     -1.996997      0.282399      0.282399      0.564799
     -1.986987      0.171220      0.171220      0.342439
     -1.976977      0.183132      0.183132      0.366265
     -1.966967      0.324123      0.324123      0.648247
     -1.956957      0.644446      0.644446      1.288891
     -1.946947      1.233464      1.233464      2.466927
     -1.936937      2.203865      2.203865      4.407729
     -1.926927      3.661005      3.661005      7.322010
     -1.916917      5.659411      5.659411     11.318823
     -1.906907      8.158544      8.158544     16.317088
     -1.896897     10.997281     10.997281     21.994562
     -1.886887     13.904311     13.904311     27.808622
     -1.876877     16.548389     16.548389     33.096779
     -1.866867     18.615151     18.615151     37.230302
     -1.856857     19.886006     19.886006     39.772013
     -1.846847     20.294531     20.294531     40.589061
     -1.836837     19.943113     19.943113     39.886225
     -1.826827     19.071782     19.071782     38.143565
     -1.816817     17.981853     17.981853     35.963707
     -1.806807     16.932928     16.932928     33.865857
     -1.796797     16.050142     16.050142     32.100285
     -1.786787     15.285593     15.285593     30.571187
     -1.776777     14.459870     14.459870     28.919740
     -1.766767     13.369670     13.369670     26.739341
     -1.756757     11.909693     11.909693     23.819387
     -1.746747     10.148417     10.148417     20.296834
     -1.736737      8.324851      8.324851     16.649701
     -1.726727      6.776687      6.776687     13.553373
     -1.716717      5.839762      5.839762     11.679523
     -1.706707      5.759334      5.759334     11.518667
     -1.696697      6.634200      6.634200     13.268400
     -1.686687      8.395322      8.395322     16.790644
     -1.676677     10.813775     10.813775     21.627550
     -1.666667     13.535043     13.535043     27.070087
     -1.656657     16.137311     16.137311     32.274622
     -1.646647     18.205817     18.205817     36.411633
     -1.636637     19.408650     19.408650     38.817300
     -1.626627     19.558674     19.558674     39.117349
