# EIG2DOS: Utility for SIESTA to obtain the electronic density of states
#  E. Artacho, Apr 1999, A. Garcia, Apr 2012
#  Nick R. Papior, Feb 2017
# ------------------------------------------
# Eigenvalues calculated from a non-polarized calculation
# Eigenvalues read from siesta.EIG
# Kpoint weights read from siesta.KP
# Using smearing parameter:   0.0500
# Using 1000 points in the energy range
# Selected bands: 1 to: 2981
# Emin, Emax in file for selected band(s):    -27.0286804    218.3045740
# Nbands, Nspin, Nk   =   2981     1     1
# E_F                 =    -4.3079 eV --> (shifted to ZERO)
# Broadening          =     0.0500 eV
#
#        E            N(up)  (=)   N(down)         Ntot
     -5.000000     41.970654     41.970654     83.941309
     -4.989990     46.820994     46.820994     93.641989
     -4.979980     50.568393     50.568393    101.136786
     -4.969970     52.677656     52.677656    105.355311
     -4.959960     52.832859     52.832859    105.665718
     -4.949950     51.039945     51.039945    102.079891
     -4.939940     47.645040     47.645040     95.290079
     -4.929930     43.270171     43.270171     86.540342
     -4.919920     38.703574     38.703574     77.407148
     -4.909910     34.787244     34.787244     69.574488
     -4.899900     32.317248     32.317248     64.634496
     -4.889890     31.936523     31.936523     63.873046
     -4.879880     33.992175     33.992175     67.984351
     -4.869870     38.368646     38.368646     76.737291
     -4.859860     44.372251     44.372251     88.744502
     -4.849850     50.775344     50.775344    101.550687
     -4.839840     56.082258     56.082258    112.164515
     -4.829830     58.962373     58.962373    117.924746
     -4.819820     58.679360     58.679360    117.358720
     -4.809810     55.317230     55.317230    110.634460
     -4.799800     49.696435     49.696435     99.392869
     -4.789790     43.033029     43.033029     86.066058
     -4.779780     36.516777     36.516777     73.033555
     -4.769770     30.995221     30.995221     61.990442
     -4.759760     26.858836     26.858836     53.717672
     -4.749750     24.103602     24.103602     48.207205
     -4.739740     22.478403     22.478403     44.956806
     -4.729730     21.628368     21.628368     43.256737
     -4.719720     21.190555     21.190555     42.381110
     -4.709710     20.841724     20.841724     41.683447
     -4.699700     20.318844     20.318844     40.637687
     -4.689690     19.435015     19.435015     38.870030
     -4.679680     18.105993     18.105993     36.211987
     -4.669670     16.389193     16.389193     32.778387
     -4.659660     14.520957     14.520957     29.041913
     -4.649650     12.926685     12.926685     25.853371
     -4.639640     12.179644     12.179644     24.359288
     -4.629630     12.897573     12.897573     25.795145
     -4.619620     15.585284     15.585284     31.170568
     -4.609610     20.452042     20.452042     40.904084
     -4.599600     27.254474     27.254474     54.508948
     -4.589590     35.233200     35.233200     70.466400
     -4.579580     43.206590     43.206590     86.413180
     -4.569570     49.840160     49.840160     99.680319
     -4.559560     54.030518     54.030518    108.061035
     -4.549550     55.267265     55.267265    110.534531
     -4.539540     53.816747     53.816747    107.633494
     -4.529530     50.633546     50.633546    101.267093
     -4.519520     47.023893     47.023893     94.047787
     -4.509510     44.196487     44.196487     88.392975
     -4.499499     42.880712     42.880712     85.761424
     -4.489489     43.150450     43.150450     86.300901
     -4.479479     44.492933     44.492933     88.985867
     -4.469469     46.061066     46.061066     92.122132
     -4.459459     46.990981     46.990981     93.981963
     -4.449449     46.669480     46.669480     93.338960
     -4.439439     44.881880     44.881880     89.763760
     -4.429429     41.827642     41.827642     83.655284
     -4.419419     38.031934     38.031934     76.063868
     -4.409409     34.196013     34.196013     68.392026
     -4.399399     31.025109     31.025109     62.050218
     -4.389389     29.064283     29.064283     58.128566
     -4.379379     28.571012     28.571012     57.142024
     -4.369369     29.455568     29.455568     58.911137
     -4.359359     31.314154     31.314154     62.628308
     -4.349349     33.555603     33.555603     67.111206
     -4.339339     35.586096     35.586096     71.172192
     -4.329329     36.988031     36.988031     73.976063
     -4.319319     37.629093     37.629093     75.258186
     -4.309309     37.668366     37.668366     75.336732
     -4.299299     37.470310     37.470310     74.940620
     -4.289289     37.468644     37.468644     74.937288
     -4.279279     38.026208     38.026208     76.052416
     -4.269269     39.320557     39.320557     78.641113
     -4.259259     41.269535     41.269535     82.539071
     -4.249249     43.511405     43.511405     87.022809
     -4.239239     45.462599     45.462599     90.925199
     -4.229229     46.468205     46.468205     92.936411
     -4.219219     46.019918     46.019918     92.039836
     -4.209209     43.961592     43.961592     87.923185
     -4.199199     40.578853     40.578853     81.157705
     -4.189189     36.510803     36.510803     73.021607
     -4.179179     32.514428     32.514428     65.028856
     -4.169169     29.196196     29.196196     58.392393
     -4.159159     26.842148     26.842148     53.684296
     -4.149149     25.417007     25.417007     50.834015
     -4.139139     24.707974     24.707974     49.415947
     -4.129129     24.518485     24.518485     49.036969
     -4.119119     24.803720     24.803720     49.607440
     -4.109109     25.678191     25.678191     51.356383
     -4.099099     27.292172     27.292172     54.584343
     -4.089089     29.641652     29.641652     59.283304
     -4.079079     32.420093     32.420093     64.840187
     -4.069069     35.014118     35.014118     70.028236
     -4.059059     36.679099     36.679099     73.358199
     -4.049049     36.829449     36.829449     73.658898
     -4.039039     35.301004     35.301004     70.602008
     -4.029029     32.445489     32.445489     64.890978
     -4.019019     29.006666     29.006666     58.013333
     -4.009009     25.849379     25.849379     51.698758
     -3.998999     23.686176     23.686176     47.372352
     -3.988989     22.926193     22.926193     45.852386
     -3.978979     23.679528     23.679528     47.359057
     -3.968969     25.856873     25.856873     51.713746
     -3.958959     29.270832     29.270832     58.541664
     -3.948949     33.682941     33.682941     67.365881
     -3.938939     38.806733     38.806733     77.613465
     -3.928929     44.315568     44.315568     88.631137
     -3.918919     49.888061     49.888061     99.776121
     -3.908909     55.274387     55.274387    110.548774
     -3.898899     60.329661     60.329661    120.659323
     -3.888889     64.969133     64.969133    129.938265
     -3.878879     69.051194     69.051194    138.102388
     -3.868869     72.253345     72.253345    144.506691
     -3.858859     74.032119     74.032119    148.064237
     -3.848849     73.728086     73.728086    147.456172
     -3.838839     70.801826     70.801826    141.603652
     -3.828829     65.105934     65.105934    130.211869
     -3.818819     57.060791     57.060791    114.121582
     -3.808809     47.635430     47.635430     95.270860
     -3.798799     38.124412     38.124412     76.248824
     -3.788789     29.806135     29.806135     59.612270
     -3.778779     23.614816     23.614816     47.229632
     -3.768769     19.938383     19.938383     39.876767
     -3.758759     18.590358     18.590358     37.180716
     -3.748749     18.937030     18.937030     37.874060
     -3.738739     20.121178     20.121178     40.242356
     -3.728729     21.314163     21.314163     42.628327
     -3.718719     21.936625     21.936625     43.873251
     -3.708709     21.801396     21.801396     43.602793
     -3.698699     21.146834     21.146834     42.293667
     -3.688689     20.547887     20.547887     41.095774
     -3.678679     20.719597     20.719597     41.439193
     -3.668669     22.261406     22.261406     44.522812
     -3.658659     25.420270     25.420270     50.840540
     -3.648649     29.959111     29.959111     59.918221
     -3.638639     35.189990     35.189990     70.379981
     -3.628629     40.169476     40.169476     80.338952
     -3.618619     43.982261     43.982261     87.964523
     -3.608609     45.998407     45.998407     91.996813
     -3.598599     46.007450     46.007450     92.014900
     -3.588589     44.199752     44.199752     88.399504
     -3.578579     41.037635     41.037635     82.075270
     -3.568569     37.091445     37.091445     74.182890
     -3.558559     32.898929     32.898929     65.797859
     -3.548549     28.869175     28.869175     57.738351
     -3.538539     25.230433     25.230433     50.460866
     -3.528529     22.022991     22.022991     44.045982
     -3.518519     19.143600     19.143600     38.287200
     -3.508509     16.435965     16.435965     32.871930
     -3.498498     13.796281     13.796281     27.592562
     -3.488488     11.247662     11.247662     22.495323
     -3.478478      8.950018      8.950018     17.900037
     -3.468468      7.145110      7.145110     14.290219
     -3.458458      6.065905      6.065905     12.131809
     -3.448448      5.847814      5.847814     11.695628
     -3.438438      6.469592      6.469592     12.939184
     -3.428428      7.738524      7.738524     15.477049
     -3.418418      9.326554      9.326554     18.653109
     -3.408408     10.856288     10.856288     21.712576
     -3.398398     12.020054     12.020054     24.040108
     -3.388388     12.694032     12.694032     25.388065
     -3.378378     12.998983     12.998983     25.997966
     -3.368368     13.274328     13.274328     26.548656
     -3.358358     13.970326     13.970326     27.940653
     -3.348348     15.500923     15.500923     31.001846
     -3.338338     18.112124     18.112124     36.224247
     -3.328328     21.801387     21.801387     43.602773
     -3.318318     26.292117     26.292117     52.584234
     -3.308308     31.051927     31.051927     62.103854
     -3.298298     35.353446     35.353446     70.706893
     -3.288288     38.392298     38.392298     76.784595
     -3.278278     39.467514     39.467514     78.935028
     -3.268268     38.187435     38.187435     76.374870
     -3.258258     34.619629     34.619629     69.239258
     -3.248248     29.302129     29.302129     58.604258
     -3.238238     23.091528     23.091528     46.183055
     -3.228228     16.907563     16.907563     33.815126
     -3.218218     11.485758     11.485758     22.971516
     -3.208208      7.235561      7.235561     14.471123
     -3.198198      4.237023      4.237023      8.474047
     -3.188188      2.341497      2.341497      4.682994
     -3.178178      1.309927      1.309927      2.619854
     -3.168168      0.931815      0.931815      1.863629
     -3.158158      1.097758      1.097758      2.195517
     -3.148148      1.823660      1.823660      3.647320
     -3.138138      3.233960      3.233960      6.467921
     -3.128128      5.509649      5.509649     11.019298
     -3.118118      8.806359      8.806359     17.612718
     -3.108108     13.156866     13.156866     26.313733
     -3.098098     18.388285     18.388285     36.776571
     -3.088088     24.094300     24.094300     48.188600
     -3.078078     29.692066     29.692066     59.384133
     -3.068068     34.557774     34.557774     69.115548
     -3.058058     38.189809     38.189809     76.379619
     -3.048048     40.324163     40.324163     80.648326
     -3.038038     40.947357     40.947357     81.894714
     -3.028028     40.212578     40.212578     80.425156
     -3.018018     38.326419     38.326419     76.652838
     -3.008008     35.490061     35.490061     70.980122
     -2.997998     31.933807     31.933807     63.867614
     -2.987988     28.009168     28.009168     56.018336
     -2.977978     24.254008     24.254008     48.508015
     -2.967968     21.358405     21.358405     42.716809
     -2.957958     20.019579     20.019579     40.039158
     -2.947948     20.738805     20.738805     41.477610
     -2.937938     23.643193     23.643193     47.286385
     -2.927928     28.402431     28.402431     56.804862
     -2.917918     34.272265     34.272265     68.544530
     -2.907908     40.254080     40.254080     80.508160
     -2.897898     45.326412     45.326412     90.652825
     -2.887888     48.684317     48.684317     97.368635
     -2.877878     49.919248     49.919248     99.838496
     -2.867868     49.087345     49.087345     98.174689
     -2.857858     46.646038     46.646038     93.292077
     -2.847848     43.280015     43.280015     86.560030
     -2.837838     39.675300     39.675300     79.350599
     -2.827828     36.320298     36.320298     72.640595
     -2.817818     33.404185     33.404185     66.808370
     -2.807808     30.844940     30.844940     61.689880
     -2.797798     28.424349     28.424349     56.848698
     -2.787788     25.959813     25.959813     51.919627
     -2.777778     23.427582     23.427582     46.855164
     -2.767768     20.979718     20.979718     41.959437
     -2.757758     18.855707     18.855707     37.711414
     -2.747748     17.247989     17.247989     34.495977
     -2.737738     16.205436     16.205436     32.410872
     -2.727728     15.633660     15.633660     31.267319
     -2.717718     15.389286     15.389286     30.778572
     -2.707708     15.404032     15.404032     30.808064
     -2.697698     15.752768     15.752768     31.505536
     -2.687688     16.613793     16.613793     33.227587
     -2.677678     18.139611     18.139611     36.279223
     -2.667668     20.318276     20.318276     40.636552
     -2.657658     22.917426     22.917426     45.834852
     -2.647648     25.554738     25.554738     51.109475
     -2.637638     27.858687     27.858687     55.717374
     -2.627628     29.624561     29.624561     59.249121
     -2.617618     30.873671     30.873671     61.747342
     -2.607608     31.788092     31.788092     63.576185
     -2.597598     32.573496     32.573496     65.146991
     -2.587588     33.340734     33.340734     66.681468
     -2.577578     34.067589     34.067589     68.135178
     -2.567568     34.634649     34.634649     69.269298
     -2.557558     34.882091     34.882091     69.764183
     -2.547548     34.643327     34.643327     69.286653
     -2.537538     33.759381     33.759381     67.518761
     -2.527528     32.112027     32.112027     64.224054
     -2.517518     29.697814     29.697814     59.395627
     -2.507508     26.713712     26.713712     53.427424
     -2.497497     23.587972     23.587972     47.175944
     -2.487487     20.905035     20.905035     41.810070
     -2.477477     19.233930     19.233930     38.467859
     -2.467467     18.932254     18.932254     37.864508
     -2.457457     20.020069     20.020069     40.040139
     -2.447447     22.187207     22.187207     44.374414
     -2.437437     24.933100     24.933100     49.866199
     -2.427427     27.774491     27.774491     55.548982
     -2.417417     30.423615     30.423615     60.847231
     -2.407407     32.852621     32.852621     65.705241
     -2.397397     35.213925     35.213925     70.427849
     -2.387387     37.656670     37.656670     75.313339
     -2.377377     40.133117     40.133117     80.266234
     -2.367367     42.298836     42.298836     84.597672
     -2.357357     43.569960     43.569960     87.139921
     -2.347347     43.326716     43.326716     86.653433
     -2.337337     41.179175     41.179175     82.358349
     -2.327327     37.175718     37.175718     74.351437
     -2.317317     31.857595     31.857595     63.715189
     -2.307307     26.134109     26.134109     52.268218
     -2.297297     21.034015     21.034015     42.068030
     -2.287287     17.435507     17.435507     34.871014
     -2.277277     15.869819     15.869819     31.739639
     -2.267267     16.446455     16.446455     32.892910
     -2.257257     18.895153     18.895153     37.790307
     -2.247247     22.686007     22.686007     45.372014
     -2.237237     27.178514     27.178514     54.357027
     -2.227227     31.754003     31.754003     63.508007
     -2.217217     35.897999     35.897999     71.795998
     -2.207207     39.220675     39.220675     78.441351
     -2.197197     41.432940     41.432940     82.865879
     -2.187187     42.319523     42.319523     84.639045
     -2.177177     41.749826     41.749826     83.499652
     -2.167167     39.734927     39.734927     79.469854
     -2.157157     36.492759     36.492759     72.985518
     -2.147147     32.458053     32.458053     64.916106
     -2.137137     28.194984     28.194984     56.389967
     -2.127127     24.230865     24.230865     48.461730
     -2.117117     20.887813     20.887813     41.775625
     -2.107107     18.201653     18.201653     36.403306
     -2.097097     15.970884     15.970884     31.941768
     -2.087087     13.903818     13.903818     27.807636
     -2.077077     11.779742     11.779742     23.559484
     -2.067067      9.542417      9.542417     19.084835
     -2.057057      7.293743      7.293743     14.587486
     -2.047047      5.214168      5.214168     10.428335
     -2.037037      3.467336      3.467336      6.934671
     -2.027027      2.138141      2.138141      4.276283
     -2.017017      1.221550      1.221550      2.443101
     -2.007007      0.649663      0.649663      1.299325
     -1.996997      0.332299      0.332299      0.664598
     -1.986987      0.191522      0.191522      0.383044
     -1.976977      0.182729      0.182729      0.365458
     -1.966967      0.304256      0.304256      0.608512
     -1.956957      0.599586      0.599586      1.199171
     -1.946947      1.152886      1.152886      2.305772
     -1.936937      2.074277      2.074277      4.148554
     -1.926927      3.470569      3.470569      6.941137
     -1.916917      5.402759      5.402759     10.805518
     -1.906907      7.841415      7.841415     15.682830
     -1.896897     10.638932     10.638932     21.277864
     -1.886887     13.536342     13.536342     27.072684
     -1.876877     16.209859     16.209859     32.419718
     -1.866867     18.345018     18.345018     36.690035
     -1.856857     19.714574     19.714574     39.429148
     -1.846847     20.235849     20.235849     40.471698
     -1.836837     19.990658     19.990658     39.981317
     -1.826827     19.199842     19.199842     38.399684
     -1.816817     18.153720     18.153720     36.307440
     -1.806807     17.113806     17.113806     34.227612
     -1.796797     16.219078     16.219078     32.438155
     -1.786787     15.439664     15.439664     30.879328
     -1.776777     14.606797     14.606797     29.213593
     -1.766767     13.510328     13.510328     27.020655
     -1.756757     12.015953     12.015953     24.031905
     -1.746747     10.142096     10.142096     20.284192
     -1.736737      8.061825      8.061825     16.123650
     -1.726727      6.040579      6.040579     12.081158
     -1.716717      4.354208      4.354208      8.708416
     -1.706707      3.232883      3.232883      6.465766
     -1.696697      2.848604      2.848604      5.697208
     -1.686687      3.329103      3.329103      6.658207
     -1.676677      4.762004      4.762004      9.524007
     -1.666667      7.161121      7.161121     14.322241
     -1.656657     10.397352     10.397352     20.794704
     -1.646647     14.132739     14.132739     28.265478
     -1.636637     17.815032     17.815032     35.630064
     -1.626627     20.773605     20.773605     41.547210
