# EIG2DOS: Utility for SIESTA to obtain the electronic density of states
#  E. Artacho, Apr 1999, A. Garcia, Apr 2012
#  Nick R. Papior, Feb 2017
# ------------------------------------------
# Eigenvalues calculated from a non-polarized calculation
# Eigenvalues read from siesta.EIG
# Kpoint weights read from siesta.KP
# Using smearing parameter:   0.0500
# Using 1000 points in the energy range
# Selected bands: 1 to: 2981
# Emin, Emax in file for selected band(s):    -27.5041971    218.4148580
# Nbands, Nspin, Nk   =   2981     1     1
# E_F                 =    -4.1900 eV --> (shifted to ZERO)
# Broadening          =     0.0500 eV
#
#        E            N(up)  (=)   N(down)         Ntot
     -5.000000     34.840962     34.840962     69.681925
     -4.989990     39.956759     39.956759     79.913519
     -4.979980     44.487196     44.487196     88.974391
     -4.969970     47.766506     47.766506     95.533011
     -4.959960     49.387735     49.387735     98.775469
     -4.949950     49.331021     49.331021     98.662043
     -4.939940     47.940997     47.940997     95.881995
     -4.929930     45.787363     45.787363     91.574727
     -4.919920     43.499945     43.499945     86.999889
     -4.909910     41.657736     41.657736     83.315472
     -4.899900     40.744443     40.744443     81.488885
     -4.889890     41.118746     41.118746     82.237492
     -4.879880     42.941976     42.941976     85.883951
     -4.869870     46.065137     46.065137     92.130275
     -4.859860     49.950149     49.950149     99.900298
     -4.849850     53.719960     53.719960    107.439920
     -4.839840     56.373125     56.373125    112.746251
     -4.829830     57.097328     57.097328    114.194657
     -4.819820     55.544373     55.544373    111.088746
     -4.809810     51.937010     51.937010    103.874020
     -4.799800     46.961259     46.961259     93.922518
     -4.789790     41.503736     41.503736     83.007473
     -4.779780     36.359673     36.359673     72.719346
     -4.769770     32.032089     32.032089     64.064177
     -4.759760     28.679847     28.679847     57.359693
     -4.749750     26.195402     26.195402     52.390805
     -4.739740     24.343264     24.343264     48.686528
     -4.729730     22.884227     22.884227     45.768455
     -4.719720     21.639291     21.639291     43.278582
     -4.709710     20.489724     20.489724     40.979448
     -4.699700     19.345502     19.345502     38.691005
     -4.689690     18.128089     18.128089     36.256178
     -4.679680     16.798826     16.798826     33.597652
     -4.669670     15.428163     15.428163     30.856327
     -4.659660     14.264479     14.264479     28.528959
     -4.649650     13.747516     13.747516     27.495032
     -4.639640     14.429857     14.429857     28.859714
     -4.629630     16.810622     16.810622     33.621244
     -4.619620     21.128990     21.128990     42.257980
     -4.609610     27.193947     27.193947     54.387894
     -4.599600     34.329740     34.329740     68.659479
     -4.589590     41.487319     41.487319     82.974638
     -4.579580     47.512428     47.512428     95.024857
     -4.569570     51.489709     51.489709    102.979418
     -4.559560     53.034135     53.034135    106.068270
     -4.549550     52.408321     52.408321    104.816643
     -4.539540     50.411213     50.411213    100.822426
     -4.529530     48.079501     48.079501     96.159003
     -4.519520     46.320275     46.320275     92.640550
     -4.509510     45.616358     45.616358     91.232715
     -4.499499     45.908633     45.908633     91.817265
     -4.489489     46.683368     46.683368     93.366737
     -4.479479     47.211398     47.211398     94.422796
     -4.469469     46.832769     46.832769     93.665537
     -4.459459     45.174983     45.174983     90.349966
     -4.449449     42.234756     42.234756     84.469513
     -4.439439     38.320811     38.320811     76.641621
     -4.429429     33.914938     33.914938     67.829876
     -4.419419     29.530945     29.530945     59.061891
     -4.409409     25.627432     25.627432     51.254864
     -4.399399     22.579623     22.579623     45.159246
     -4.389389     20.673686     20.673686     41.347373
     -4.379379     20.082914     20.082914     40.165828
     -4.369369     20.818768     20.818768     41.637536
     -4.359359     22.691285     22.691285     45.382569
     -4.349349     25.326882     25.326882     50.653763
     -4.339339     28.263910     28.263910     56.527820
     -4.329329     31.096819     31.096819     62.193639
     -4.319319     33.604128     33.604128     67.208256
     -4.309309     35.797490     35.797490     71.594981
     -4.299299     37.865735     37.865735     75.731470
     -4.289289     40.035364     40.035364     80.070727
     -4.279279     42.404120     42.404120     84.808239
     -4.269269     44.816540     44.816540     89.633081
     -4.259259     46.840227     46.840227     93.680454
     -4.249249     47.870784     47.870784     95.741568
     -4.239239     47.344459     47.344459     94.688918
     -4.229229     44.983203     44.983203     89.966407
     -4.219219     40.964612     40.964612     81.929224
     -4.209209     35.926905     35.926905     71.853809
     -4.199199     30.789598     30.789598     61.579195
     -4.189189     26.460164     26.460164     52.920328
     -4.179179     23.554196     23.554196     47.108393
     -4.169169     22.247770     22.247770     44.495540
     -4.159159     22.313023     22.313023     44.626045
     -4.149149     23.301287     23.301287     46.602574
     -4.139139     24.776272     24.776272     49.552545
     -4.129129     26.486512     26.486512     52.973023
     -4.119119     28.400804     28.400804     56.801608
     -4.109109     30.596446     30.596446     61.192892
     -4.099099     33.063470     33.063470     66.126941
     -4.089089     35.538686     35.538686     71.077371
     -4.079079     37.480728     37.480728     74.961456
     -4.069069     38.230035     38.230035     76.460071
     -4.059059     37.292633     37.292633     74.585266
     -4.049049     34.604918     34.604918     69.209836
     -4.039039     30.635034     30.635034     61.270068
     -4.029029     26.262182     26.262182     52.524364
     -4.019019     22.494815     22.494815     44.989631
     -4.009009     20.166280     20.166280     40.332560
     -3.998999     19.738917     19.738917     39.477834
     -3.988989     21.271486     21.271486     42.542972
     -3.978979     24.516440     24.516440     49.032879
     -3.968969     29.065883     29.065883     58.131765
     -3.958959     34.474682     34.474682     68.949363
     -3.948949     40.333543     40.333543     80.667086
     -3.938939     46.304304     46.304304     92.608609
     -3.928929     52.137567     52.137567    104.275135
     -3.918919     57.673540     57.673540    115.347079
     -3.908909     62.809090     62.809090    125.618180
     -3.898899     67.422775     67.422775    134.845550
     -3.888889     71.282958     71.282958    142.565916
     -3.878879     73.993769     73.993769    147.987538
     -3.868869     75.030473     75.030473    150.060946
     -3.858859     73.875532     73.875532    147.751064
     -3.848849     70.212727     70.212727    140.425454
     -3.838839     64.101253     64.101253    128.202505
     -3.828829     56.053541     56.053541    112.107082
     -3.818819     46.976564     46.976564     93.953128
     -3.808809     37.988007     37.988007     75.976014
     -3.798799     30.163517     30.163517     60.327034
     -3.788789     24.292947     24.292947     48.585895
     -3.778779     20.716827     20.716827     41.433654
     -3.768769     19.285270     19.285270     38.570540
     -3.758759     19.443305     19.443305     38.886609
     -3.748749     20.412539     20.412539     40.825078
     -3.738739     21.417719     21.417719     42.835438
     -3.728729     21.900084     21.900084     43.800168
     -3.718719     21.665296     21.665296     43.330593
     -3.708709     20.928733     20.928733     41.857466
     -3.698699     20.242875     20.242875     40.485749
     -3.688689     20.319302     20.319302     40.638604
     -3.678679     21.788990     21.788990     43.577980
     -3.668669     24.971631     24.971631     49.943261
     -3.658659     29.734266     29.734266     59.468531
     -3.648649     35.498051     35.498051     70.996102
     -3.638639     41.398045     41.398045     82.796090
     -3.628629     46.534358     46.534358     93.068716
     -3.618619     50.210365     50.210365    100.420731
     -3.608609     52.065057     52.065057    104.130114
     -3.598599     52.069028     52.069028    104.138056
     -3.588589     50.426872     50.426872    100.853744
     -3.578579     47.462999     47.462999     94.925997
     -3.568569     43.544818     43.544818     87.089637
     -3.558559     39.045092     39.045092     78.090183
     -3.548549     34.312584     34.312584     68.625169
     -3.538539     29.631140     29.631140     59.262279
     -3.528529     25.181843     25.181843     50.363686
     -3.518519     21.040701     21.040701     42.081402
     -3.508509     17.225367     17.225367     34.450735
     -3.498498     13.767204     13.767204     27.534408
     -3.488488     10.764159     10.764159     21.528318
     -3.478478      8.382480      8.382480     16.764959
     -3.468468      6.807749      6.807749     13.615499
     -3.458458      6.172084      6.172084     12.344168
     -3.448448      6.490931      6.490931     12.981863
     -3.438438      7.634966      7.634966     15.269933
     -3.428428      9.350890      9.350890     18.701779
     -3.418418     11.331991     11.331991     22.663981
     -3.408408     13.321131     13.321131     26.642261
     -3.398398     15.207658     15.207658     30.415317
     -3.388388     17.070446     17.070446     34.140891
     -3.378378     19.137201     19.137201     38.274402
     -3.368368     21.672674     21.672674     43.345348
     -3.358358     24.848869     24.848869     49.697738
     -3.348348     28.657713     28.657713     57.315427
     -3.338338     32.893631     32.893631     65.787262
     -3.328328     37.187365     37.187365     74.374731
     -3.318318     41.053176     41.053176     82.106352
     -3.308308     43.934120     43.934120     87.868241
     -3.298298     45.267447     45.267447     90.534894
     -3.288288     44.599172     44.599172     89.198345
     -3.278278     41.736274     41.736274     83.472548
     -3.268268     36.869216     36.869216     73.738431
     -3.258258     30.581910     30.581910     61.163821
     -3.248248     23.715693     23.715693     47.431385
     -3.238238     17.136662     17.136662     34.273323
     -3.228228     11.510620     11.510620     23.021240
     -3.218218      7.179005      7.179005     14.358010
     -3.208208      4.167049      4.167049      8.334097
     -3.198198      2.289492      2.289492      4.578983
     -3.188188      1.288691      1.288691      2.577381
     -3.178178      0.950329      0.950329      1.900659
     -3.168168      1.171460      1.171460      2.342920
     -3.158158      1.979414      1.979414      3.958828
     -3.148148      3.507935      3.507935      7.015869
     -3.138138      5.934993      5.934993     11.869986
     -3.128128      9.388104      9.388104     18.776209
     -3.118118     13.835423     13.835423     27.670845
     -3.108108     18.999934     18.999934     37.999869
     -3.098098     24.344185     24.344185     48.688371
     -3.088088     29.157718     29.157718     58.315435
     -3.078078     32.736084     32.736084     65.472168
     -3.068068     34.588034     34.588034     69.176068
     -3.058058     34.579662     34.579662     69.159325
     -3.048048     32.946113     32.946113     65.892225
     -3.038038     30.167517     30.167517     60.335033
     -3.028028     26.778137     26.778137     53.556274
     -3.018018     23.209493     23.209493     46.418985
     -3.008008     19.738779     19.738779     39.477558
     -2.997998     16.544701     16.544701     33.089402
     -2.987988     13.811273     13.811273     27.622546
     -2.977978     11.803166     11.803166     23.606332
     -2.967968     10.865161     10.865161     21.730321
     -2.957958     11.345159     11.345159     22.690318
     -2.947948     13.474798     13.474798     26.949595
     -2.937938     17.253145     17.253145     34.506290
     -2.927928     22.374758     22.374758     44.749516
     -2.917918     28.233057     28.233057     56.466115
     -2.907908     34.014200     34.014200     68.028399
     -2.897898     38.870976     38.870976     77.741953
     -2.887888     42.132955     42.132955     84.265910
     -2.877878     43.482413     43.482413     86.964827
     -2.867868     43.024752     43.024752     86.049503
     -2.857858     41.216651     41.216651     82.433301
     -2.847848     38.675184     38.675184     77.350369
     -2.837838     35.947861     35.947861     71.895723
     -2.827828     33.344916     33.344916     66.689831
     -2.817818     30.905061     30.905061     61.810121
     -2.807808     28.497239     28.497239     56.994477
     -2.797798     25.990778     25.990778     51.981555
     -2.787788     23.394752     23.394752     46.789505
     -2.777778     20.892258     20.892258     41.784515
     -2.767768     18.761230     18.761230     37.522461
     -2.757758     17.240623     17.240623     34.481247
     -2.747748     16.428837     16.428837     32.857673
     -2.737738     16.274033     16.274033     32.548067
     -2.727728     16.651251     16.651251     33.302503
     -2.717718     17.461707     17.461707     34.923414
     -2.707708     18.676358     18.676358     37.352715
     -2.697698     20.289817     20.289817     40.579634
     -2.687688     22.222639     22.222639     44.445278
     -2.677678     24.257041     24.257041     48.514082
     -2.667668     26.074879     26.074879     52.149757
     -2.657658     27.394130     27.394130     54.788261
     -2.647648     28.122769     28.122769     56.245539
     -2.637638     28.425705     28.425705     56.851410
     -2.627628     28.652131     28.652131     57.304262
     -2.617618     29.161058     29.161058     58.322117
     -2.607608     30.146219     30.146219     60.292438
     -2.597598     31.553628     31.553628     63.107257
     -2.587588     33.117379     33.117379     66.234758
     -2.577578     34.467075     34.467075     68.934150
     -2.567568     35.236102     35.236102     70.472204
     -2.557558     35.131491     35.131491     70.262982
     -2.547548     33.975180     33.975180     67.950360
     -2.537538     31.746385     31.746385     63.492770
     -2.527528     28.631795     28.631795     57.263590
     -2.517518     25.051974     25.051974     50.103948
     -2.507508     21.618858     21.618858     43.237716
     -2.497497     19.006614     19.006614     38.013228
     -2.487487     17.767654     17.767654     35.535307
     -2.477477     18.162947     18.162947     36.325894
     -2.467467     20.078410     20.078410     40.156819
     -2.457457     23.067158     23.067158     46.134316
     -2.447447     26.507065     26.507065     53.014130
     -2.437437     29.815048     29.815048     59.630096
     -2.427427     32.632637     32.632637     65.265275
     -2.417417     34.904276     34.904276     69.808552
     -2.407407     36.811765     36.811765     73.623530
     -2.397397     38.591419     38.591419     77.182838
     -2.387387     40.318777     40.318777     80.637553
     -2.377377     41.770528     41.770528     83.541056
     -2.367367     42.446480     42.446480     84.892960
     -2.357357     41.760259     41.760259     83.520519
     -2.347347     39.318656     39.318656     78.637313
     -2.337337     35.155618     35.155618     70.311236
     -2.327327     29.804579     29.804579     59.609157
     -2.317317     24.175624     24.175624     48.351249
     -2.307307     19.301116     19.301116     38.602233
     -2.297297     16.065479     16.065479     32.130958
     -2.287287     15.018160     15.018160     30.036320
     -2.277277     16.308411     16.308411     32.616823
     -2.267267     19.722910     19.722910     39.445821
     -2.257257     24.781284     24.781284     49.562568
     -2.247247     30.847514     30.847514     61.695027
     -2.237237     37.228516     37.228516     74.457033
     -2.227227     43.244019     43.244019     86.488037
     -2.217217     48.266222     48.266222     96.532445
     -2.207207     51.745773     51.745773    103.491546
     -2.197197     53.252547     53.252547    106.505094
     -2.187187     52.549977     52.549977    105.099955
     -2.177177     49.686970     49.686970     99.373940
     -2.167167     45.053379     45.053379     90.106759
     -2.157157     39.337407     39.337407     78.674815
     -2.147147     33.363984     33.363984     66.727968
     -2.137137     27.862936     27.862936     55.725871
     -2.127127     23.267586     23.267586     46.535172
     -2.117117     19.638369     19.638369     39.276738
     -2.107107     16.741435     16.741435     33.482869
     -2.097097     14.230064     14.230064     28.460129
     -2.087087     11.829445     11.829445     23.658890
     -2.077077      9.439049      9.439049     18.878097
     -2.067067      7.125380      7.125380     14.250760
     -2.057057      5.039052      5.039052     10.078104
     -2.047047      3.318136      3.318136      6.636273
     -2.037037      2.027219      2.027219      4.054438
     -2.027027      1.147525      1.147525      2.295051
     -2.017017      0.603859      0.603859      1.207718
     -2.007007      0.303323      0.303323      0.606645
     -1.996997      0.167035      0.167035      0.334070
     -1.986987      0.148556      0.148556      0.297113
     -1.976977      0.241804      0.241804      0.483608
     -1.966967      0.483210      0.483210      0.966420
     -1.956957      0.949362      0.949362      1.898724
     -1.946947      1.746554      1.746554      3.493107
     -1.936937      2.986897      2.986897      5.973794
     -1.926927      4.749764      4.749764      9.499529
     -1.916917      7.036627      7.036627     14.073255
     -1.906907      9.736685      9.736685     19.473369
     -1.896897     12.622526     12.622526     25.245052
     -1.886887     15.385438     15.385438     30.770876
     -1.876877     17.702956     17.702956     35.405912
     -1.866867     19.317153     19.317153     38.634306
     -1.856857     20.098818     20.098818     40.197636
     -1.846847     20.078975     20.078975     40.157950
     -1.836837     19.438014     19.438014     38.876027
     -1.826827     18.450684     18.450684     36.901368
     -1.816817     17.396257     17.396257     34.792514
     -1.806807     16.460158     16.460158     32.920316
     -1.796797     15.667985     15.667985     31.335969
     -1.786787     14.888461     14.888461     29.776923
     -1.776777     13.911310     13.911310     27.822619
     -1.766767     12.564036     12.564036     25.128072
     -1.756757     10.807477     10.807477     21.614953
     -1.746747      8.762800      8.762800     17.525600
     -1.736737      6.664385      6.664385     13.328770
     -1.726727      4.774127      4.774127      9.548254
     -1.716717      3.306566      3.306566      6.613132
     -1.706707      2.396191      2.396191      4.792382
     -1.696697      2.105422      2.105422      4.210844
     -1.686687      2.447280      2.447280      4.894560
     -1.676677      3.393888      3.393888      6.787776
     -1.666667      4.859128      4.859128      9.718256
     -1.656657      6.668829      6.668829     13.337659
     -1.646647      8.549212      8.549212     17.098424
     -1.636637     10.162176     10.162176     20.324352
     -1.626627     11.192845     11.192845     22.385689
