# EIG2DOS: Utility for SIESTA to obtain the electronic density of states
#  E. Artacho, Apr 1999, A. Garcia, Apr 2012
#  Nick R. Papior, Feb 2017
# ------------------------------------------
# Eigenvalues calculated from a non-polarized calculation
# Eigenvalues read from siesta.EIG
# Kpoint weights read from siesta.KP
# Using smearing parameter:   0.0500
# Using 1000 points in the energy range
# Selected bands: 1 to: 2981
# Emin, Emax in file for selected band(s):    -27.0464658    218.3172460
# Nbands, Nspin, Nk   =   2981     1     1
# E_F                 =    -4.2925 eV --> (shifted to ZERO)
# Broadening          =     0.0500 eV
#
#        E            N(up)  (=)   N(down)         Ntot
     -5.000000     46.296970     46.296970     92.593940
     -4.989990     49.743366     49.743366     99.486732
     -4.979980     51.514540     51.514540    103.029081
     -4.969970     51.476315     51.476315    102.952631
     -4.959960     49.770752     49.770752     99.541503
     -4.949950     46.757621     46.757621     93.515243
     -4.939940     42.924535     42.924535     85.849070
     -4.929930     38.813168     38.813168     77.626336
     -4.919920     34.986697     34.986697     69.973395
     -4.909910     32.026661     32.026661     64.053322
     -4.899900     30.517092     30.517092     61.034183
     -4.889890     30.967837     30.967837     61.935674
     -4.879880     33.658426     33.658426     67.316853
     -4.869870     38.443762     38.443762     76.887525
     -4.859860     44.623121     44.623121     89.246242
     -4.849850     50.987159     50.987159    101.974318
     -4.839840     56.092919     56.092919    112.185837
     -4.829830     58.694925     58.694925    117.389849
     -4.819820     58.154104     58.154104    116.308208
     -4.809810     54.633245     54.633245    109.266489
     -4.799800     48.988881     48.988881     97.977761
     -4.789790     42.425131     42.425131     84.850262
     -4.779780     36.085542     36.085542     72.171084
     -4.769770     30.759726     30.759726     61.519452
     -4.759760     26.788046     26.788046     53.576093
     -4.749750     24.134720     24.134720     48.269440
     -4.739740     22.537685     22.537685     45.075370
     -4.729730     21.649948     21.649948     43.299896
     -4.719720     21.130860     21.130860     42.261719
     -4.709710     20.687241     20.687241     41.374482
     -4.699700     20.085651     20.085651     40.171302
     -4.689690     19.161149     19.161149     38.322297
     -4.679680     17.841033     17.841033     35.682065
     -4.669670     16.186499     16.186499     32.372997
     -4.659660     14.435392     14.435392     28.870785
     -4.649650     13.015725     13.015725     26.031450
     -4.639640     12.501643     12.501643     25.003286
     -4.629630     13.500638     13.500638     27.001275
     -4.619620     16.484817     16.484817     32.969634
     -4.609610     21.603459     21.603459     43.206917
     -4.599600     28.535697     28.535697     57.071394
     -4.589590     36.453394     36.453394     72.906787
     -4.579580     44.148929     44.148929     88.297857
     -4.569570     50.329054     50.329054    100.658107
     -4.559560     53.996866     53.996866    107.993732
     -4.549550     54.780668     54.780668    109.561336
     -4.539540     53.066534     53.066534    106.133068
     -4.529530     49.864772     49.864772     99.729544
     -4.519520     46.455959     46.455959     92.911918
     -4.509510     43.958720     43.958720     87.917440
     -4.499499     42.989127     42.989127     85.978254
     -4.489489     43.531070     43.531070     87.062140
     -4.479479     45.039904     45.039904     90.079808
     -4.469469     46.708122     46.708122     93.416244
     -4.459459     47.771709     47.771709     95.543418
     -4.449449     47.742266     47.742266     95.484532
     -4.439439     46.499653     46.499653     92.999305
     -4.429429     44.245182     44.245182     88.490364
     -4.419419     41.368304     41.368304     82.736609
     -4.409409     38.300868     38.300868     76.601735
     -4.399399     35.417338     35.417338     70.834677
     -4.389389     32.998494     32.998494     65.996987
     -4.379379     31.235312     31.235312     62.470625
     -4.369369     30.234485     30.234485     60.468970
     -4.359359     30.005019     30.005019     60.010039
     -4.349349     30.439532     30.439532     60.879064
     -4.339339     31.323810     31.323810     62.647620
     -4.329329     32.395734     32.395734     64.791469
     -4.319319     33.439101     33.439101     66.878202
     -4.309309     34.368232     34.368232     68.736464
     -4.299299     35.258517     35.258517     70.517034
     -4.289289     36.304468     36.304468     72.608937
     -4.279279     37.719521     37.719521     75.439043
     -4.269269     39.612322     39.612322     79.224645
     -4.259259     41.881305     41.881305     83.762610
     -4.249249     44.170356     44.170356     88.340711
     -4.239239     45.921928     45.921928     91.843856
     -4.229229     46.537062     46.537062     93.074124
     -4.219219     45.599988     45.599988     91.199975
     -4.209209     43.072422     43.072422     86.144845
     -4.199199     39.352645     39.352645     78.705290
     -4.189189     35.151294     35.151294     70.302589
     -4.179179     31.234122     31.234122     62.468244
     -4.169169     28.158001     28.158001     56.316002
     -4.159159     26.128097     26.128097     52.256194
     -4.149149     25.031760     25.031760     50.063520
     -4.139139     24.608200     24.608200     49.216401
     -4.129129     24.649519     24.649519     49.299039
     -4.119119     25.124760     25.124760     50.249520
     -4.109109     26.165014     26.165014     52.330027
     -4.099099     27.918360     27.918360     55.836720
     -4.089089     30.351329     30.351329     60.702657
     -4.079079     33.111596     33.111596     66.223192
     -4.069069     35.550131     35.550131     71.100262
     -4.059059     36.924499     36.924499     73.848999
     -4.049049     36.700853     36.700853     73.401706
     -4.039039     34.802979     34.802979     69.605959
     -4.029029     31.674386     31.674386     63.348773
     -4.019019     28.120673     28.120673     56.241345
     -4.009009     25.020855     25.020855     50.041709
     -3.998999     23.058546     23.058546     46.117091
     -3.988989     22.590368     22.590368     45.180736
     -3.978979     23.671297     23.671297     47.342595
     -3.968969     26.166870     26.166870     52.333740
     -3.958959     29.857587     29.857587     59.715174
     -3.948949     34.484738     34.484738     68.969476
     -3.938939     39.753158     39.753158     79.506317
     -3.928929     45.340104     45.340104     90.680207
     -3.918919     50.939192     50.939192    101.878385
     -3.908909     56.318995     56.318995    112.637990
     -3.898899     61.343598     61.343598    122.687195
     -3.888889     65.916960     65.916960    131.833919
     -3.878879     69.865911     69.865911    139.731822
     -3.868869     72.831007     72.831007    145.662015
     -3.858859     74.251030     74.251030    148.502059
     -3.848849     73.489276     73.489276    146.978552
     -3.838839     70.074100     70.074100    140.148200
     -3.828829     63.953619     63.953619    127.907237
     -3.818819     55.639203     55.639203    111.278405
     -3.808809     46.154239     46.154239     92.308479
     -3.798799     36.793455     36.793455     73.586911
     -3.788789     28.784163     28.784163     57.568326
     -3.778779     22.977503     22.977503     45.955007
     -3.768769     19.672071     19.672071     39.344143
     -3.758759     18.608668     18.608668     37.217336
     -3.748749     19.112259     19.112259     38.224518
     -3.738739     20.321188     20.321188     40.642377
     -3.728729     21.436350     21.436350     42.872700
     -3.718719     21.931997     21.931997     43.863995
     -3.708709     21.683725     21.683725     43.367449
     -3.698699     20.984595     20.984595     41.969189
     -3.688689     20.440582     20.440582     40.881164
     -3.678679     20.764389     20.764389     41.528777
     -3.668669     22.519691     22.519691     45.039383
     -3.658659     25.895064     25.895064     51.790128
     -3.648649     30.591427     30.591427     61.182855
     -3.638639     35.875657     35.875657     71.751314
     -3.628629     40.789498     40.789498     81.578996
     -3.618619     44.434379     44.434379     88.868758
     -3.608609     46.218353     46.218353     92.436705
     -3.598599     45.975149     45.975149     91.950299
     -3.588589     43.933565     43.933565     87.867130
     -3.578579     40.583417     40.583417     81.166834
     -3.568569     36.511265     36.511265     73.022529
     -3.558559     32.260157     32.260157     64.520313
     -3.548549     28.233044     28.233044     56.466088
     -3.538539     24.641294     24.641294     49.282587
     -3.528529     21.502272     21.502272     43.004544
     -3.518519     18.692111     18.692111     37.384222
     -3.508509     16.044018     16.044018     32.088035
     -3.498498     13.456455     13.456455     26.912910
     -3.488488     10.963649     10.963649     21.927297
     -3.478478      8.737661      8.737661     17.475322
     -3.468468      7.026095      7.026095     14.052190
     -3.458458      6.057513      6.057513     12.115026
     -3.448448      5.952721      5.952721     11.905442
     -3.438438      6.669059      6.669059     13.338117
     -3.428428      7.991715      7.991715     15.983431
     -3.418418      9.577860      9.577860     19.155719
     -3.408408     11.050333     11.050333     22.100666
     -3.398398     12.120434     12.120434     24.240869
     -3.388388     12.698751     12.698751     25.397501
     -3.378378     12.945737     12.945737     25.891474
     -3.368368     13.232901     13.232901     26.465802
     -3.358358     14.024846     14.024846     28.049692
     -3.348348     15.727983     15.727983     31.455965
     -3.338338     18.560040     18.560040     37.120080
     -3.328328     22.473227     22.473227     44.946453
     -3.318318     27.134294     27.134294     54.268587
     -3.308308     31.952442     31.952442     63.904885
     -3.298298     36.156121     36.156121     72.312241
     -3.288288     38.930423     38.930423     77.860846
     -3.278278     39.610814     39.610814     79.221629
     -3.268268     37.885309     37.885309     75.770619
     -3.258258     33.920451     33.920451     67.840902
     -3.248248     28.337680     28.337680     56.675361
     -3.238238     22.032896     22.032896     44.065793
     -3.228228     15.912841     15.912841     31.825681
     -3.218218     10.661731     10.661731     21.323461
     -3.208208      6.625437      6.625437     13.250875
     -3.198198      3.832166      3.832166      7.664333
     -3.188188      2.106063      2.106063      4.212126
     -3.178178      1.206818      1.206818      2.413636
     -3.168168      0.943807      0.943807      1.887615
     -3.158158      1.243853      1.243853      2.487707
     -3.148148      2.173579      2.173579      4.347157
     -3.138138      3.921994      3.921994      7.843988
     -3.128128      6.743547      6.743547     13.487094
     -3.118118     10.860028     10.860028     21.720056
     -3.108108     16.331455     16.331455     32.662910
     -3.098098     22.930197     22.930197     45.860394
     -3.088088     30.075110     30.075110     60.150220
     -3.078078     36.882170     36.882170     73.764340
     -3.068068     42.350963     42.350963     84.701927
     -3.058058     45.640842     45.640842     91.281685
     -3.048048     46.331313     46.331313     92.662626
     -3.038038     44.550826     44.550826     89.101653
     -3.028028     40.914236     40.914236     81.828472
     -3.018018     36.303598     36.303598     72.607195
     -3.008008     31.600496     31.600496     63.200992
     -2.997998     27.484763     27.484763     54.969526
     -2.987988     24.357984     24.357984     48.715967
     -2.977978     22.377616     22.377616     44.755232
     -2.967968     21.546402     21.546402     43.092805
     -2.957958     21.802968     21.802968     43.605937
     -2.947948     23.080428     23.080428     46.160856
     -2.937938     25.317062     25.317062     50.634124
     -2.927928     28.416083     28.416083     56.832166
     -2.917918     32.172099     32.172099     64.344197
     -2.907908     36.208985     36.208985     72.417969
     -2.897898     39.985399     39.985399     79.970798
     -2.887888     42.898637     42.898637     85.797273
     -2.877878     44.460659     44.460659     88.921318
     -2.867868     44.467220     44.467220     88.934441
     -2.857858     43.070731     43.070731     86.141462
     -2.847848     40.711452     40.711452     81.422904
     -2.837838     37.935086     37.935086     75.870171
     -2.827828     35.184372     35.184372     70.368744
     -2.817818     32.663966     32.663966     65.327932
     -2.807808     30.336494     30.336494     60.672988
     -2.797798     28.037495     28.037495     56.074991
     -2.787788     25.636465     25.636465     51.272931
     -2.777778     23.152379     23.152379     46.304758
     -2.767768     20.763781     20.763781     41.527561
     -2.757758     18.717235     18.717235     37.434470
     -2.747748     17.197364     17.197364     34.394728
     -2.737738     16.242266     16.242266     32.484532
     -2.727728     15.757017     15.757017     31.514035
     -2.717718     15.613307     15.613307     31.226614
     -2.707708     15.765280     15.765280     31.530560
     -2.697698     16.298532     16.298532     32.597065
     -2.687688     17.371875     17.371875     34.743750
     -2.677678     19.084153     19.084153     38.168306
     -2.667668     21.353421     21.353421     42.706842
     -2.657658     23.894453     23.894453     47.788907
     -2.647648     26.320256     26.320256     52.640511
     -2.637638     28.311900     28.311900     56.623800
     -2.627628     29.753924     29.753924     59.507848
     -2.617618     30.754023     30.754023     61.508046
     -2.607608     31.542177     31.542177     63.084353
     -2.597598     32.320926     32.320926     64.641853
     -2.587588     33.159958     33.159958     66.319916
     -2.577578     33.982636     33.982636     67.965271
     -2.567568     34.621370     34.621370     69.242741
     -2.557558     34.881804     34.881804     69.763609
     -2.547548     34.577652     34.577652     69.155305
     -2.537538     33.548941     33.548941     67.097882
     -2.527528     31.702419     31.702419     63.404839
     -2.517518     29.087608     29.087608     58.175216
     -2.507508     25.970286     25.970286     51.940572
     -2.497497     22.837980     22.837980     45.675959
     -2.487487     20.298423     20.298423     40.596846
     -2.477477     18.895333     18.895333     37.790667
     -2.467467     18.920993     18.920993     37.841986
     -2.457457     20.315576     20.315576     40.631151
     -2.447447     22.704163     22.704163     45.408325
     -2.437437     25.557174     25.557174     51.114349
     -2.427427     28.401717     28.401717     56.803434
     -2.417417     30.986843     30.986843     61.973687
     -2.407407     33.326119     33.326119     66.652237
     -2.397397     35.597928     35.597928     71.195855
     -2.387387     37.952393     37.952393     75.904786
     -2.377377     40.321826     40.321826     80.643653
     -2.367367     42.335534     42.335534     84.671068
     -2.357357     43.395261     43.395261     86.790522
     -2.347347     42.892356     42.892356     85.784712
     -2.337337     40.476114     40.476114     80.952228
     -2.327327     36.251505     36.251505     72.503009
     -2.317317     30.813604     30.813604     61.627209
     -2.307307     25.102502     25.102502     50.205003
     -2.297297     20.144102     20.144102     40.288203
     -2.287287     16.783846     16.783846     33.567692
     -2.277277     15.505033     15.505033     31.010065
     -2.267267     16.371191     16.371191     32.742382
     -2.257257     19.079425     19.079425     38.158850
     -2.247247     23.082592     23.082592     46.165184
     -2.237237     27.732894     27.732894     55.465787
     -2.227227     32.406283     32.406283     64.812565
     -2.217217     36.579572     36.579572     73.159144
     -2.207207     39.851854     39.851854     79.703708
     -2.197197     41.927851     41.927851     83.855702
     -2.187187     42.600962     42.600962     85.201923
     -2.177177     41.770534     41.770534     83.541068
     -2.167167     39.496044     39.496044     78.992087
     -2.157157     36.048692     36.048692     72.097385
     -2.147147     31.901851     31.901851     63.803703
     -2.137137     27.627899     27.627899     55.255798
     -2.127127     23.728860     23.728860     47.457719
     -2.117117     20.480427     20.480427     40.960855
     -2.107107     17.872534     17.872534     35.745069
     -2.097097     15.677765     15.677765     31.355531
     -2.087087     13.605898     13.605898     27.211795
     -2.077077     11.458128     11.458128     22.916257
     -2.067067      9.205262      9.205262     18.410525
     -2.057057      6.967217      6.967217     13.934435
     -2.047047      4.927301      4.927301      9.854602
     -2.037037      3.239610      3.239610      6.479220
     -2.027027      1.974654      1.974654      3.949307
     -2.017017      1.115327      1.115327      2.230654
     -2.007007      0.587620      0.587620      1.175241
     -1.996997      0.301225      0.301225      0.602450
     -1.986987      0.182158      0.182158      0.364315
     -1.976977      0.191816      0.191816      0.383632
     -1.966967      0.335177      0.335177      0.670353
     -1.956957      0.661978      0.661978      1.323957
     -1.946947      1.260903      1.260903      2.521807
     -1.936937      2.242756      2.242756      4.485511
     -1.926927      3.708934      3.708934      7.417868
     -1.916917      5.707976      5.707976     11.415952
     -1.906907      8.192955      8.192955     16.385911
     -1.896897     10.999167     10.999167     21.998334
     -1.886887     13.858080     13.858080     27.716160
     -1.876877     16.449354     16.449354     32.898708
     -1.866867     18.475669     18.475669     36.951337
     -1.856857     19.735744     19.735744     39.471488
     -1.846847     20.173211     20.173211     40.346422
     -1.836837     19.887838     19.887838     39.775677
     -1.826827     19.104035     19.104035     38.208070
     -1.816817     18.099646     18.099646     36.199292
     -1.806807     17.111183     17.111183     34.222366
     -1.796797     16.248644     16.248644     32.497289
     -1.786787     15.460836     15.460836     30.921672
     -1.776777     14.575882     14.575882     29.151765
     -1.766767     13.403617     13.403617     26.807234
     -1.756757     11.850089     11.850089     23.700178
     -1.746747      9.986733      9.986733     19.973466
     -1.736737      8.044509      8.044509     16.089017
     -1.726727      6.345963      6.345963     12.691926
     -1.716717      5.215517      5.215517     10.431034
     -1.706707      4.905264      4.905264      9.810528
     -1.696697      5.550216      5.550216     11.100432
     -1.686687      7.146062      7.146062     14.292124
     -1.676677      9.539227      9.539227     19.078455
     -1.666667     12.430178     12.430178     24.860357
     -1.656657     15.401469     15.401469     30.802937
     -1.646647     17.979879     17.979879     35.959758
     -1.636637     19.727592     19.727592     39.455184
     -1.626627     20.341164     20.341164     40.682329
