# EIG2DOS: Utility for SIESTA to obtain the electronic density of states
#  E. Artacho, Apr 1999, A. Garcia, Apr 2012
#  Nick R. Papior, Feb 2017
# ------------------------------------------
# Eigenvalues calculated from a non-polarized calculation
# Eigenvalues read from siesta.EIG
# Kpoint weights read from siesta.KP
# Using smearing parameter:   0.0500
# Using 1000 points in the energy range
# Selected bands: 1 to: 2981
# Emin, Emax in file for selected band(s):    -27.2022076    218.3588340
# Nbands, Nspin, Nk   =   2981     1     1
# E_F                 =    -4.2522 eV --> (shifted to ZERO)
# Broadening          =     0.0500 eV
#
#        E            N(up)  (=)   N(down)         Ntot
     -5.000000     32.164954     32.164954     64.329907
     -4.989990     36.377992     36.377992     72.755983
     -4.979980     40.249652     40.249652     80.499304
     -4.969970     43.196600     43.196600     86.393200
     -4.959960     44.715629     44.715629     89.431258
     -4.949950     44.542005     44.542005     89.084009
     -4.939940     42.743636     42.743636     85.487272
     -4.929930     39.723352     39.723352     79.446704
     -4.919920     36.145117     36.145117     72.290234
     -4.909910     32.821664     32.821664     65.643329
     -4.899900     30.589707     30.589707     61.179415
     -4.889890     30.171534     30.171534     60.343068
     -4.879880     32.011673     32.011673     64.023347
     -4.869870     36.104978     36.104978     72.209956
     -4.859860     41.881985     41.881985     83.763970
     -4.849850     48.242766     48.242766     96.485532
     -4.839840     53.791833     53.791833    107.583667
     -4.829830     57.229300     57.229300    114.458600
     -4.819820     57.753837     57.753837    115.507673
     -4.809810     55.302072     55.302072    110.604144
     -4.799800     50.518097     50.518097    101.036193
     -4.789790     44.478890     44.478890     88.957780
     -4.779780     38.315228     38.315228     76.630457
     -4.769770     32.895722     32.895722     65.791443
     -4.759760     28.678316     28.678316     57.356633
     -4.749750     25.732414     25.732414     51.464828
     -4.739740     23.861726     23.861726     47.723451
     -4.729730     22.744123     22.744123     45.488245
     -4.719720     22.035464     22.035464     44.070928
     -4.709710     21.425571     21.425571     42.851141
     -4.699700     20.662307     20.662307     41.324615
     -4.689690     19.568665     19.568665     39.137330
     -4.679680     18.071481     18.071481     36.142962
     -4.669670     16.244351     16.244351     32.488703
     -4.659660     14.348896     14.348896     28.697791
     -4.649650     12.847662     12.847662     25.695323
     -4.639640     12.364231     12.364231     24.728462
     -4.629630     13.578465     13.578465     27.156931
     -4.619620     17.061118     17.061118     34.122236
     -4.609610     23.071743     23.071743     46.143487
     -4.599600     31.370423     31.370423     62.740845
     -4.589590     41.121123     41.121123     82.242246
     -4.579580     50.968803     50.968803    101.937606
     -4.569570     59.327399     59.327399    118.654798
     -4.559560     64.822367     64.822367    129.644733
     -4.549550     66.733245     66.733245    133.466491
     -4.539540     65.244287     65.244287    130.488575
     -4.529530     61.374313     61.374313    122.748626
     -4.519520     56.598774     56.598774    113.197547
     -4.509510     52.321632     52.321632    104.643264
     -4.499499     49.420636     49.420636     98.841272
     -4.489489     48.042500     48.042500     96.085000
     -4.479479     47.696597     47.696597     95.393193
     -4.469469     47.561005     47.561005     95.122010
     -4.459459     46.841193     46.841193     93.682386
     -4.449449     45.034402     45.034402     90.068804
     -4.439439     42.028254     42.028254     84.056508
     -4.429429     38.050254     38.050254     76.100507
     -4.419419     33.540390     33.540390     67.080780
     -4.409409     29.022695     29.022695     58.045391
     -4.399399     25.014960     25.014960     50.029919
     -4.389389     21.970558     21.970558     43.941117
     -4.379379     20.224538     20.224538     40.449075
     -4.369369     19.929735     19.929735     39.859470
     -4.359359     21.002098     21.002098     42.004197
     -4.349349     23.116343     23.116343     46.232686
     -4.339339     25.781540     25.781540     51.563080
     -4.329329     28.485732     28.485732     56.971464
     -4.319319     30.856807     30.856807     61.713614
     -4.309309     32.772156     32.772156     65.544311
     -4.299299     34.370576     34.370576     68.741152
     -4.289289     35.961191     35.961191     71.922382
     -4.279279     37.862463     37.862463     75.724926
     -4.269269     40.226485     40.226485     80.452969
     -4.259259     42.910326     42.910326     85.820652
     -4.249249     45.450337     45.450337     90.900673
     -4.239239     47.171630     47.171630     94.343261
     -4.229229     47.416695     47.416695     94.833390
     -4.219219     45.814612     45.814612     91.629224
     -4.209209     42.470934     42.470934     84.941869
     -4.199199     37.976141     37.976141     75.952282
     -4.189189     33.213224     33.213224     66.426447
     -4.179179     29.049295     29.049295     58.098590
     -4.169169     26.056828     26.056828     52.113655
     -4.159159     24.388604     24.388604     48.777208
     -4.149149     23.843395     23.843395     47.686790
     -4.139139     24.062961     24.062961     48.125922
     -4.129129     24.747636     24.747636     49.495273
     -4.119119     25.784879     25.784879     51.569759
     -4.109109     27.236872     27.236872     54.473744
     -4.099099     29.202002     29.202002     58.404004
     -4.089089     31.626412     31.626412     63.252825
     -4.079079     34.173870     34.173870     68.347740
     -4.069069     36.245032     36.245032     72.490064
     -4.059059     37.166412     37.166412     74.332823
     -4.049049     36.473349     36.473349     72.946697
     -4.039039     34.146109     34.146109     68.292219
     -4.029029     30.671607     30.671607     61.343214
     -4.019019     26.894245     26.894245     53.788491
     -4.009009     23.732710     23.732710     47.465420
     -3.998999     21.903219     21.903219     43.806438
     -3.988989     21.767653     21.767653     43.535305
     -3.978979     23.340024     23.340024     46.680048
     -3.968969     26.398091     26.398091     52.796182
     -3.958959     30.611899     30.611899     61.223797
     -3.948949     35.628340     35.628340     71.256679
     -3.938939     41.106843     41.106843     82.213686
     -3.928929     46.738180     46.738180     93.476360
     -3.918919     52.271419     52.271419    104.542838
     -3.908909     57.538548     57.538548    115.077096
     -3.898899     62.441291     62.441291    124.882582
     -3.888889     66.878402     66.878402    133.756803
     -3.878879     70.637454     70.637454    141.274908
     -3.868869     73.317419     73.317419    146.634837
     -3.858859     74.351442     74.351442    148.702884
     -3.848849     73.154503     73.154503    146.309007
     -3.838839     69.351828     69.351828    138.703655
     -3.828829     62.991483     62.991483    125.982966
     -3.818819     54.639766     54.639766    109.279531
     -3.808809     45.304825     45.304825     90.609651
     -3.798799     36.207593     36.207593     72.415187
     -3.788789     28.481277     28.481277     56.962554
     -3.778779     22.902863     22.902863     45.805726
     -3.768769     19.738009     19.738009     39.476018
     -3.758759     18.732881     18.732881     37.465761
     -3.748749     19.238392     19.238392     38.476784
     -3.738739     20.420739     20.420739     40.841477
     -3.728729     21.499877     21.499877     42.999753
     -3.718719     21.958898     21.958898     43.917797
     -3.708709     21.676157     21.676157     43.352314
     -3.698699     20.946656     20.946656     41.893312
     -3.688689     20.380925     20.380925     40.761850
     -3.678679     20.699218     20.699218     41.398435
     -3.668669     22.473003     22.473003     44.946006
     -3.658659     25.893923     25.893923     51.787846
     -3.648649     30.656256     30.656256     61.312513
     -3.638639     36.008719     36.008719     72.017437
     -3.628629     40.967350     40.967350     81.934700
     -3.618619     44.609869     44.609869     89.219738
     -3.608609     46.333720     46.333720     92.667440
     -3.598599     45.981740     45.981740     91.963481
     -3.588589     43.809377     43.809377     87.618755
     -3.578579     40.340398     40.340398     80.680795
     -3.568569     36.189831     36.189831     72.379662
     -3.558559     31.915103     31.915103     63.830205
     -3.548549     27.918300     27.918300     55.836600
     -3.538539     24.399248     24.399248     48.798495
     -3.528529     21.358762     21.358762     42.717525
     -3.518519     18.654805     18.654805     37.309610
     -3.508509     16.101855     16.101855     32.203710
     -3.498498     13.580027     13.580027     27.160055
     -3.488488     11.108075     11.108075     22.216149
     -3.478478      8.849224      8.849224     17.698448
     -3.468468      7.052386      7.052386     14.104772
     -3.458458      5.959594      5.959594     11.919188
     -3.448448      5.717204      5.717204     11.434407
     -3.438438      6.317234      6.317234     12.634468
     -3.428428      7.581761      7.581761     15.163522
     -3.418418      9.196170      9.196170     18.392340
     -3.408408     10.791042     10.791042     21.582084
     -3.398398     12.057925     12.057925     24.115850
     -3.388388     12.863033     12.863033     25.726066
     -3.378378     13.310951     13.310951     26.621902
     -3.368368     13.723787     13.723787     27.447574
     -3.358358     14.538254     14.538254     29.076507
     -3.348348     16.161282     16.161282     32.322564
     -3.338338     18.838097     18.838097     37.676194
     -3.328328     22.568679     22.568679     45.137358
     -3.318318     27.079063     27.079063     54.158126
     -3.308308     31.840516     31.840516     63.681031
     -3.298298     36.139789     36.139789     72.279577
     -3.288288     39.214658     39.214658     78.429316
     -3.278278     40.450624     40.450624     80.901249
     -3.268268     39.585133     39.585133     79.170267
     -3.258258     36.823943     36.823943     73.647887
     -3.248248     32.788837     32.788837     65.577674
     -3.238238     28.296144     28.296144     56.592288
     -3.228228     24.063559     24.063559     48.127119
     -3.218218     20.488193     20.488193     40.976386
     -3.208208     17.596950     17.596950     35.193900
     -3.198198     15.170419     15.170419     30.340839
     -3.188188     12.951660     12.951660     25.903320
     -3.178178     10.825752     10.825752     21.651503
     -3.168168      8.898188      8.898188     17.796377
     -3.158158      7.469111      7.469111     14.938221
     -3.148148      6.946691      6.946691     13.893382
     -3.138138      7.744890      7.744890     15.489780
     -3.128128     10.183527     10.183527     20.367054
     -3.118118     14.386290     14.386290     28.772580
     -3.108108     20.178886     20.178886     40.357773
     -3.098098     27.020016     27.020016     54.040032
     -3.088088     34.022042     34.022042     68.044085
     -3.078078     40.103777     40.103777     80.207554
     -3.068068     44.257928     44.257928     88.515856
     -3.058058     45.841441     45.841441     91.682883
     -3.048048     44.760609     44.760609     89.521219
     -3.038038     41.460099     41.460099     82.920198
     -3.028028     36.722720     36.722720     73.445440
     -3.018018     31.385366     31.385366     62.770731
     -3.008008     26.111707     26.111707     52.223414
     -2.997998     21.313260     21.313260     42.626521
     -2.987988     17.215252     17.215252     34.430504
     -2.977978     13.987319     13.987319     27.974639
     -2.967968     11.843619     11.843619     23.687237
     -2.957958     11.056485     11.056485     22.112970
     -2.947948     11.884305     11.884305     23.768609
     -2.937938     14.453366     14.453366     28.906731
     -2.927928     18.645823     18.645823     37.291646
     -2.917918     24.040662     24.040662     48.081323
     -2.907908     29.940558     29.940558     59.881117
     -2.897898     35.494515     35.494515     70.989030
     -2.887888     39.892550     39.892550     79.785101
     -2.877878     42.573189     42.573189     85.146379
     -2.867868     43.366101     43.366101     86.732202
     -2.857858     42.507911     42.507911     85.015823
     -2.847848     40.518760     40.518760     81.037521
     -2.837838     37.989296     37.989296     75.978593
     -2.827828     35.370490     35.370490     70.740979
     -2.817818     32.857325     32.857325     65.714650
     -2.807808     30.410249     30.410249     60.820499
     -2.797798     27.888513     27.888513     55.777026
     -2.787788     25.214218     25.214218     50.428436
     -2.777778     22.475042     22.475042     44.950085
     -2.767768     19.913068     19.913068     39.826136
     -2.757758     17.814574     17.814574     35.629148
     -2.747748     16.372535     16.372535     32.745070
     -2.737738     15.607104     15.607104     31.214207
     -2.727728     15.391283     15.391283     30.782566
     -2.717718     15.561681     15.561681     31.123362
     -2.707708     16.038817     16.038817     32.077634
     -2.697698     16.873926     16.873926     33.747852
     -2.687688     18.186949     18.186949     36.373899
     -2.677678     20.034692     20.034692     40.069383
     -2.667668     22.300090     22.300090     44.600181
     -2.657658     24.685635     24.685635     49.371270
     -2.647648     26.827617     26.827617     53.655235
     -2.637638     28.465889     28.465889     56.931778
     -2.627628     29.563295     29.563295     59.126590
     -2.617618     30.300274     30.300274     60.600549
     -2.607608     30.952178     30.952178     61.904356
     -2.597598     31.730405     31.730405     63.460811
     -2.587588     32.681056     32.681056     65.362112
     -2.577578     33.682379     33.682379     67.364757
     -2.567568     34.511625     34.511625     69.023250
     -2.557558     34.919845     34.919845     69.839689
     -2.547548     34.678071     34.678071     69.356143
     -2.537538     33.607091     33.607091     67.214181
     -2.527528     31.624702     31.624702     63.249404
     -2.517518     28.818565     28.818565     57.637130
     -2.507508     25.506330     25.506330     51.012660
     -2.497497     22.224352     22.224352     44.448704
     -2.487487     19.614868     19.614868     39.229736
     -2.477477     18.240196     18.240196     36.480393
     -2.467467     18.400167     18.400167     36.800335
     -2.457457     20.035404     20.035404     40.070809
     -2.447447     22.762422     22.762422     45.524844
     -2.437437     26.027552     26.027552     52.055104
     -2.427427     29.313222     29.313222     58.626443
     -2.417417     32.305313     32.305313     64.610626
     -2.407407     34.946240     34.946240     69.892479
     -2.397397     37.350602     37.350602     74.701205
     -2.387387     39.627027     39.627027     79.254053
     -2.377377     41.699461     41.699461     83.398921
     -2.367367     43.227490     43.227490     86.454981
     -2.357357     43.681180     43.681180     87.362359
     -2.347347     42.549645     42.549645     85.099289
     -2.337337     39.591112     39.591112     79.182224
     -2.327327     35.004747     35.004747     70.009494
     -2.317317     29.439268     29.439268     58.878535
     -2.307307     23.832693     23.832693     47.665386
     -2.297297     19.155913     19.155913     38.311826
     -2.287287     16.166553     16.166553     32.333106
     -2.277277     15.256786     15.256786     30.513572
     -2.267267     16.423296     16.423296     32.846592
     -2.257257     19.336299     19.336299     38.672597
     -2.247247     23.459947     23.459947     46.919894
     -2.237237     28.177812     28.177812     56.355624
     -2.227227     32.891744     32.891744     65.783488
     -2.217217     37.080022     37.080022     74.160043
     -2.207207     40.318124     40.318124     80.636248
     -2.197197     42.280755     42.280755     84.561510
     -2.187187     42.751023     42.751023     85.502047
     -2.177177     41.653958     41.653958     83.307916
     -2.167167     39.106035     39.106035     78.212070
     -2.157157     35.443763     35.443763     70.887526
     -2.147147     31.186289     31.186289     62.372578
     -2.137137     26.914717     26.914717     53.829435
     -2.127127     23.103427     23.103427     46.206853
     -2.117117     19.980402     19.980402     39.960805
     -2.107107     17.489837     17.489837     34.979674
     -2.097097     15.377259     15.377259     30.754517
     -2.087087     13.348975     13.348975     26.697949
     -2.077077     11.219845     11.219845     22.439689
     -2.067067      8.979506      8.979506     17.959013
     -2.057057      6.761516      6.761516     13.523033
     -2.047047      4.753223      4.753223      9.506446
     -2.037037      3.104783      3.104783      6.209566
     -2.027027      1.879439      1.879439      3.758878
     -2.017017      1.053766      1.053766      2.107532
     -2.007007      0.550343      0.550343      1.100685
     -1.996997      0.278008      0.278008      0.556015
     -1.986987      0.162902      0.162902      0.325804
     -1.976977      0.165997      0.165997      0.331993
     -1.966967      0.290896      0.290896      0.581793
     -1.956957      0.586694      0.586694      1.173389
     -1.946947      1.146764      1.146764      2.293527
     -1.936937      2.099777      2.099777      4.199553
     -1.926927      3.587906      3.587906      7.175813
     -1.916917      5.730964      5.730964     11.461928
     -1.906907      8.582671      8.582671     17.165341
     -1.896897     12.091575     12.091575     24.183150
     -1.886887     16.079578     16.079578     32.159155
     -1.876877     20.245536     20.245536     40.491072
     -1.866867     24.195244     24.195244     48.390487
     -1.856857     27.497003     27.497003     54.994007
     -1.846847     29.761088     29.761088     59.522176
     -1.836837     30.732926     30.732926     61.465853
     -1.826827     30.371870     30.371870     60.743740
     -1.816817     28.874111     28.874111     57.748222
     -1.806807     26.610822     26.610822     53.221643
     -1.796797     23.995252     23.995252     47.990503
     -1.786787     21.339767     21.339767     42.679534
     -1.776777     18.777234     18.777234     37.554467
     -1.766767     16.284325     16.284325     32.568651
     -1.756757     13.781315     13.781315     27.562630
     -1.746747     11.239672     11.239672     22.479344
     -1.736737      8.734763      8.734763     17.469526
     -1.726727      6.426107      6.426107     12.852213
     -1.716717      4.494874      4.494874      8.989748
     -1.706707      3.085712      3.085712      6.171425
     -1.696697      2.282835      2.282835      4.565669
     -1.686687      2.118345      2.118345      4.236690
     -1.676677      2.588308      2.588308      5.176616
     -1.666667      3.651676      3.651676      7.303353
     -1.656657      5.205720      5.205720     10.411440
     -1.646647      7.055642      7.055642     14.111285
     -1.636637      8.910021      8.910021     17.820041
     -1.626627     10.427070     10.427070     20.854140
