# EIG2DOS: Utility for SIESTA to obtain the electronic density of states
#  E. Artacho, Apr 1999, A. Garcia, Apr 2012
#  Nick R. Papior, Feb 2017
# ------------------------------------------
# Eigenvalues calculated from a non-polarized calculation
# Eigenvalues read from siesta.EIG
# Kpoint weights read from siesta.KP
# Using smearing parameter:   0.0500
# Using 1000 points in the energy range
# Selected bands: 1 to: 2981
# Emin, Emax in file for selected band(s):    -27.3882554    218.3853080
# Nbands, Nspin, Nk   =   2981     1     1
# E_F                 =    -4.2129 eV --> (shifted to ZERO)
# Broadening          =     0.0500 eV
#
#        E            N(up)  (=)   N(down)         Ntot
     -5.000000     35.834189     35.834189     71.668377
     -4.989990     40.031215     40.031215     80.062429
     -4.979980     43.316533     43.316533     86.633066
     -4.969970     45.138069     45.138069     90.276137
     -4.959960     45.193972     45.193972     90.387943
     -4.949950     43.532111     43.532111     87.064222
     -4.939940     40.544925     40.544925     81.089849
     -4.929930     36.882805     36.882805     73.765609
     -4.919920     33.335180     33.335180     66.670359
     -4.909910     30.714758     30.714758     61.429517
     -4.899900     29.745141     29.745141     59.490281
     -4.889890     30.931088     30.931088     61.862176
     -4.879880     34.409277     34.409277     68.818553
     -4.869870     39.825662     39.825662     79.651324
     -4.859860     46.321552     46.321552     92.643103
     -4.849850     52.691474     52.691474    105.382948
     -4.839840     57.697048     57.697048    115.394097
     -4.829830     60.426974     60.426974    120.853948
     -4.819820     60.549346     60.549346    121.098692
     -4.809810     58.345740     58.345740    116.691480
     -4.799800     54.525062     54.525062    109.050123
     -4.789790     49.921947     49.921947     99.843894
     -4.779780     45.225413     45.225413     90.450825
     -4.769770     40.841668     40.841668     81.683337
     -4.759760     36.907875     36.907875     73.815749
     -4.749750     33.399443     33.399443     66.798887
     -4.739740     30.248961     30.248961     60.497921
     -4.729730     27.417345     27.417345     54.834691
     -4.719720     24.900522     24.900522     49.801043
     -4.709710     22.692141     22.692141     45.384282
     -4.699700     20.742737     20.742737     41.485473
     -4.689690     18.955173     18.955173     37.910347
     -4.679680     17.235916     17.235916     34.471831
     -4.669670     15.587991     15.587991     31.175983
     -4.659660     14.200436     14.200436     28.400873
     -4.649650     13.478537     13.478537     26.957073
     -4.639640     13.976755     13.976755     27.953510
     -4.629630     16.233762     16.233762     32.467524
     -4.619620     20.551240     20.551240     41.102481
     -4.609610     26.791922     26.791922     53.583844
     -4.599600     34.286311     34.286311     68.572623
     -4.589590     41.918484     41.918484     83.836969
     -4.579580     48.401171     48.401171     96.802341
     -4.569570     52.663551     52.663551    105.327102
     -4.559560     54.204721     54.204721    108.409443
     -4.549550     53.259741     53.259741    106.519482
     -4.539540     50.699103     50.699103    101.398206
     -4.529530     47.700928     47.700928     95.401856
     -4.519520     45.333720     45.333720     90.667440
     -4.509510     44.216183     44.216183     88.432366
     -4.499499     44.372875     44.372875     88.745751
     -4.489489     45.313098     45.313098     90.626195
     -4.479479     46.271814     46.271814     92.543628
     -4.469469     46.501172     46.501172     93.002344
     -4.459459     45.502531     45.502531     91.005063
     -4.449449     43.132841     43.132841     86.265682
     -4.439439     39.581320     39.581320     79.162640
     -4.429429     35.263588     35.263588     70.527176
     -4.419419     30.698747     30.698747     61.397493
     -4.409409     26.416210     26.416210     52.832419
     -4.399399     22.899773     22.899773     45.799547
     -4.389389     20.545127     20.545127     41.090253
     -4.379379     19.605942     19.605942     39.211883
     -4.369369     20.131507     20.131507     40.263015
     -4.359359     21.930591     21.930591     43.861181
     -4.349349     24.602319     24.602319     49.204637
     -4.339339     27.645528     27.645528     55.291056
     -4.329329     30.611836     30.611836     61.223673
     -4.319319     33.237214     33.237214     66.474428
     -4.309309     35.493367     35.493367     70.986735
     -4.299299     37.538348     37.538348     75.076695
     -4.289289     39.590418     39.590418     79.180836
     -4.279279     41.777012     41.777012     83.554024
     -4.269269     44.015612     44.015612     88.031223
     -4.259259     45.973372     45.973372     91.946743
     -4.249249     47.133058     47.133058     94.266117
     -4.239239     46.961114     46.961114     93.922229
     -4.229229     45.128647     45.128647     90.257293
     -4.219219     41.695280     41.695280     83.390560
     -4.209209     37.160840     37.160840     74.321680
     -4.199199     32.339839     32.339839     64.679679
     -4.189189     28.100322     28.100322     56.200643
     -4.179179     25.081610     25.081610     50.163220
     -4.169169     23.518423     23.518423     47.036846
     -4.159159     23.243575     23.243575     46.487150
     -4.149149     23.851932     23.851932     47.703864
     -4.139139     24.933841     24.933841     49.867682
     -4.129129     26.260557     26.260557     52.521114
     -4.119119     27.833098     27.833098     55.666197
     -4.109109     29.774025     29.774025     59.548050
     -4.099099     32.121834     32.121834     64.243667
     -4.089089     34.646151     34.646151     69.292301
     -4.079079     36.804967     36.804967     73.609934
     -4.069069     37.898321     37.898321     75.796642
     -4.059059     37.362110     37.362110     74.724219
     -4.049049     35.054710     35.054710     70.109419
     -4.039039     31.380450     31.380450     62.760899
     -4.029029     27.180195     27.180195     54.360390
     -4.019019     23.447093     23.447093     46.894186
     -4.009009     21.012906     21.012906     42.025812
     -3.998999     20.346527     20.346527     40.693054
     -3.988989     21.524790     21.524790     43.049580
     -3.978979     24.337681     24.337681     48.675363
     -3.968969     28.436556     28.436556     56.873112
     -3.958959     33.446745     33.446745     66.893491
     -3.948949     39.019923     39.019923     78.039846
     -3.938939     44.849597     44.849597     89.699194
     -3.928929     50.681784     50.681784    101.363567
     -3.918919     56.326012     56.326012    112.652024
     -3.908909     61.643162     61.643162    123.286324
     -3.898899     66.488874     66.488874    132.977747
     -3.888889     70.626664     70.626664    141.253328
     -3.878879     73.663626     73.663626    147.327253
     -3.868869     75.068382     75.068382    150.136764
     -3.858859     74.294929     74.294929    148.589858
     -3.848849     70.978103     70.978103    141.956205
     -3.838839     65.122047     65.122047    130.244093
     -3.828829     57.197342     57.197342    114.394683
     -3.818819     48.096751     48.096751     96.193502
     -3.808809     38.955156     38.955156     77.910312
     -3.798799     30.890137     30.890137     61.780274
     -3.788789     24.745602     24.745602     49.491203
     -3.778779     20.914961     20.914961     41.829921
     -3.768769     19.289628     19.289628     38.579255
     -3.758759     19.338113     19.338113     38.676225
     -3.748749     20.285497     20.285497     40.570993
     -3.738739     21.341263     21.341263     42.682526
     -3.728729     21.916769     21.916769     43.833538
     -3.718719     21.779330     21.779330     43.558660
     -3.708709     21.104555     21.104555     42.209111
     -3.698699     20.410302     20.410302     40.820603
     -3.688689     20.383417     20.383417     40.766835
     -3.678679     21.641627     21.641627     43.283253
     -3.668669     24.499937     24.499937     48.999874
     -3.658659     28.821169     28.821169     57.642338
     -3.648649     34.011378     34.011378     68.022755
     -3.638639     39.171506     39.171506     78.343012
     -3.628629     43.353556     43.353556     86.707112
     -3.618619     45.824392     45.824392     91.648784
     -3.608609     46.240343     46.240343     92.480685
     -3.598599     44.682694     44.682694     89.365388
     -3.588589     41.568902     41.568902     83.137803
     -3.578579     37.497648     37.497648     74.995297
     -3.568569     33.088532     33.088532     66.177065
     -3.558559     28.852808     28.852808     57.705616
     -3.548549     25.109184     25.109184     50.218367
     -3.538539     21.953277     21.953277     43.906554
     -3.528529     19.290527     19.290527     38.581054
     -3.518519     16.931096     16.931096     33.862192
     -3.508509     14.718572     14.718572     29.437143
     -3.498498     12.640850     12.640850     25.281701
     -3.488488     10.873003     10.873003     21.746007
     -3.478478      9.730772      9.730772     19.461544
     -3.468468      9.551589      9.551589     19.103178
     -3.458458     10.546885     10.546885     21.093770
     -3.448448     12.677835     12.677835     25.355669
     -3.438438     15.601498     15.601498     31.202995
     -3.428428     18.719199     18.719199     37.438398
     -3.418418     21.330584     21.330584     42.661169
     -3.408408     22.855016     22.855016     45.710031
     -3.398398     23.042309     23.042309     46.084617
     -3.388388     22.084262     22.084262     44.168524
     -3.378378     20.573259     20.573259     41.146519
     -3.368368     19.320968     19.320968     38.641936
     -3.358358     19.110553     19.110553     38.221106
     -3.348348     20.474646     20.474646     40.949291
     -3.338338     23.563049     23.563049     47.126098
     -3.328328     28.115062     28.115062     56.230124
     -3.318318     33.516209     33.516209     67.032417
     -3.308308     38.913331     38.913331     77.826662
     -3.298298     43.372088     43.372088     86.744177
     -3.288288     46.062075     46.062075     92.124150
     -3.278278     46.437331     46.437331     92.874662
     -3.268268     44.360481     44.360481     88.720962
     -3.258258     40.123221     40.123221     80.246443
     -3.248248     34.352179     34.352179     68.704358
     -3.238238     27.836820     27.836820     55.673641
     -3.228228     21.343997     21.343997     42.687994
     -3.218218     15.477449     15.477449     30.954898
     -3.208208     10.610949     10.610949     21.221898
     -3.198198      6.892877      6.892877     13.785754
     -3.188188      4.301958      4.301958      8.603916
     -3.178178      2.728939      2.728939      5.457877
     -3.168168      2.060431      2.060431      4.120863
     -3.158158      2.243808      2.243808      4.487617
     -3.148148      3.315040      3.315040      6.630079
     -3.138138      5.376842      5.376842     10.753684
     -3.128128      8.525732      8.525732     17.051464
     -3.118118     12.745157     12.745157     25.490314
     -3.108108     17.803818     17.803818     35.607635
     -3.098098     23.211682     23.211682     46.423364
     -3.088088     28.275994     28.275994     56.551988
     -3.078078     32.259978     32.259978     64.519957
     -3.068068     34.592061     34.592061     69.184122
     -3.058058     35.035431     35.035431     70.070863
     -3.048048     33.736681     33.736681     67.473361
     -3.038038     31.131369     31.131369     62.262737
     -3.028028     27.760904     27.760904     55.521808
     -3.018018     24.099980     24.099980     48.199961
     -3.008008     20.477294     20.477294     40.954589
     -2.997998     17.107700     17.107700     34.215399
     -2.987988     14.187042     14.187042     28.374084
     -2.977978     11.973906     11.973906     23.947812
     -2.967968     10.803874     10.803874     21.607748
     -2.957958     11.026982     11.026982     22.053963
     -2.947948     12.896190     12.896190     25.792379
     -2.937938     16.449766     16.449766     32.899532
     -2.927928     21.429164     21.429164     42.858327
     -2.917918     27.266236     27.266236     54.532471
     -2.907908     33.160492     33.160492     66.320984
     -2.897898     38.243093     38.243093     76.486186
     -2.887888     41.789726     41.789726     83.579452
     -2.877878     43.413040     43.413040     86.826080
     -2.867868     43.157831     43.157831     86.315662
     -2.857858     41.451840     41.451840     82.903680
     -2.847848     38.924757     38.924757     77.849514
     -2.837838     36.170047     36.170047     72.340094
     -2.827828     33.554124     33.554124     67.108248
     -2.817818     31.154919     31.154919     62.309837
     -2.807808     28.845590     28.845590     57.691180
     -2.797798     26.464453     26.464453     52.928906
     -2.787788     23.971165     23.971165     47.942329
     -2.777778     21.505093     21.505093     43.010187
     -2.767768     19.324366     19.324366     38.648731
     -2.757758     17.675440     17.675440     35.350881
     -2.747748     16.680539     16.680539     33.361079
     -2.737738     16.311737     16.311737     32.623473
     -2.727728     16.458569     16.458569     32.917139
     -2.717718     17.031260     17.031260     34.062519
     -2.707708     18.017980     18.017980     36.035960
     -2.697698     19.450017     19.450017     38.900035
     -2.687688     21.300264     21.300264     42.600528
     -2.677678     23.397151     23.397151     46.794301
     -2.667668     25.433849     25.433849     50.867698
     -2.657658     27.088043     27.088043     54.176087
     -2.647648     28.184949     28.184949     56.369897
     -2.637638     28.796735     28.796735     57.593470
     -2.627628     29.207389     29.207389     58.414778
     -2.617618     29.759426     29.759426     59.518852
     -2.607608     30.674354     30.674354     61.348707
     -2.597598     31.948252     31.948252     63.896504
     -2.587588     33.365075     33.365075     66.730149
     -2.577578     34.592954     34.592954     69.185909
     -2.567568     35.292018     35.292018     70.584037
     -2.557558     35.185573     35.185573     70.371145
     -2.547548     34.097963     34.097963     68.195926
     -2.537538     31.990990     31.990990     63.981980
     -2.527528     29.013328     29.013328     58.026656
     -2.517518     25.536414     25.536414     51.072827
     -2.507508     22.128848     22.128848     44.257696
     -2.497497     19.443012     19.443012     38.886025
     -2.487487     18.037948     18.037948     36.075895
     -2.477477     18.205605     18.205605     36.411211
     -2.467467     19.875660     19.875660     39.751319
     -2.457457     22.644023     22.644023     45.288046
     -2.447447     25.918836     25.918836     51.837673
     -2.437437     29.128237     29.128237     58.256474
     -2.427427     31.906468     31.906468     63.812937
     -2.417417     34.180464     34.180464     68.360927
     -2.407407     36.117824     36.117824     72.235648
     -2.397397     37.956252     37.956252     75.912505
     -2.387387     39.791050     39.791050     79.582099
     -2.377377     41.425735     41.425735     82.851471
     -2.367367     42.372431     42.372431     84.744862
     -2.357357     42.022704     42.022704     84.045409
     -2.347347     39.922015     39.922015     79.844031
     -2.337337     36.018782     36.018782     72.037563
     -2.327327     30.764091     30.764091     61.528182
     -2.317317     25.013183     25.013183     50.026366
     -2.307307     19.780274     19.780274     39.560549
     -2.297297     15.961786     15.961786     31.923572
     -2.287287     14.136317     14.136317     28.272634
     -2.277277     14.490272     14.490272     28.980544
     -2.267267     16.853049     16.853049     33.706097
     -2.257257     20.792110     20.792110     41.584221
     -2.247247     25.720966     25.720966     51.441932
     -2.237237     30.993390     30.993390     61.986781
     -2.227227     35.975918     35.975918     71.951836
     -2.217217     40.100941     40.100941     80.201881
     -2.207207     42.907656     42.907656     85.815311
     -2.197197     44.080369     44.080369     88.160738
     -2.187187     43.490582     43.490582     86.981165
     -2.177177     41.237092     41.237092     82.474185
     -2.167167     37.660686     37.660686     75.321372
     -2.157157     33.301529     33.301529     66.603058
     -2.147147     28.783697     28.783697     57.567393
     -2.137137     24.651993     24.651993     49.303986
     -2.127127     21.226724     21.226724     42.453448
     -2.117117     18.548915     18.548915     37.097829
     -2.107107     16.447389     16.447389     32.894777
     -2.097097     14.691838     14.691838     29.383676
     -2.087087     13.146553     13.146553     26.293106
     -2.077077     11.841138     11.841138     23.682277
     -2.067067     10.925563     10.925563     21.851126
     -2.057057     10.543763     10.543763     21.087527
     -2.047047     10.702889     10.702889     21.405779
     -2.037037     11.213003     11.213003     22.426005
     -2.027027     11.730562     11.730562     23.461124
     -2.017017     11.883448     11.883448     23.766897
     -2.007007     11.414929     11.414929     22.829859
     -1.996997     10.278492     10.278492     20.556984
     -1.986987      8.645547      8.645547     17.291094
     -1.976977      6.834703      6.834703     13.669406
     -1.966967      5.206771      5.206771     10.413543
     -1.956957      4.074957      4.074957      8.149914
     -1.946947      3.656715      3.656715      7.313429
     -1.936937      4.062559      4.062559      8.125119
     -1.926927      5.299711      5.299711     10.599423
     -1.916917      7.273368      7.273368     14.546735
     -1.906907      9.786454      9.786454     19.572907
     -1.896897     12.552433     12.552433     25.104866
     -1.886887     15.233656     15.233656     30.467313
     -1.876877     17.502722     17.502722     35.005443
     -1.866867     19.109494     19.109494     38.218988
     -1.856857     19.932599     19.932599     39.865199
     -1.846847     20.000749     20.000749     40.001499
     -1.836837     19.477742     19.477742     38.955484
     -1.826827     18.610805     18.610805     37.221611
     -1.816817     17.649679     17.649679     35.299358
     -1.806807     16.758308     16.758308     33.516616
     -1.796797     15.955478     15.955478     31.910955
     -1.786787     15.118542     15.118542     30.237085
     -1.776777     14.056701     14.056701     28.113401
     -1.766767     12.620325     12.620325     25.240650
     -1.756757     10.789210     10.789210     21.578419
     -1.746747      8.694773      8.694773     17.389547
     -1.736737      6.571657      6.571657     13.143313
     -1.726727      4.673882      4.673882      9.347764
     -1.716717      3.203692      3.203692      6.407384
     -1.706707      2.283005      2.283005      4.566009
     -1.696697      1.965184      1.965184      3.930367
     -1.686687      2.260917      2.260917      4.521834
     -1.676677      3.149008      3.149008      6.298016
     -1.666667      4.559309      4.559309      9.118618
     -1.656657      6.339572      6.339572     12.679145
     -1.646647      8.236322      8.236322     16.472644
     -1.636637      9.920234      9.920234     19.840467
     -1.626627     11.065890     11.065890     22.131780
