# EIG2DOS: Utility for SIESTA to obtain the electronic density of states
#  E. Artacho, Apr 1999, A. Garcia, Apr 2012
#  Nick R. Papior, Feb 2017
# ------------------------------------------
# Eigenvalues calculated from a non-polarized calculation
# Eigenvalues read from siesta.EIG
# Kpoint weights read from siesta.KP
# Using smearing parameter:   0.0500
# Using 1000 points in the energy range
# Selected bands: 1 to: 2981
# Emin, Emax in file for selected band(s):    -27.1335668    218.3502120
# Nbands, Nspin, Nk   =   2981     1     1
# E_F                 =    -4.2527 eV --> (shifted to ZERO)
# Broadening          =     0.0500 eV
#
#        E            N(up)  (=)   N(down)         Ntot
     -5.000000     35.555666     35.555666     71.111331
     -4.989990     38.985502     38.985502     77.971005
     -4.979980     41.624604     41.624604     83.249208
     -4.969970     43.098238     43.098238     86.196475
     -4.959960     43.196307     43.196307     86.392613
     -4.949950     41.933386     41.933386     83.866772
     -4.939940     39.558389     39.558389     79.116778
     -4.929930     36.522493     36.522493     73.044987
     -4.919920     33.426366     33.426366     66.852732
     -4.909910     30.958762     30.958762     61.917524
     -4.899900     29.816154     29.816154     59.632308
     -4.889890     30.579175     30.579175     61.158350
     -4.879880     33.538619     33.538619     67.077238
     -4.869870     38.513329     38.513329     77.026659
     -4.859860     44.753515     44.753515     89.507031
     -4.849850     51.027655     51.027655    102.055310
     -4.839840     55.922505     55.922505    111.845011
     -4.829830     58.270269     58.270269    116.540539
     -4.819820     57.526642     57.526642    115.053283
     -4.809810     53.926323     53.926323    107.852645
     -4.799800     48.348092     48.348092     96.696184
     -4.789790     41.966990     41.966990     83.933979
     -4.779780     35.865428     35.865428     71.730855
     -4.769770     30.765631     30.765631     61.531261
     -4.759760     26.953894     26.953894     53.907787
     -4.749750     24.363126     24.363126     48.726253
     -4.739740     22.725144     22.725144     45.450287
     -4.729730     21.710859     21.710859     43.421717
     -4.719720     21.016796     21.016796     42.033592
     -4.709710     20.396474     20.396474     40.792948
     -4.699700     19.659637     19.659637     39.319275
     -4.689690     18.670447     18.670447     37.340895
     -4.679680     17.368866     17.368866     34.737731
     -4.669670     15.818939     15.818939     31.637878
     -4.659660     14.261633     14.261633     28.523265
     -4.649650     13.133532     13.133532     26.267064
     -4.639640     13.017298     13.017298     26.034595
     -4.629630     14.513368     14.513368     29.026736
     -4.619620     18.054149     18.054149     36.108298
     -4.609610     23.711883     23.711883     47.423766
     -4.599600     31.072014     31.072014     62.144027
     -4.589590     39.243993     39.243993     78.487986
     -4.579580     47.046702     47.046702     94.093403
     -4.569570     53.334773     53.334773    106.669546
     -4.559560     57.353245     57.353245    114.706490
     -4.549550     58.970579     58.970579    117.941158
     -4.539540     58.680072     58.680072    117.360145
     -4.529530     57.365252     57.365252    114.730504
     -4.519520     55.937435     55.937435    111.874869
     -4.509510     55.007293     55.007293    110.014586
     -4.499499     54.719768     54.719768    109.439536
     -4.489489     54.790347     54.790347    109.580693
     -4.479479     54.688148     54.688148    109.376297
     -4.469469     53.864547     53.864547    107.729095
     -4.459459     51.936084     51.936084    103.872167
     -4.449449     48.775507     48.775507     97.551014
     -4.439439     44.513297     44.513297     89.026594
     -4.429429     39.482135     39.482135     78.964269
     -4.419419     34.142586     34.142586     68.285173
     -4.409409     29.014717     29.014717     58.029434
     -4.399399     24.618628     24.618628     49.237255
     -4.389389     21.411457     21.411457     42.822913
     -4.379379     19.710958     19.710958     39.421916
     -4.369369     19.616588     19.616588     39.233176
     -4.359359     20.962461     20.962461     41.924923
     -4.349349     23.340701     23.340701     46.681401
     -4.339339     26.208260     26.208260     52.416519
     -4.329329     29.047384     29.047384     58.094769
     -4.319319     31.517207     31.517207     63.034413
     -4.309309     33.533978     33.533978     67.067957
     -4.299299     35.250060     35.250060     70.500120
     -4.289289     36.945326     36.945326     73.890652
     -4.279279     38.874601     38.874601     77.749201
     -4.269269     41.122632     41.122632     82.245263
     -4.259259     43.512750     43.512750     87.025499
     -4.249249     45.606357     45.606357     91.212714
     -4.239239     46.813307     46.813307     93.626615
     -4.229229     46.596549     46.596549     93.193099
     -4.219219     44.702230     44.702230     89.404461
     -4.209209     41.310089     41.310089     82.620178
     -4.199199     37.016277     37.016277     74.032554
     -4.189189     32.638329     32.638329     65.276657
     -4.179179     28.928228     28.928228     57.856456
     -4.169169     26.331464     26.331464     52.662928
     -4.159159     24.902528     24.902528     49.805055
     -4.149149     24.399998     24.399998     48.799995
     -4.139139     24.492822     24.492822     48.985644
     -4.129129     24.962746     24.962746     49.925493
     -4.119119     25.800868     25.800868     51.601735
     -4.109109     27.153419     27.153419     54.306838
     -4.099099     29.146398     29.146398     58.292796
     -4.089089     31.683036     31.683036     63.366073
     -4.079079     34.334326     34.334326     68.668652
     -4.069069     36.408624     36.408624     72.817248
     -4.059059     37.195548     37.195548     74.391097
     -4.049049     36.275504     36.275504     72.551009
     -4.039039     33.734963     33.734963     67.469926
     -4.029029     30.170207     30.170207     60.340413
     -4.019019     26.477866     26.477866     52.955732
     -4.009009     23.545629     23.545629     47.091257
     -3.998999     21.997552     21.997552     43.995103
     -3.988989     22.095456     22.095456     44.190912
     -3.978979     23.795441     23.795441     47.590883
     -3.968969     26.878404     26.878404     53.756809
     -3.958959     31.061967     31.061967     62.123935
     -3.948949     36.050887     36.050887     72.101774
     -3.938939     41.545008     41.545008     83.090017
     -3.928929     47.249140     47.249140     94.498281
     -3.918919     52.905316     52.905316    105.810632
     -3.908909     58.324245     58.324245    116.648491
     -3.898899     63.372941     63.372941    126.745882
     -3.888889     67.900152     67.900152    135.800304
     -3.878879     71.632772     71.632772    143.265544
     -3.868869     74.114760     74.114760    148.229519
     -3.858859     74.754016     74.754016    149.508033
     -3.848849     72.990850     72.990850    145.981700
     -3.838839     68.532361     68.532361    137.064721
     -3.828829     61.550207     61.550207    123.100414
     -3.818819     52.742988     52.742988    105.485976
     -3.808809     43.219392     43.219392     86.438785
     -3.798799     34.236141     34.236141     68.472283
     -3.788789     26.885013     26.885013     53.770026
     -3.778779     21.837452     21.837452     43.674904
     -3.768769     19.222926     19.222926     38.445852
     -3.758759     18.661938     18.661938     37.323876
     -3.748749     19.425151     19.425151     38.850302
     -3.738739     20.662704     20.662704     41.325408
     -3.728729     21.641936     21.641936     43.283873
     -3.718719     21.938612     21.938612     43.877223
     -3.708709     21.539080     21.539080     43.078161
     -3.698699     20.827305     20.827305     41.654611
     -3.688689     20.453542     20.453542     40.907084
     -3.678679     21.111673     21.111673     42.223345
     -3.668669     23.284950     23.284950     46.569899
     -3.658659     27.042609     27.042609     54.085219
     -3.648649     31.966095     31.966095     63.932191
     -3.638639     37.243617     37.243617     74.487234
     -3.628629     41.904875     41.904875     83.809750
     -3.618619     45.105247     45.105247     90.210495
     -3.608609     46.347783     46.347783     92.695566
     -3.598599     45.567455     45.567455     91.134909
     -3.588589     43.073049     43.073049     86.146097
     -3.578579     39.401771     39.401771     78.803543
     -3.568569     35.156864     35.156864     70.313729
     -3.558559     30.873819     30.873819     61.747637
     -3.548549     26.929251     26.929251     53.858501
     -3.538539     23.494780     23.494780     46.989561
     -3.528529     20.543237     20.543237     41.086474
     -3.518519     17.913211     17.913211     35.826423
     -3.508509     15.417433     15.417433     30.834866
     -3.498498     12.953689     12.953689     25.907377
     -3.488488     10.569390     10.569390     21.138780
     -3.478478      8.452895      8.452895     16.905790
     -3.468468      6.861445      6.861445     13.722890
     -3.458458      6.021613      6.021613     12.043227
     -3.448448      6.040956      6.040956     12.081913
     -3.438438      6.856782      6.856782     13.713564
     -3.428428      8.234704      8.234704     16.469407
     -3.418418      9.821368      9.821368     19.642735
     -3.408408     11.245591     11.245591     22.491182
     -3.398398     12.243884     12.243884     24.487767
     -3.388388     12.766713     12.766713     25.533425
     -3.378378     13.017968     13.017968     26.035937
     -3.368368     13.402756     13.402756     26.805511
     -3.358358     14.398764     14.398764     28.797528
     -3.348348     16.399278     16.399278     32.798556
     -3.338338     19.580834     19.580834     39.161668
     -3.328328     23.827132     23.827132     47.654263
     -3.318318     28.714996     28.714996     57.429993
     -3.308308     33.559159     33.559159     67.118318
     -3.298298     37.519433     37.519433     75.038866
     -3.288288     39.773663     39.773663     79.547327
     -3.278278     39.733131     39.733131     79.466263
     -3.268268     37.234361     37.234361     74.468721
     -3.258258     32.620853     32.620853     65.241706
     -3.248248     26.661718     26.661718     53.323437
     -3.238238     20.331269     20.331269     40.662538
     -3.228228     14.544277     14.544277     29.088553
     -3.218218      9.956449      9.956449     19.912898
     -3.208208      6.891251      6.891251     13.782502
     -3.198198      5.380848      5.380848     10.761696
     -3.188188      5.260857      5.260857     10.521714
     -3.178178      6.260017      6.260017     12.520035
     -3.168168      8.062648      8.062648     16.125297
     -3.158158     10.358534     10.358534     20.717067
     -3.148148     12.902677     12.902677     25.805354
     -3.138138     15.582993     15.582993     31.165985
     -3.128128     18.460329     18.460329     36.920658
     -3.118118     21.734507     21.734507     43.469015
     -3.108108     25.619506     25.619506     51.239012
     -3.098098     30.167358     30.167358     60.334716
     -3.088088     35.126585     35.126585     70.253170
     -3.078078     39.921213     39.921213     79.842426
     -3.068068     43.782655     43.782655     87.565310
     -3.058058     45.987044     45.987044     91.974088
     -3.048048     46.092104     46.092104     92.184207
     -3.038038     44.066940     44.066940     88.133880
     -3.028028     40.266557     40.266557     80.533114
     -3.018018     35.284721     35.284721     70.569442
     -3.008008     29.773811     29.773811     59.547621
     -2.997998     24.317868     24.317868     48.635735
     -2.987988     19.394518     19.394518     38.789035
     -2.977978     15.401971     15.401971     30.803942
     -2.967968     12.696626     12.696626     25.393253
     -2.957958     11.595189     11.595189     23.190378
     -2.947948     12.326171     12.326171     24.652343
     -2.937938     14.946536     14.946536     29.893072
     -2.927928     19.258374     19.258374     38.516749
     -2.917918     24.767297     24.767297     49.534594
     -2.907908     30.718561     30.718561     61.437121
     -2.897898     36.225598     36.225598     72.451196
     -2.887888     40.469080     40.469080     80.938159
     -2.877878     42.905588     42.905588     85.811175
     -2.867868     43.405574     43.405574     86.811149
     -2.857858     42.257999     42.257999     84.515999
     -2.847848     40.032149     40.032149     80.064297
     -2.837838     37.351842     37.351842     74.703684
     -2.827828     34.679508     34.679508     69.359016
     -2.817818     32.202783     32.202783     64.405565
     -2.807808     29.864469     29.864469     59.728938
     -2.797798     27.504178     27.504178     55.008357
     -2.787788     25.025642     25.025642     50.051283
     -2.777778     22.497030     22.497030     44.994061
     -2.767768     20.135801     20.135801     40.271602
     -2.757758     18.198973     18.198973     36.397945
     -2.747748     16.854099     16.854099     33.708198
     -2.737738     16.113536     16.113536     32.227072
     -2.727728     15.870450     15.870450     31.740901
     -2.717718     16.006505     16.006505     32.013010
     -2.707708     16.492160     16.492160     32.984321
     -2.697698     17.404554     17.404554     34.809107
     -2.687688     18.844765     18.844765     37.689530
     -2.677678     20.809382     20.809382     41.618764
     -2.667668     23.109945     23.109945     46.219890
     -2.657658     25.408012     25.408012     50.816023
     -2.647648     27.357097     27.357097     54.714194
     -2.637638     28.767239     28.767239     57.534477
     -2.627628     29.687864     29.687864     59.375729
     -2.617618     30.356646     30.356646     60.713292
     -2.607608     31.049826     31.049826     62.099652
     -2.597598     31.929333     31.929333     63.858666
     -2.587588     32.971926     32.971926     65.943852
     -2.577578     33.999044     33.999044     67.998088
     -2.567568     34.759626     34.759626     69.519252
     -2.557558     35.003042     35.003042     70.006085
     -2.547548     34.517876     34.517876     69.035752
     -2.537538     33.160183     33.160183     66.320366
     -2.527528     30.904201     30.904201     61.808402
     -2.517518     27.912241     27.912241     55.824483
     -2.507508     24.576192     24.576192     49.152383
     -2.497497     21.475420     21.475420     42.950840
     -2.487487     19.236548     19.236548     38.473097
     -2.477477     18.340774     18.340774     36.681547
     -2.467467     18.962268     18.962268     37.924536
     -2.457457     20.913399     20.913399     41.826797
     -2.447447     23.725407     23.725407     47.450815
     -2.437437     26.832176     26.832176     53.664352
     -2.427427     29.778062     29.778062     59.556123
     -2.417417     32.358560     32.358560     64.717120
     -2.407407     34.630840     34.630840     69.261679
     -2.397397     36.789365     36.789365     73.578730
     -2.387387     38.965476     38.965476     77.930951
     -2.377377     41.050245     41.050245     82.100489
     -2.367367     42.636534     42.636534     85.273069
     -2.357357     43.125677     43.125677     86.251355
     -2.347347     41.965339     41.965339     83.930679
     -2.337337     38.914818     38.914818     77.829637
     -2.327327     34.212176     34.212176     68.424352
     -2.317317     28.561661     28.561661     57.123322
     -2.307307     22.947673     22.947673     45.895346
     -2.297297     18.361453     18.361453     36.722905
     -2.287287     15.553426     15.553426     31.106852
     -2.277277     14.891002     14.891002     29.782004
     -2.267267     16.340305     16.340305     32.680609
     -2.257257     19.541355     19.541355     39.082709
     -2.247247     23.928639     23.928639     47.857279
     -2.237237     28.855610     28.855610     57.711221
     -2.227227     33.695882     33.695882     67.391764
     -2.217217     37.907362     37.907362     75.814723
     -2.207207     41.059482     41.059482     82.118965
     -2.197197     42.839012     42.839012     85.678025
     -2.187187     43.059261     43.059261     86.118521
     -2.177177     41.689914     41.689914     83.379829
     -2.167167     38.898594     38.898594     77.797188
     -2.157157     35.066691     35.066691     70.133383
     -2.147147     30.736970     30.736970     61.473940
     -2.137137     26.482486     26.482486     52.964971
     -2.127127     22.739788     22.739788     45.479576
     -2.117117     19.685503     19.685503     39.371006
     -2.107107     17.222489     17.222489     34.444978
     -2.097097     15.083101     15.083101     30.166203
     -2.087087     12.991384     12.991384     25.982768
     -2.077077     10.797759     10.797759     21.595518
     -2.067067      8.525271      8.525271     17.050542
     -2.057057      6.323540      6.323540     12.647080
     -2.047047      4.375082      4.375082      8.750164
     -2.037037      2.811318      2.811318      5.622636
     -2.027027      1.673960      1.673960      3.347920
     -2.017017      0.923998      0.923998      1.847995
     -2.007007      0.477782      0.477782      0.955564
     -1.996997      0.246276      0.246276      0.492552
     -1.986987      0.163302      0.163302      0.326604
     -1.976977      0.200523      0.200523      0.401045
     -1.966967      0.373180      0.373180      0.746361
     -1.956957      0.739944      0.739944      1.479888
     -1.946947      1.395743      1.395743      2.791486
     -1.936937      2.452951      2.452951      4.905901
     -1.926927      4.007806      4.007806      8.015612
     -1.916917      6.096566      6.096566     12.193132
     -1.906907      8.656103      8.656103     17.312207
     -1.896897     11.509186     11.509186     23.018371
     -1.886887     14.389234     14.389234     28.778467
     -1.876877     17.003490     17.003490     34.006980
     -1.866867     19.115693     19.115693     38.231386
     -1.856857     20.619512     20.619512     41.239024
     -1.846847     21.575453     21.575453     43.150906
     -1.836837     22.192959     22.192959     44.385919
     -1.826827     22.752630     22.752630     45.505261
     -1.816817     23.483007     23.483007     46.966013
     -1.806807     24.432641     24.432641     48.865282
     -1.796797     25.398676     25.398676     50.797351
     -1.786787     25.965056     25.965056     51.930113
     -1.776777     25.655718     25.655718     51.311436
     -1.766767     24.141354     24.141354     48.282708
     -1.756757     21.398130     21.398130     42.796259
     -1.746747     17.736855     17.736855     35.473710
     -1.736737     13.692694     13.692694     27.385387
     -1.726727      9.840534      9.840534     19.681068
     -1.716717      6.630934      6.630934     13.261868
     -1.706707      4.313133      4.313133      8.626266
     -1.696697      2.952342      2.952342      5.904684
     -1.686687      2.499314      2.499314      4.998629
     -1.676677      2.855964      2.855964      5.711929
     -1.666667      3.900164      3.900164      7.800328
     -1.656657      5.467941      5.467941     10.935882
     -1.646647      7.321706      7.321706     14.643411
     -1.636637      9.144511      9.144511     18.289022
     -1.626627     10.587368     10.587368     21.174737
