# EIG2DOS: Utility for SIESTA to obtain the electronic density of states
#  E. Artacho, Apr 1999, A. Garcia, Apr 2012
#  Nick R. Papior, Feb 2017
# ------------------------------------------
# Eigenvalues calculated from a non-polarized calculation
# Eigenvalues read from siesta.EIG
# Kpoint weights read from siesta.KP
# Using smearing parameter:   0.0500
# Using 1000 points in the energy range
# Selected bands: 1 to: 2981
# Emin, Emax in file for selected band(s):    -27.1612210    218.3585160
# Nbands, Nspin, Nk   =   2981     1     1
# E_F                 =    -4.2466 eV --> (shifted to ZERO)
# Broadening          =     0.0500 eV
#
#        E            N(up)  (=)   N(down)         Ntot
     -5.000000     33.709739     33.709739     67.419478
     -4.989990     37.613408     37.613408     75.226815
     -4.979980     40.951699     40.951699     81.903398
     -4.969970     43.232121     43.232121     86.464242
     -4.959960     44.084395     44.084395     88.168789
     -4.949950     43.378011     43.378011     86.756023
     -4.939940     41.276442     41.276442     82.552884
     -4.929930     38.218365     38.218365     76.436730
     -4.919920     34.847764     34.847764     69.695529
     -4.909910     31.922096     31.922096     63.844193
     -4.899900     30.209041     30.209041     60.418081
     -4.889890     30.358667     30.358667     60.717333
     -4.879880     32.738999     32.738999     65.477997
     -4.869870     37.261172     37.261172     74.522344
     -4.859860     43.272197     43.272197     86.544394
     -4.849850     49.610814     49.610814     99.221628
     -4.839840     54.870415     54.870415    109.740831
     -4.829830     57.807015     57.807015    115.614031
     -4.819820     57.733324     57.733324    115.466648
     -4.809810     54.722794     54.722794    109.445588
     -4.799800     49.532615     49.532615     99.065229
     -4.789790     43.294028     43.294028     86.588057
     -4.779780     37.125273     37.125273     74.250545
     -4.769770     31.834540     31.834540     63.669081
     -4.759760     27.803407     27.803407     55.606813
     -4.749750     25.037027     25.037027     50.074054
     -4.739740     23.301583     23.301583     46.603166
     -4.729730     22.265237     22.265237     44.530474
     -4.719720     21.594903     21.594903     43.189805
     -4.709710     21.002395     21.002395     42.004790
     -4.699700     20.259346     20.259346     40.518691
     -4.689690     19.207884     19.207884     38.415769
     -4.679680     17.786901     17.786901     35.573802
     -4.669670     16.075620     16.075620     32.151239
     -4.659660     14.335202     14.335202     28.670404
     -4.649650     13.017177     13.017177     26.034355
     -4.639640     12.712763     12.712763     25.425525
     -4.629630     14.036537     14.036537     28.073074
     -4.619620     17.461634     17.461634     34.923268
     -4.609610     23.144299     23.144299     46.288599
     -4.599600     30.790801     30.790801     61.581601
     -4.589590     39.624435     39.624435     79.248870
     -4.579580     48.494549     48.494549     96.989098
     -4.569570     56.126498     56.126498    112.252997
     -4.559560     61.451887     61.451887    122.903773
     -4.549550     63.910501     63.910501    127.821002
     -4.539540     63.608787     63.608787    127.217574
     -4.529530     61.265065     61.265065    122.530131
     -4.519520     57.952664     57.952664    115.905329
     -4.509510     54.733817     54.733817    109.467634
     -4.499499     52.322597     52.322597    104.645194
     -4.489489     50.902003     50.902003    101.804006
     -4.479479     50.152348     50.152348    100.304696
     -4.469469     49.456776     49.456776     98.913552
     -4.459459     48.179955     48.179955     96.359910
     -4.449449     45.901240     45.901240     91.802479
     -4.439439     42.525862     42.525862     85.051725
     -4.429429     38.267365     38.267365     76.534730
     -4.419419     33.550151     33.550151     67.100301
     -4.409409     28.895435     28.895435     57.790869
     -4.399399     24.828766     24.828766     49.657532
     -4.389389     21.809534     21.809534     43.619069
     -4.379379     20.163921     20.163921     40.327842
     -4.369369     20.015337     20.015337     40.030674
     -4.359359     21.235535     21.235535     42.471069
     -4.349349     23.455456     23.455456     46.910912
     -4.339339     26.158049     26.158049     52.316098
     -4.329329     28.833262     28.833262     57.666525
     -4.319319     31.136848     31.136848     62.273696
     -4.309309     32.986277     32.986277     65.972555
     -4.299299     34.553775     34.553775     69.107549
     -4.289289     36.159885     36.159885     72.319769
     -4.279279     38.107126     38.107126     76.214252
     -4.269269     40.510770     40.510770     81.021539
     -4.259259     43.185840     43.185840     86.371680
     -4.249249     45.640465     45.640465     91.280931
     -4.239239     47.200590     47.200590     94.401179
     -4.229229     47.243119     47.243119     94.486238
     -4.219219     45.455225     45.455225     90.910450
     -4.209209     42.002091     42.002091     84.004183
     -4.199199     37.510041     37.510041     75.020082
     -4.189189     32.857772     32.857772     65.715544
     -4.179179     28.869168     28.869168     57.738336
     -4.169169     26.052893     26.052893     52.105785
     -4.159159     24.503558     24.503558     49.007116
     -4.149149     23.989060     23.989060     47.978120
     -4.139139     24.155977     24.155977     48.311954
     -4.129129     24.738773     24.738773     49.477545
     -4.119119     25.671627     25.671627     51.343254
     -4.109109     27.056194     27.056194     54.112387
     -4.099099     29.007588     29.007588     58.015175
     -4.089089     31.460972     31.460972     62.921944
     -4.079079     34.049755     34.049755     68.099510
     -4.069069     36.143306     36.143306     72.286612
     -4.059059     37.055129     37.055129     74.110258
     -4.049049     36.334529     36.334529     72.669057
     -4.039039     33.994905     33.994905     67.989809
     -4.029029     30.555210     30.555210     61.110419
     -4.019019     26.870380     26.870380     53.740759
     -4.009009     23.840228     23.840228     47.680457
     -3.998999     22.142032     22.142032     44.284065
     -3.988989     22.099027     22.099027     44.198054
     -3.978979     23.705667     23.705667     47.411334
     -3.968969     26.745923     26.745923     53.491846
     -3.958959     30.914529     30.914529     61.829058
     -3.948949     35.887030     35.887030     71.774060
     -3.938939     41.343266     41.343266     82.686531
     -3.928929     46.981669     46.981669     93.963338
     -3.918919     52.548266     52.548266    105.096531
     -3.908909     57.865261     57.865261    115.730522
     -3.898899     62.820415     62.820415    125.640829
     -3.888889     67.295339     67.295339    134.590678
     -3.878879     71.058295     71.058295    142.116589
     -3.868869     73.688882     73.688882    147.377763
     -3.858859     74.604564     74.604564    149.209129
     -3.848849     73.214114     73.214114    146.428228
     -3.838839     69.153356     69.153356    138.306712
     -3.828829     62.503314     62.503314    125.006628
     -3.818819     53.883638     53.883638    107.767276
     -3.808809     44.363009     44.363009     88.726017
     -3.798799     35.208661     35.208661     70.417322
     -3.788789     27.566319     27.566319     55.132639
     -3.778779     22.184838     22.184838     44.369675
     -3.768769     19.271131     19.271131     38.542263
     -3.758759     18.503886     18.503886     37.007771
     -3.748749     19.181028     19.181028     38.362056
     -3.738739     20.445559     20.445559     40.891118
     -3.728729     21.527422     21.527422     43.054845
     -3.718719     21.945623     21.945623     43.891246
     -3.708709     21.626391     21.626391     43.252781
     -3.698699     20.908193     20.908193     41.816385
     -3.688689     20.425755     20.425755     40.851510
     -3.678679     20.894759     20.894759     41.789518
     -3.668669     22.852799     22.852799     45.705597
     -3.658659     26.438595     26.438595     52.877190
     -3.648649     31.293388     31.293388     62.586776
     -3.638639     36.633258     36.633258     73.266516
     -3.628629     41.474566     41.474566     82.949133
     -3.618619     44.926235     44.926235     89.852470
     -3.608609     46.432316     46.432316     92.864631
     -3.598599     45.877894     45.877894     91.755789
     -3.588589     43.543334     43.543334     87.086668
     -3.578579     39.959098     39.959098     79.918196
     -3.568569     35.736387     35.736387     71.472773
     -3.558559     31.426311     31.426311     62.852623
     -3.548549     27.424955     27.424955     54.849910
     -3.538539     23.924859     23.924859     47.849717
     -3.528529     20.917161     20.917161     41.834322
     -3.518519     18.250309     18.250309     36.500618
     -3.508509     15.734223     15.734223     31.468445
     -3.498498     13.252269     13.252269     26.504537
     -3.488488     10.832458     10.832458     21.664916
     -3.478478      8.647721      8.647721     17.295442
     -3.468468      6.950970      6.950970     13.901940
     -3.458458      5.978557      5.978557     11.957115
     -3.448448      5.860727      5.860727     11.721454
     -3.438438      6.565568      6.565568     13.131135
     -3.428428      7.889413      7.889413     15.778827
     -3.418418      9.498934      9.498934     18.997867
     -3.408408     11.022185     11.022185     22.044371
     -3.398398     12.169425     12.169425     24.338851
     -3.388388     12.843789     12.843789     25.687579
     -3.378378     13.193743     13.193743     26.387486
     -3.368368     13.577377     13.577377     27.154754
     -3.358358     14.447669     14.447669     28.895339
     -3.348348     16.203580     16.203580     32.407159
     -3.338338     19.060310     19.060310     38.120620
     -3.328328     22.970979     22.970979     45.941958
     -3.318318     27.603226     27.603226     55.206452
     -3.308308     32.363906     32.363906     64.727813
     -3.298298     36.476657     36.476657     72.953314
     -3.288288     39.126701     39.126701     78.253401
     -3.278278     39.667033     39.667033     79.334066
     -3.268268     37.832144     37.832144     75.664288
     -3.258258     33.867714     33.867714     67.735429
     -3.248248     28.499347     28.499347     56.998693
     -3.238238     22.733671     22.733671     45.467343
     -3.228228     17.567475     17.567475     35.134951
     -3.218218     13.720188     13.720188     27.440376
     -3.208208     11.482179     11.482179     22.964359
     -3.198198     10.711347     10.711347     21.422694
     -3.188188     10.954982     10.954982     21.909965
     -3.178178     11.645246     11.645246     23.290492
     -3.168168     12.309900     12.309900     24.619801
     -3.158158     12.741905     12.741905     25.483811
     -3.148148     13.078696     13.078696     26.157393
     -3.138138     13.760611     13.760611     27.521222
     -3.128128     15.370947     15.370947     30.741893
     -3.118118     18.399744     18.399744     36.799489
     -3.108108     23.005727     23.005727     46.011454
     -3.098098     28.863438     28.863438     57.726877
     -3.088088     35.167018     35.167018     70.334036
     -3.078078     40.814507     40.814507     81.629014
     -3.068068     44.725051     44.725051     89.450101
     -3.058058     46.173334     46.173334     92.346668
     -3.048048     45.001897     45.001897     90.003793
     -3.038038     41.619648     41.619648     83.239295
     -3.028028     36.798267     36.798267     73.596533
     -3.018018     31.378741     31.378741     62.757481
     -3.008008     26.034669     26.034669     52.069339
     -2.997998     21.187323     21.187323     42.374646
     -2.987988     17.069131     17.069131     34.138262
     -2.977978     13.853983     13.853983     27.707965
     -2.967968     11.757220     11.757220     23.514439
     -2.957958     11.048743     11.048743     22.097485
     -2.947948     11.980015     11.980015     23.960031
     -2.937938     14.665207     14.665207     29.330415
     -2.927928     18.969252     18.969252     37.938503
     -2.917918     24.450569     24.450569     48.901138
     -2.907908     30.391979     30.391979     60.783958
     -2.897898     35.929183     35.929183     71.858365
     -2.887888     40.250979     40.250979     80.501959
     -2.877878     42.808924     42.808924     85.617848
     -2.867868     43.456719     43.456719     86.913438
     -2.857858     42.458072     42.458072     84.916144
     -2.847848     40.354241     40.354241     80.708483
     -2.837838     37.745593     37.745593     75.491186
     -2.827828     35.082181     35.082181     70.164361
     -2.817818     32.553225     32.553225     65.106450
     -2.807808     30.115090     30.115090     60.230180
     -2.797798     27.627433     27.627433     55.254866
     -2.787788     25.014676     25.014676     50.029352
     -2.777778     22.362877     22.362877     44.725755
     -2.767768     19.903931     19.903931     39.807862
     -2.757758     17.905944     17.905944     35.811888
     -2.747748     16.542587     16.542587     33.085174
     -2.737738     15.823690     15.823690     31.647379
     -2.727728     15.628349     15.628349     31.256697
     -2.717718     15.814586     15.814586     31.629173
     -2.707708     16.328237     16.328237     32.656474
     -2.697698     17.232775     17.232775     34.465550
     -2.687688     18.634706     18.634706     37.269412
     -2.677678     20.552971     20.552971     41.105943
     -2.667668     22.825454     22.825454     45.650908
     -2.657658     25.127367     25.127367     50.254734
     -2.647648     27.103500     27.103500     54.207001
     -2.637638     28.537198     28.537198     57.074396
     -2.627628     29.449785     29.449785     58.899571
     -2.617618     30.067802     30.067802     60.135605
     -2.607608     30.681776     30.681776     61.363552
     -2.597598     31.486961     31.486961     62.973922
     -2.587588     32.496487     32.496487     64.992973
     -2.577578     33.556354     33.556354     67.112708
     -2.567568     34.422329     34.422329     68.844658
     -2.557558     34.835303     34.835303     69.670606
     -2.547548     34.564315     34.564315     69.128629
     -2.537538     33.435723     33.435723     66.871447
     -2.527528     31.383120     31.383120     62.766240
     -2.517518     28.521087     28.521087     57.042173
     -2.507508     25.199372     25.199372     50.398745
     -2.497497     21.978848     21.978848     43.957697
     -2.487487     19.505054     19.505054     39.010107
     -2.477477     18.315695     18.315695     36.631390
     -2.467467     18.663026     18.663026     37.326053
     -2.457457     20.432739     20.432739     40.865477
     -2.447447     23.199247     23.199247     46.398495
     -2.437437     26.395927     26.395927     52.791853
     -2.427427     29.526496     29.526496     59.052993
     -2.417417     32.323591     32.323591     64.647181
     -2.407407     34.782822     34.782822     69.565645
     -2.397397     37.057989     37.057989     74.115977
     -2.387387     39.270514     39.270514     78.541029
     -2.377377     41.331456     41.331456     82.662911
     -2.367367     42.873666     42.873666     85.747332
     -2.357357     43.342270     43.342270     86.684540
     -2.347347     42.214427     42.214427     84.428853
     -2.337337     39.251624     39.251624     78.503247
     -2.327327     34.665804     34.665804     69.331608
     -2.317317     29.119396     29.119396     58.238792
     -2.307307     23.558982     23.558982     47.117965
     -2.297297     18.957677     18.957677     37.915354
     -2.287287     16.071110     16.071110     32.142220
     -2.277277     15.287048     15.287048     30.574096
     -2.267267     16.594388     16.594388     33.188777
     -2.257257     19.649311     19.649311     39.298622
     -2.247247     23.894453     23.894453     47.788906
     -2.237237     28.688010     28.688010     57.376020
     -2.227227     33.410869     33.410869     66.821738
     -2.217217     37.533611     37.533611     75.067223
     -2.207207     40.641554     40.641554     81.283108
     -2.197197     42.434095     42.434095     84.868190
     -2.187187     42.726216     42.726216     85.452432
     -2.177177     41.473554     41.473554     82.947108
     -2.167167     38.815737     38.815737     77.631474
     -2.157157     35.101327     35.101327     70.202654
     -2.147147     30.848472     30.848472     61.696944
     -2.137137     26.624202     26.624202     53.248405
     -2.127127     22.879181     22.879181     45.758362
     -2.117117     19.815529     19.815529     39.631058
     -2.107107     17.358688     17.358688     34.717376
     -2.097097     15.249111     15.249111     30.498222
     -2.087087     13.201951     13.201951     26.403902
     -2.077077     11.048750     11.048750     22.097499
     -2.067067      8.794921      8.794921     17.589843
     -2.057057      6.582286      6.582286     13.164572
     -2.047047      4.597288      4.597288      9.194576
     -2.037037      2.982875      2.982875      5.965750
     -2.027027      1.793484      1.793484      3.586968
     -2.017017      0.999084      0.999084      1.998167
     -2.007007      0.519428      0.519428      1.038856
     -1.996997      0.263983      0.263983      0.527967
     -1.986987      0.161808      0.161808      0.323617
     -1.976977      0.177926      0.177926      0.355851
     -1.966967      0.320027      0.320027      0.640053
     -1.956957      0.639543      0.639543      1.279087
     -1.946947      1.226820      1.226820      2.453640
     -1.936937      2.195874      2.195874      4.391748
     -1.926927      3.654342      3.654342      7.308684
     -1.916917      5.660521      5.660521     11.321041
     -1.906907      8.179756      8.179756     16.359513
     -1.896897     11.060273     11.060273     22.120546
     -1.886887     14.046675     14.046675     28.093349
     -1.876877     16.835869     16.835869     33.671737
     -1.866867     19.161042     19.161042     38.322085
     -1.856857     20.874739     20.874739     41.749478
     -1.846847     21.998679     21.998679     43.997358
     -1.836837     22.715738     22.715738     45.431475
     -1.826827     23.295884     23.295884     46.591767
     -1.816817     23.971932     23.971932     47.943865
     -1.806807     24.809061     24.809061     49.618122
     -1.796797     25.630697     25.630697     51.261394
     -1.786787     26.052568     26.052568     52.105135
     -1.776777     25.628708     25.628708     51.257417
     -1.766767     24.049420     24.049420     48.098840
     -1.756757     21.293836     21.293836     42.587671
     -1.746747     17.659571     17.659571     35.319142
     -1.736737     13.659627     13.659627     27.319255
     -1.726727      9.847562      9.847562     19.695123
     -1.716717      6.660557      6.660557     13.321113
     -1.706707      4.344120      4.344120      8.688240
     -1.696697      2.966641      2.966641      5.933281
     -1.686687      2.485001      2.485001      4.970001
     -1.676677      2.807702      2.807702      5.615404
     -1.666667      3.819267      3.819267      7.638533
     -1.656657      5.362859      5.362859     10.725717
     -1.646647      7.208055      7.208055     14.416111
     -1.636637      9.043043      9.043043     18.086087
     -1.626627     10.519131     10.519131     21.038262
