# EIG2DOS: Utility for SIESTA to obtain the electronic density of states
#  E. Artacho, Apr 1999, A. Garcia, Apr 2012
#  Nick R. Papior, Feb 2017
# ------------------------------------------
# Eigenvalues calculated from a non-polarized calculation
# Eigenvalues read from siesta.EIG
# Kpoint weights read from siesta.KP
# Using smearing parameter:   0.0500
# Using 1000 points in the energy range
# Selected bands: 1 to: 2981
# Emin, Emax in file for selected band(s):    -27.0325373    218.3140380
# Nbands, Nspin, Nk   =   2981     1     1
# E_F                 =    -4.2956 eV --> (shifted to ZERO)
# Broadening          =     0.0500 eV
#
#        E            N(up)  (=)   N(down)         Ntot
     -5.000000     46.221872     46.221872     92.443743
     -4.989990     49.053811     49.053811     98.107622
     -4.979980     50.361195     50.361195    100.722391
     -4.969970     50.105823     50.105823    100.211646
     -4.959960     48.439418     48.439418     96.878836
     -4.949950     45.654006     45.654006     91.308012
     -4.939940     42.131549     42.131549     84.263097
     -4.929930     38.315408     38.315408     76.630816
     -4.919920     34.706905     34.706905     69.413809
     -4.909910     31.867980     31.867980     63.735960
     -4.899900     30.394554     30.394554     60.789108
     -4.889890     30.824267     30.824267     61.648535
     -4.879880     33.468251     33.468251     66.936502
     -4.869870     38.210076     38.210076     76.420152
     -4.859860     44.371140     44.371140     88.742280
     -4.849850     50.754772     50.754772    101.509544
     -4.839840     55.918862     55.918862    111.837723
     -4.829830     58.606843     58.606843    117.213686
     -4.819820     58.160333     58.160333    116.320666
     -4.809810     54.721595     54.721595    109.443191
     -4.799800     49.132786     49.132786     98.265573
     -4.789790     42.593996     42.593996     85.187993
     -4.779780     36.254420     36.254420     72.508840
     -4.769770     30.914598     30.914598     61.829196
     -4.759760     26.925911     26.925911     53.851821
     -4.749750     24.260188     24.260188     48.520376
     -4.739740     22.658467     22.658467     45.316933
     -4.729730     21.772770     21.772770     43.545539
     -4.719720     21.258411     21.258411     42.516823
     -4.709710     20.816469     20.816469     41.632939
     -4.699700     20.207796     20.207796     40.415592
     -4.689690     19.263634     19.263634     38.527267
     -4.679680     17.910442     17.910442     35.820884
     -4.669670     16.211171     16.211171     32.422343
     -4.659660     14.406416     14.406416     28.812832
     -4.649650     12.926467     12.926467     25.852934
     -4.639640     12.347488     12.347488     24.694976
     -4.629630     13.281009     13.281009     26.562018
     -4.619620     16.208092     16.208092     32.416184
     -4.609610     21.292660     21.292660     42.585321
     -4.599600     28.230622     28.230622     56.461245
     -4.589590     36.205173     36.205173     72.410346
     -4.579580     44.006576     44.006576     88.013151
     -4.569570     50.322654     50.322654    100.645307
     -4.559560     54.125304     54.125304    108.250608
     -4.549550     55.010539     55.010539    110.021079
     -4.539540     53.343370     53.343370    106.686740
     -4.529530     50.131348     50.131348    100.262696
     -4.519520     46.669282     46.669282     93.338563
     -4.509510     44.099100     44.099100     88.198200
     -4.499499     43.059883     43.059883     86.119766
     -4.489489     43.552259     43.552259     87.104517
     -4.479479     45.041236     45.041236     90.082473
     -4.469469     46.724384     46.724384     93.448768
     -4.459459     47.840286     47.840286     95.680571
     -4.449449     47.899439     47.899439     95.798877
     -4.439439     46.772299     46.772299     93.544599
     -4.429429     44.637917     44.637917     89.275833
     -4.419419     41.851180     41.851180     83.702359
     -4.409409     38.806086     38.806086     77.612172
     -4.399399     35.851520     35.851520     71.703040
     -4.389389     33.269551     33.269551     66.539102
     -4.379379     31.283803     31.283803     62.567605
     -4.369369     30.054801     30.054801     60.109601
     -4.359359     29.645844     29.645844     59.291688
     -4.349349     29.983666     29.983666     59.967331
     -4.339339     30.857903     30.857903     61.715806
     -4.329329     31.984213     31.984213     63.968426
     -4.319319     33.112195     33.112195     66.224389
     -4.309309     34.125434     34.125434     68.250869
     -4.299299     35.081688     35.081688     70.163377
     -4.289289     36.172370     36.172370     72.344740
     -4.279279     37.617577     37.617577     75.235155
     -4.269269     39.535378     39.535378     79.070757
     -4.259259     41.830647     41.830647     83.661293
     -4.249249     44.148054     44.148054     88.296107
     -4.239239     45.925662     45.925662     91.851323
     -4.229229     46.557569     46.557569     93.115137
     -4.219219     45.621941     45.621941     91.243882
     -4.209209     43.078324     43.078324     86.156648
     -4.199199     39.328357     39.328357     78.656714
     -4.189189     35.091260     35.091260     70.182519
     -4.179179     31.144252     31.144252     62.288505
     -4.169169     28.054919     28.054919     56.109837
     -4.159159     26.034759     26.034759     52.069519
     -4.149149     24.970946     24.970946     49.941892
     -4.139139     24.596104     24.596104     49.192209
     -4.129129     24.691504     24.691504     49.383008
     -4.119119     25.214399     25.214399     50.428798
     -4.109109     26.286453     26.286453     52.572906
     -4.099099     28.051081     28.051081     56.102163
     -4.089089     30.475681     30.475681     60.951362
     -4.079079     33.213171     33.213171     66.426342
     -4.069069     35.621470     35.621470     71.242940
     -4.059059     36.963860     36.963860     73.927721
     -4.049049     36.709335     36.709335     73.418670
     -4.039039     34.782206     34.782206     69.564412
     -4.029029     31.626451     31.626451     63.252902
     -4.019019     28.050290     28.050290     56.100581
     -4.009009     24.937795     24.937795     49.875591
     -3.998999     22.977834     22.977834     45.955667
     -3.988989     22.528971     22.528971     45.057941
     -3.978979     23.642398     23.642398     47.284796
     -3.968969     26.174632     26.174632     52.349264
     -3.958959     29.895248     29.895248     59.790495
     -3.948949     34.536942     34.536942     69.073883
     -3.938939     39.801057     39.801057     79.602114
     -3.928929     45.366609     45.366609     90.733217
     -3.918919     50.932472     50.932472    101.864944
     -3.908909     56.273994     56.273994    112.547988
     -3.898899     61.262532     61.262532    122.525064
     -3.888889     65.809561     65.809561    131.619123
     -3.878879     69.749115     69.749115    139.498229
     -3.868869     72.726990     72.726990    145.453979
     -3.858859     74.182937     74.182937    148.365873
     -3.848849     73.475371     73.475371    146.950742
     -3.838839     70.122412     70.122412    140.244825
     -3.828829     64.059367     64.059367    128.118734
     -3.818819     55.786168     55.786168    111.572336
     -3.808809     46.319511     46.319511     92.639023
     -3.798799     36.953649     36.953649     73.907298
     -3.788789     28.920894     28.920894     57.841787
     -3.778779     23.080556     23.080556     46.161113
     -3.768769     19.739807     19.739807     39.479614
     -3.758759     18.646176     18.646176     37.292352
     -3.748749     19.128280     19.128280     38.256560
     -3.738739     20.324852     20.324852     40.649705
     -3.728729     21.434497     21.434497     42.868995
     -3.718719     21.927541     21.927541     43.855082
     -3.708709     21.675268     21.675268     43.350536
     -3.698699     20.967380     20.967380     41.934759
     -3.688689     20.408628     20.408628     40.817255
     -3.678679     20.713339     20.713339     41.426678
     -3.668669     22.449453     22.449453     44.898907
     -3.658659     25.811088     25.811088     51.622175
     -3.648649     30.503814     30.503814     61.007628
     -3.638639     35.796227     35.796227     71.592453
     -3.628629     40.728107     40.728107     81.456214
     -3.618619     44.396313     44.396313     88.792626
     -3.608609     46.204040     46.204040     92.408080
     -3.598599     45.982001     45.982001     91.964002
     -3.588589     43.958431     43.958431     87.916861
     -3.578579     40.623983     40.623983     81.247966
     -3.568569     36.565739     36.565739     73.131478
     -3.558559     32.325988     32.325988     64.651977
     -3.548549     28.306033     28.306033     56.612066
     -3.538539     24.715937     24.715937     49.431874
     -3.528529     21.573084     21.573084     43.146167
     -3.518519     18.754925     18.754925     37.509850
     -3.508509     16.096418     16.096418     32.192837
     -3.498498     13.497212     13.497212     26.994423
     -3.488488     10.991695     10.991695     21.983390
     -3.478478      8.751379      8.751379     17.502759
     -3.468468      7.023392      7.023392     14.046785
     -3.458458      6.036785      6.036785     12.073570
     -3.448448      5.914388      5.914388     11.828776
     -3.438438      6.617061      6.617061     13.234121
     -3.428428      7.934136      7.934136     15.868271
     -3.418418      9.525971      9.525971     19.051943
     -3.408408     11.015924     11.015924     22.031848
     -3.398398     12.112153     12.112153     24.224305
     -3.388388     12.718878     12.718878     25.437757
     -3.378378     12.988776     12.988776     25.977553
     -3.368368     13.286537     13.286537     26.573074
     -3.358358     14.072851     14.072851     28.145702
     -3.348348     15.754065     15.754065     31.508130
     -3.338338     18.551735     18.551735     37.103470
     -3.328328     22.425272     22.425272     44.850544
     -3.318318     27.050957     27.050957     54.101914
     -3.308308     31.847951     31.847951     63.695903
     -3.298298     36.052260     36.052260     72.104521
     -3.288288     38.851153     38.851153     77.702306
     -3.278278     39.575272     39.575272     79.150544
     -3.268268     37.901873     37.901873     75.803746
     -3.258258     33.984495     33.984495     67.968990
     -3.248248     28.434021     28.434021     56.868042
     -3.238238     22.141632     22.141632     44.283263
     -3.228228     16.015785     16.015785     32.031569
     -3.218218     10.746776     10.746776     21.493552
     -3.208208      6.687612      6.687612     13.375225
     -3.198198      3.871757      3.871757      7.743513
     -3.188188      2.124914      2.124914      4.249828
     -3.178178      1.203529      1.203529      2.407058
     -3.168168      0.907364      0.907364      1.814729
     -3.158158      1.144139      1.144139      2.288279
     -3.148148      1.947028      1.947028      3.894056
     -3.138138      3.452488      3.452488      6.904976
     -3.128128      5.843239      5.843239     11.686478
     -3.118118      9.261734      9.261734     18.523468
     -3.108108     13.710430     13.710430     27.420860
     -3.098098     18.972444     18.972444     37.944888
     -3.088088     24.595440     24.595440     49.190881
     -3.078078     29.967410     29.967410     59.934821
     -3.068068     34.472283     34.472283     68.944566
     -3.058058     37.664476     37.664476     75.328951
     -3.048048     39.377890     39.377890     78.755781
     -3.038038     39.712219     39.712219     79.424438
     -3.028028     38.910366     38.910366     77.820733
     -3.018018     37.211091     37.211091     74.422181
     -3.008008     34.777760     34.777760     69.555520
     -2.997998     31.749286     31.749286     63.498573
     -2.987988     28.369129     28.369129     56.738257
     -2.977978     25.088228     25.088228     50.176456
     -2.967968     22.550591     22.550591     45.101181
     -2.957958     21.443412     21.443412     42.886823
     -2.947948     22.273910     22.273910     44.547820
     -2.937938     25.172889     25.172889     50.345778
     -2.927928     29.807575     29.807575     59.615151
     -2.917918     35.435331     35.435331     70.870662
     -2.907908     41.076963     41.076963     82.153925
     -2.897898     45.753500     45.753500     91.507001
     -2.887888     48.717835     48.717835     97.435669
     -2.877878     49.618459     49.618459     99.236918
     -2.867868     48.551990     48.551990     97.103979
     -2.857858     45.990920     45.990920     91.981840
     -2.847848     42.609199     42.609199     85.218399
     -2.837838     39.062493     39.062493     78.124986
     -2.827828     35.799395     35.799395     71.598790
     -2.817818     32.971776     32.971776     65.943552
     -2.807808     30.473801     30.473801     60.947602
     -2.797798     28.083196     28.083196     56.166393
     -2.787788     25.631375     25.631375     51.262751
     -2.777778     23.117037     23.117037     46.234073
     -2.767768     20.710113     20.710113     41.420227
     -2.757758     18.654227     18.654227     37.308453
     -2.747748     17.132543     17.132543     34.265087
     -2.737738     16.180952     16.180952     32.361903
     -2.727728     15.700887     15.700887     31.401773
     -2.717718     15.559564     15.559564     31.119128
     -2.707708     15.707395     15.707395     31.414790
     -2.697698     16.228940     16.228940     32.457881
     -2.687688     17.286015     17.286015     34.572030
     -2.677678     18.984173     18.984173     37.968347
     -2.667668     21.249481     21.249481     42.498963
     -2.657658     23.802378     23.802378     47.604755
     -2.647648     26.256119     26.256119     52.512238
     -2.637638     28.285961     28.285961     56.571923
     -2.627628     29.766893     29.766893     59.533786
     -2.617618     30.797418     30.797418     61.594837
     -2.607608     31.602247     31.602247     63.204494
     -2.597598     32.383804     32.383804     64.767609
     -2.587588     33.215554     33.215554     66.431108
     -2.577578     34.026118     34.026118     68.052235
     -2.567568     34.652681     34.652681     69.305361
     -2.557558     34.904340     34.904340     69.808681
     -2.547548     34.596808     34.596808     69.193616
     -2.537538     33.570479     33.570479     67.140959
     -2.527528     31.730496     31.730496     63.460992
     -2.517518     29.122815     29.122815     58.245630
     -2.507508     26.008646     26.008646     52.017293
     -2.497497     22.871742     22.871742     45.743485
     -2.487487     20.318673     20.318673     40.637346
     -2.477477     18.895445     18.895445     37.790890
     -2.467467     18.899434     18.899434     37.798869
     -2.457457     20.276864     20.276864     40.553728
     -2.447447     22.657610     22.657610     45.315220
     -2.437437     25.514034     25.514034     51.028068
     -2.427427     28.371932     28.371932     56.743864
     -2.417417     30.976603     30.976603     61.953205
     -2.407407     33.336895     33.336895     66.673790
     -2.397397     35.626971     35.626971     71.253942
     -2.387387     37.994183     37.994183     75.988367
     -2.377377     40.369885     40.369885     80.739770
     -2.367367     42.384142     42.384142     84.768284
     -2.357357     43.440746     43.440746     86.881491
     -2.347347     42.933651     42.933651     85.867303
     -2.337337     40.514444     40.514444     81.028888
     -2.327327     36.289349     36.289349     72.578698
     -2.317317     30.853391     30.853391     61.706782
     -2.307307     25.145513     25.145513     50.291026
     -2.297297     20.189803     20.189803     40.379606
     -2.287287     16.829601     16.829601     33.659201
     -2.277277     15.546196     15.546196     31.092393
     -2.267267     16.401833     16.401833     32.803665
     -2.257257     19.093936     19.093936     38.187872
     -2.247247     23.078001     23.078001     46.156002
     -2.237237     27.710948     27.710948     55.421896
     -2.227227     32.373988     32.373988     64.747976
     -2.217217     36.547393     36.547393     73.094786
     -2.207207     39.830017     39.830017     79.660035
     -2.197197     41.922404     41.922404     83.844808
     -2.187187     42.611519     42.611519     85.223039
     -2.177177     41.790814     41.790814     83.581627
     -2.167167     39.516805     39.516805     79.033611
     -2.157157     36.061554     36.061554     72.123108
     -2.147147     31.902218     31.902218     63.804436
     -2.137137     27.615939     27.615939     55.231879
     -2.127127     23.708539     23.708539     47.417077
     -2.117117     20.457424     20.457424     40.914848
     -2.107107     17.852107     17.852107     35.704214
     -2.097097     15.663328     15.663328     31.326657
     -2.087087     13.598574     13.598574     27.197148
     -2.077077     11.457111     11.457111     22.914222
     -2.067067      9.208618      9.208618     18.417237
     -2.057057      6.972745      6.972745     13.945490
     -2.047047      4.933169      4.933169      9.866338
     -2.037037      3.244662      3.244662      6.489325
     -2.027027      1.978404      1.978404      3.956808
     -2.017017      1.117760      1.117760      2.235520
     -2.007007      0.588926      0.588926      1.177853
     -1.996997      0.301552      0.301552      0.603105
     -1.986987      0.181409      0.181409      0.362819
     -1.976977      0.189480      0.189480      0.378961
     -1.966967      0.330206      0.330206      0.660412
     -1.956957      0.652786      0.652786      1.305573
     -1.946947      1.245619      1.245619      2.491238
     -1.936937      2.219864      2.219864      4.439728
     -1.926927      3.678275      3.678275      7.356550
     -1.916917      5.671795      5.671795     11.343589
     -1.906907      8.156391      8.156391     16.312782
     -1.896897     10.969572     10.969572     21.939144
     -1.886887     13.842962     13.842962     27.685924
     -1.876877     16.453502     16.453502     32.907004
     -1.866867     18.498711     18.498711     36.997422
     -1.856857     19.771428     19.771428     39.542855
     -1.846847     20.211018     20.211018     40.422037
     -1.836837     19.916417     19.916417     39.832835
     -1.826827     19.115039     19.115039     38.230079
     -1.816817     18.090439     18.090439     36.180879
     -1.806807     17.085408     17.085408     34.170815
     -1.796797     16.214500     16.214500     32.428999
     -1.786787     15.427566     15.427566     30.855132
     -1.776777     14.549178     14.549178     29.098356
     -1.766767     13.380328     13.380328     26.760656
     -1.756757     11.812074     11.812074     23.624148
     -1.746747      9.893346      9.893346     19.786692
     -1.736737      7.824095      7.824095     15.648190
     -1.726727      5.889642      5.889642     11.779284
     -1.716717      4.380909      4.380909      8.761818
     -1.706707      3.540736      3.540736      7.081472
     -1.696697      3.546614      3.546614      7.093227
     -1.686687      4.509379      4.509379      9.018758
     -1.676677      6.457532      6.457532     12.915064
     -1.666667      9.293829      9.293829     18.587658
     -1.656657     12.742842     12.742842     25.485684
     -1.646647     16.333122     16.333122     32.666245
     -1.636637     19.455609     19.455609     38.911219
     -1.626627     21.506058     21.506058     43.012115
