# EIG2DOS: Utility for SIESTA to obtain the electronic density of states
#  E. Artacho, Apr 1999, A. Garcia, Apr 2012
#  Nick R. Papior, Feb 2017
# ------------------------------------------
# Eigenvalues calculated from a non-polarized calculation
# Eigenvalues read from siesta.EIG
# Kpoint weights read from siesta.KP
# Using smearing parameter:   0.0500
# Using 1000 points in the energy range
# Selected bands: 1 to: 2981
# Emin, Emax in file for selected band(s):    -27.3007830    218.4012000
# Nbands, Nspin, Nk   =   2981     1     1
# E_F                 =    -4.2005 eV --> (shifted to ZERO)
# Broadening          =     0.0500 eV
#
#        E            N(up)  (=)   N(down)         Ntot
     -5.000000     31.587549     31.587549     63.175098
     -4.989990     36.653815     36.653815     73.307630
     -4.979980     41.457718     41.457718     82.915436
     -4.969970     45.171916     45.171916     90.343832
     -4.959960     47.090311     47.090311     94.180621
     -4.949950     46.863620     46.863620     93.727240
     -4.939940     44.621769     44.621769     89.243537
     -4.929930     40.947273     40.947273     81.894547
     -4.919920     36.732308     36.732308     73.464615
     -4.909910     32.985848     32.985848     65.971695
     -4.899900     30.643060     30.643060     61.286121
     -4.889890     30.393128     30.393128     60.786256
     -4.879880     32.525272     32.525272     65.050543
     -4.869870     36.813234     36.813234     73.626469
     -4.859860     42.492204     42.492204     84.984408
     -4.849850     48.385123     48.385123     96.770246
     -4.839840     53.184752     53.184752    106.369504
     -4.829830     55.816148     55.816148    111.632296
     -4.819820     55.745367     55.745367    111.490734
     -4.809810     53.109017     53.109017    106.218034
     -4.799800     48.617331     48.617331     97.234662
     -4.789790     43.286414     43.286414     86.572827
     -4.779780     38.123464     38.123464     76.246928
     -4.769770     33.886811     33.886811     67.773621
     -4.759760     30.981201     30.981201     61.962401
     -4.749750     29.473196     29.473196     58.946393
     -4.739740     29.167437     29.167437     58.334874
     -4.729730     29.688502     29.688502     59.377004
     -4.719720     30.547854     30.547854     61.095708
     -4.709710     31.208844     31.208844     62.417687
     -4.699700     31.172004     31.172004     62.344009
     -4.689690     30.085595     30.085595     60.171190
     -4.679680     27.857813     27.857813     55.715626
     -4.669670     24.728539     24.728539     49.457078
     -4.659660     21.263469     21.263469     42.526937
     -4.649650     18.259373     18.259373     36.518745
     -4.639640     16.579089     16.579089     33.158179
     -4.629630     16.952179     16.952179     33.904359
     -4.619620     19.780066     19.780066     39.560132
     -4.609610     24.984932     24.984932     49.969865
     -4.599600     31.948054     31.948054     63.896107
     -4.589590     39.584974     39.584974     79.169947
     -4.579580     46.579192     46.579192     93.158384
     -4.569570     51.734471     51.734471    103.468943
     -4.559560     54.334368     54.334368    108.668737
     -4.549550     54.364675     54.364675    108.729351
     -4.539540     52.493936     52.493936    104.987871
     -4.529530     49.807857     49.807857     99.615713
     -4.519520     47.403026     47.403026     94.806051
     -4.509510     46.005381     46.005381     92.010763
     -4.499499     45.760945     45.760945     91.521890
     -4.489489     46.264249     46.264249     92.528498
     -4.479479     46.786882     46.786882     93.573764
     -4.469469     46.592142     46.592142     93.184284
     -4.459459     45.202322     45.202322     90.404645
     -4.449449     42.524937     42.524937     85.049873
     -4.439439     38.819075     38.819075     77.638150
     -4.429429     34.554818     34.554818     69.109637
     -4.419419     30.253087     30.253087     60.506174
     -4.409409     26.377028     26.377028     52.754057
     -4.399399     23.294235     23.294235     46.588470
     -4.389389     21.277829     21.277829     42.555658
     -4.379379     20.498257     20.498257     40.996515
     -4.369369     20.984836     20.984836     41.969672
     -4.359359     22.581801     22.581801     45.163602
     -4.349349     24.948875     24.948875     49.897750
     -4.339339     27.638916     27.638916     55.277833
     -4.329329     30.237020     30.237020     60.474041
     -4.319319     32.501531     32.501531     65.003062
     -4.309309     34.437753     34.437753     68.875506
     -4.299299     36.263960     36.263960     72.527921
     -4.289289     38.277151     38.277151     76.554301
     -4.279279     40.668588     40.668588     81.337175
     -4.269269     43.362410     43.362410     86.724820
     -4.259259     45.950257     45.950257     91.900515
     -4.249249     47.768823     47.768823     95.537647
     -4.239239     48.114986     48.114986     96.229972
     -4.229229     46.527224     46.527224     93.054447
     -4.219219     43.013965     43.013965     86.027929
     -4.209209     38.115270     38.115270     76.230539
     -4.199199     32.754094     32.754094     65.508187
     -4.189189     27.935014     27.935014     55.870028
     -4.179179     24.423539     24.423539     48.847078
     -4.169169     22.544015     22.544015     45.088029
     -4.159159     22.169296     22.169296     44.338592
     -4.149149     22.881657     22.881657     45.763315
     -4.139139     24.211790     24.211790     48.423580
     -4.129129     25.840304     25.840304     51.680607
     -4.119119     27.674286     27.674286     55.348572
     -4.109109     29.772845     29.772845     59.545691
     -4.099099     32.167236     32.167236     64.334471
     -4.089089     34.677305     34.677305     69.354610
     -4.079079     36.838835     36.838835     73.677670
     -4.069069     38.008430     38.008430     76.016860
     -4.059059     37.617405     37.617405     75.234811
     -4.049049     35.453911     35.453911     70.907821
     -4.039039     31.823667     31.823667     63.647334
     -4.029029     27.499240     27.499240     54.998480
     -4.019019     23.480962     23.480962     46.961925
     -4.009009     20.687665     20.687665     41.375330
     -3.998999     19.716021     19.716021     39.432042
     -3.988989     20.751108     20.751108     41.502217
     -3.978979     23.623354     23.623354     47.246708
     -3.968969     27.944313     27.944313     55.888626
     -3.958959     33.244567     33.244567     66.489135
     -3.948949     39.070830     39.070830     78.141660
     -3.938939     45.041083     45.041083     90.082167
     -3.928929     50.874502     50.874502    101.749004
     -3.918919     56.401277     56.401277    112.802555
     -3.908909     61.537933     61.537933    123.075865
     -3.898899     66.214615     66.214615    132.429230
     -3.888889     70.270211     70.270211    140.540421
     -3.878879     73.367695     73.367695    146.735391
     -3.868869     74.992880     74.992880    149.985760
     -3.858859     74.568297     74.568297    149.136593
     -3.848849     71.654891     71.654891    143.309781
     -3.838839     66.162364     66.162364    132.324728
     -3.828829     58.475078     58.475078    116.950157
     -3.818819     49.432011     49.432011     98.864022
     -3.808809     40.158714     40.158714     80.317429
     -3.798799     31.806645     31.806645     63.613291
     -3.788789     25.285691     25.285691     50.571382
     -3.778779     21.070741     21.070741     42.141483
     -3.768769     19.131435     19.131435     38.262870
     -3.758759     18.993109     18.993109     37.986218
     -3.748749     19.902012     19.902012     39.804024
     -3.738739     21.046606     21.046606     42.093211
     -3.728729     21.779415     21.779415     43.558830
     -3.718719     21.787209     21.787209     43.574418
     -3.708709     21.168450     21.168450     42.336900
     -3.698699     20.394833     20.394833     40.789666
     -3.688689     20.158550     20.158550     40.317099
     -3.678679     21.137846     21.137846     42.275693
     -3.668669     23.744931     23.744931     47.489862
     -3.658659     27.939976     27.939976     55.879951
     -3.648649     33.186673     33.186673     66.373346
     -3.638639     38.580054     38.580054     77.160109
     -3.628629     43.107673     43.107673     86.215346
     -3.618619     45.944393     45.944393     91.888786
     -3.608609     46.666156     46.666156     93.332313
     -3.598599     45.311590     45.311590     90.623180
     -3.588589     42.295701     42.295701     84.591402
     -3.578579     38.239383     38.239383     76.478767
     -3.568569     33.790498     33.790498     67.580996
     -3.558559     29.484551     29.484551     58.969102
     -3.548549     25.659540     25.659540     51.319079
     -3.538539     22.425722     22.425722     44.851444
     -3.528529     19.692898     19.692898     39.385796
     -3.518519     17.253797     17.253797     34.507594
     -3.508509     14.902059     14.902059     29.804118
     -3.498498     12.541107     12.541107     25.082214
     -3.488488     10.238633     10.238633     20.477266
     -3.478478      8.207245      8.207245     16.414489
     -3.468468      6.727822      6.727822     13.455643
     -3.458458      6.053898      6.053898     12.107797
     -3.448448      6.333108      6.333108     12.666216
     -3.438438      7.565115      7.565115     15.130231
     -3.428428      9.600339      9.600339     19.200677
     -3.418418     12.176096     12.176096     24.352192
     -3.408408     14.981535     14.981535     29.963070
     -3.398398     17.734720     17.734720     35.469440
     -3.388388     20.248520     20.248520     40.497040
     -3.378378     22.464982     22.464982     44.929963
     -3.368368     24.451882     24.451882     48.903764
     -3.358358     26.369700     26.369700     52.739401
     -3.348348     28.420126     28.420126     56.840251
     -3.338338     30.778950     30.778950     61.557900
     -3.328328     33.511685     33.511685     67.023370
     -3.318318     36.484041     36.484041     72.968082
     -3.308308     39.307136     39.307136     78.614271
     -3.298298     41.372827     41.372827     82.745653
     -3.288288     42.010214     42.010214     84.020428
     -3.278278     40.729632     40.729632     81.459265
     -3.268268     37.452851     37.452851     74.905703
     -3.258258     32.609807     32.609807     65.219614
     -3.248248     27.036850     27.036850     54.073700
     -3.238238     21.710628     21.710628     43.421256
     -3.228228     17.433523     17.433523     34.867047
     -3.218218     14.603330     14.603330     29.206660
     -3.208208     13.150270     13.150270     26.300539
     -3.198198     12.645647     12.645647     25.291294
     -3.188188     12.520901     12.520901     25.041803
     -3.178178     12.306065     12.306065     24.612130
     -3.168168     11.803601     11.803601     23.607202
     -3.158158     11.146479     11.146479     22.292958
     -3.148148     10.733337     10.733337     21.466674
     -3.138138     11.072682     11.072682     22.145364
     -3.128128     12.590451     12.590451     25.180903
     -3.118118     15.458792     15.458792     30.917585
     -3.108108     19.495000     19.495000     38.989999
     -3.098098     24.164069     24.164069     48.328138
     -3.088088     28.694790     28.694790     57.389579
     -3.078078     32.284252     32.284252     64.568504
     -3.068068     34.326134     34.326134     68.652268
     -3.058058     34.575846     34.575846     69.151691
     -3.048048     33.183277     33.183277     66.366554
     -3.038038     30.582993     30.582993     61.165986
     -3.028028     27.302776     27.302776     54.605552
     -3.018018     23.790377     23.790377     47.580754
     -3.008008     20.338812     20.338812     40.677624
     -2.997998     17.125691     17.125691     34.251382
     -2.987988     14.315718     14.315718     28.631435
     -2.977978     12.148568     12.148568     24.297136
     -2.967968     10.955913     10.955913     21.911826
     -2.957958     11.097644     11.097644     22.195288
     -2.947948     12.846353     12.846353     25.692707
     -2.937938     16.265260     16.265260     32.530520
     -2.927928     21.122801     21.122801     42.245602
     -2.917918     26.877548     26.877548     53.755097
     -2.907908     32.752636     32.752636     65.505272
     -2.897898     37.895136     37.895136     75.790272
     -2.887888     41.583044     41.583044     83.166088
     -2.877878     43.413022     43.413022     86.826044
     -2.867868     43.395329     43.395329     86.790657
     -2.857858     41.910800     41.910800     83.821599
     -2.847848     39.541574     39.541574     79.083149
     -2.837838     36.846247     36.846247     73.692494
     -2.827828     34.178689     34.178689     68.357378
     -2.817818     31.628700     31.628700     63.257400
     -2.807808     29.099999     29.099999     58.199997
     -2.797798     26.470062     26.470062     52.940124
     -2.787788     23.736781     23.736781     47.473562
     -2.777778     21.071133     21.071133     42.142266
     -2.767768     18.754088     18.754088     37.508176
     -2.757758     17.044723     17.044723     34.089446
     -2.747748     16.064548     16.064548     32.129097
     -2.737738     15.768154     15.768154     31.536308
     -2.727728     16.011822     16.011822     32.023643
     -2.717718     16.666438     16.666438     33.332877
     -2.707708     17.691667     17.691667     35.383335
     -2.697698     19.116491     19.116491     38.232982
     -2.687688     20.940377     20.940377     41.880755
     -2.677678     23.032132     23.032132     46.064264
     -2.667668     25.113051     25.113051     50.226102
     -2.657658     26.855630     26.855630     53.711259
     -2.647648     28.045255     28.045255     56.090511
     -2.637638     28.700799     28.700799     57.401597
     -2.627628     29.070933     29.070933     58.141867
     -2.617618     29.503293     29.503293     59.006587
     -2.607608     30.265010     30.265010     60.530019
     -2.597598     31.417276     31.417276     62.834552
     -2.587588     32.800393     32.800393     65.600787
     -2.577578     34.110279     34.110279     68.220557
     -2.567568     35.001829     35.001829     70.003659
     -2.557558     35.166714     35.166714     70.333428
     -2.547548     34.380028     34.380028     68.760056
     -2.537538     32.543139     32.543139     65.086278
     -2.527528     29.739926     29.739926     59.479852
     -2.517518     26.285193     26.285193     52.570385
     -2.507508     22.717901     22.717901     45.435802
     -2.497497     19.706007     19.706007     39.412015
     -2.487487     17.876231     17.876231     35.752463
     -2.477477     17.628291     17.628291     35.256582
     -2.467467     19.009495     19.009495     38.018990
     -2.457457     21.704714     21.704714     43.409428
     -2.447447     25.150814     25.150814     50.301629
     -2.437437     28.733749     28.733749     57.467497
     -2.427427     31.990040     31.990040     63.980080
     -2.417417     34.727995     34.727995     69.455989
     -2.407407     37.014342     37.014342     74.028684
     -2.397397     39.031171     39.031171     78.062343
     -2.387387     40.871977     40.871977     81.743955
     -2.377377     42.382948     42.382948     84.765896
     -2.367367     43.142627     43.142627     86.285255
     -2.357357     42.608568     42.608568     85.217136
     -2.347347     40.371647     40.371647     80.743294
     -2.337337     36.395246     36.395246     72.790491
     -2.327327     31.117957     31.117957     62.235915
     -2.317317     25.367982     25.367982     50.735963
     -2.307307     20.133093     20.133093     40.266187
     -2.297297     16.293460     16.293460     32.586919
     -2.287287     14.422639     14.422639     28.845279
     -2.277277     14.708556     14.708556     29.417113
     -2.267267     16.983876     16.983876     33.967752
     -2.257257     20.819825     20.819825     41.639649
     -2.247247     25.636200     25.636200     51.272401
     -2.237237     30.797947     30.797947     61.595894
     -2.227227     35.687392     35.687392     71.374783
     -2.217217     39.753590     39.753590     79.507180
     -2.207207     42.547336     42.547336     85.094671
     -2.197197     43.753859     43.753859     87.507719
     -2.187187     43.232347     43.232347     86.464694
     -2.177177     41.058532     41.058532     82.117064
     -2.167167     37.547313     37.547313     75.094627
     -2.157157     33.221167     33.221167     66.442333
     -2.147147     28.703753     28.703753     57.407506
     -2.137137     24.558275     24.558275     49.116550
     -2.127127     21.133792     21.133792     42.267583
     -2.117117     18.495302     18.495302     36.990603
     -2.107107     16.477113     16.477113     32.954227
     -2.097097     14.831707     14.831707     29.663414
     -2.087087     13.391413     13.391413     26.782826
     -2.077077     12.154581     12.154581     24.309162
     -2.067067     11.254729     11.254729     22.509459
     -2.057057     10.839602     10.839602     21.679204
     -2.047047     10.935713     10.935713     21.871426
     -2.037037     11.377339     11.377339     22.754678
     -2.027027     11.839613     11.839613     23.679226
     -2.017017     11.958020     11.958020     23.916040
     -2.007007     11.472596     11.472596     22.945192
     -1.996997     10.326667     10.326667     20.653333
     -1.986987      8.679059      8.679059     17.358119
     -1.976977      6.836378      6.836378     13.672757
     -1.966967      5.149368      5.149368     10.298737
     -1.956957      3.924340      3.924340      7.848679
     -1.946947      3.377945      3.377945      6.755891
     -1.936937      3.630776      3.630776      7.261552
     -1.926927      4.715084      4.715084      9.430168
     -1.916917      6.574881      6.574881     13.149762
     -1.906907      9.055811      9.055811     18.111622
     -1.896897     11.900701     11.900701     23.801402
     -1.886887     14.770595     14.770595     29.541190
     -1.876877     17.298750     17.298750     34.597500
     -1.866867     19.166554     19.166554     38.333107
     -1.856857     20.178030     20.178030     40.356061
     -1.846847     20.308557     20.308557     40.617115
     -1.836837     19.710036     19.710036     39.420073
     -1.826827     18.664706     18.664706     37.329412
     -1.816817     17.493653     17.493653     34.987306
     -1.806807     16.445373     16.445373     32.890746
     -1.796797     15.607419     15.607419     31.214838
     -1.786787     14.884717     14.884717     29.769433
     -1.776777     14.061402     14.061402     28.122805
     -1.766767     12.919324     12.919324     25.838647
     -1.756757     11.353478     11.353478     22.706957
     -1.746747      9.427011      9.427011     18.854022
     -1.736737      7.345426      7.345426     14.690852
     -1.726727      5.375686      5.375686     10.751371
     -1.716717      3.760318      3.760318      7.520635
     -1.706707      2.667308      2.667308      5.334615
     -1.696697      2.185213      2.185213      4.370427
     -1.686687      2.343250      2.343250      4.686500
     -1.676677      3.125789      3.125789      6.251578
     -1.666667      4.462823      4.462823      8.925646
     -1.656657      6.202473      6.202473     12.404946
     -1.646647      8.092815      8.092815     16.185631
     -1.636637      9.804261      9.804261     19.608521
     -1.626627     11.005466     11.005466     22.010933
