# EIG2DOS: Utility for SIESTA to obtain the electronic density of states
#  E. Artacho, Apr 1999, A. Garcia, Apr 2012
#  Nick R. Papior, Feb 2017
# ------------------------------------------
# Eigenvalues calculated from a non-polarized calculation
# Eigenvalues read from siesta.EIG
# Kpoint weights read from siesta.KP
# Using smearing parameter:   0.0500
# Using 1000 points in the energy range
# Selected bands: 1 to: 2981
# Emin, Emax in file for selected band(s):    -27.0796178    218.3226060
# Nbands, Nspin, Nk   =   2981     1     1
# E_F                 =    -4.2869 eV --> (shifted to ZERO)
# Broadening          =     0.0500 eV
#
#        E            N(up)  (=)   N(down)         Ntot
     -5.000000     39.303492     39.303492     78.606984
     -4.989990     40.915446     40.915446     81.830891
     -4.979980     42.032570     42.032570     84.065140
     -4.969970     42.399982     42.399982     84.799965
     -4.959960     41.860334     41.860334     83.720667
     -4.949950     40.402487     40.402487     80.804974
     -4.939940     38.177997     38.177997     76.355994
     -4.929930     35.498061     35.498061     70.996122
     -4.919920     32.821159     32.821159     65.642318
     -4.909910     30.727061     30.727061     61.454123
     -4.899900     29.855767     29.855767     59.711535
     -4.889890     30.784688     30.784688     61.569377
     -4.879880     33.839905     33.839905     67.679810
     -4.869870     38.889147     38.889147     77.778294
     -4.859860     45.217864     45.217864     90.435729
     -4.849850     51.597275     51.597275    103.194550
     -4.839840     56.583444     56.583444    113.166888
     -4.829830     58.962638     58.962638    117.925275
     -4.819820     58.156272     58.156272    116.312544
     -4.809810     54.395893     54.395893    108.791786
     -4.799800     48.589624     48.589624     97.179249
     -4.789790     41.959663     41.959663     83.919326
     -4.779780     35.634272     35.634272     71.268544
     -4.769770     30.367931     30.367931     60.735863
     -4.759760     26.463268     26.463268     52.926537
     -4.749750     23.856706     23.856706     47.713412
     -4.739740     22.273522     22.273522     44.547043
     -4.729730     21.368937     21.368937     42.737873
     -4.719720     20.816184     20.816184     41.632368
     -4.709710     20.342404     20.342404     40.684807
     -4.699700     19.734088     19.734088     39.468176
     -4.689690     18.839248     18.839248     37.678496
     -4.679680     17.587842     17.587842     35.175684
     -4.669670     16.035422     16.035422     32.070844
     -4.659660     14.412063     14.412063     28.824126
     -4.649650     13.142132     13.142132     26.284265
     -4.639640     12.801828     12.801828     25.603657
     -4.629630     14.000897     14.000897     28.001794
     -4.619620     17.203281     17.203281     34.406561
     -4.609610     22.530070     22.530070     45.060140
     -4.599600     29.611368     29.611368     59.222736
     -4.589590     37.562049     37.562049     75.124098
     -4.579580     45.133906     45.133906     90.267813
     -4.569570     51.034932     51.034932    102.069864
     -4.559560     54.323886     54.323886    108.647773
     -4.549550     54.730199     54.730199    109.460397
     -4.539540     52.759364     52.759364    105.518729
     -4.529530     49.528534     49.528534     99.057068
     -4.519520     46.393908     46.393908     92.787816
     -4.509510     44.517400     44.517400     89.034801
     -4.499499     44.531886     44.531886     89.063772
     -4.489489     46.405248     46.405248     92.810497
     -4.479479     49.514122     49.514122     99.028243
     -4.469469     52.866778     52.866778    105.733556
     -4.459459     55.386904     55.386904    110.773809
     -4.449449     56.180773     56.180773    112.361545
     -4.439439     54.736514     54.736514    109.473028
     -4.429429     51.027128     51.027128    102.054255
     -4.419419     45.505359     45.505359     91.010718
     -4.409409     38.995198     38.995198     77.990396
     -4.399399     32.504654     32.504654     65.009309
     -4.389389     27.002629     27.002629     54.005258
     -4.379379     23.211773     23.211773     46.423546
     -4.369369     21.466318     21.466318     42.932635
     -4.359359     21.670094     21.670094     43.340189
     -4.349349     23.366570     23.366570     46.733140
     -4.339339     25.901570     25.901570     51.803140
     -4.329329     28.627928     28.627928     57.255856
     -4.319319     31.084159     31.084159     62.168319
     -4.309309     33.089057     33.089057     66.178114
     -4.299299     34.729234     34.729234     69.458469
     -4.289289     36.258234     36.258234     72.516468
     -4.279279     37.951467     37.951467     75.902934
     -4.269269     39.963446     39.963446     79.926891
     -4.259259     42.224297     42.224297     84.448593
     -4.249249     44.406290     44.406290     88.812580
     -4.239239     45.986167     45.986167     91.972333
     -4.229229     46.407476     46.407476     92.814951
     -4.219219     45.300172     45.300172     90.600344
     -4.209209     42.665070     42.665070     85.330139
     -4.199199     38.922327     38.922327     77.844655
     -4.189189     34.780632     34.780632     69.561265
     -4.179179     30.980874     30.980874     61.961748
     -4.169169     28.041094     28.041094     56.082189
     -4.159159     26.127431     26.127431     52.254861
     -4.149149     25.101323     25.101323     50.202646
     -4.139139     24.697130     24.697130     49.394260
     -4.129129     24.722904     24.722904     49.445808
     -4.119119     25.175868     25.175868     50.351737
     -4.109109     26.213413     26.213413     52.426825
     -4.099099     27.994053     27.994053     55.988106
     -4.089089     30.472154     30.472154     60.944309
     -4.079079     33.266082     33.266082     66.532164
     -4.069069     35.696688     35.696688     71.393377
     -4.059059     37.009283     37.009283     74.018566
     -4.049049     36.685166     36.685166     73.370333
     -4.039039     34.684365     34.684365     69.368729
     -4.029029     31.488795     31.488795     62.977590
     -4.019019     27.924727     27.924727     55.849453
     -4.009009     24.865364     24.865364     49.730728
     -3.998999     22.968824     22.968824     45.937647
     -3.988989     22.563038     22.563038     45.126076
     -3.978979     23.686101     23.686101     47.372202
     -3.968969     26.203646     26.203646     52.407292
     -3.958959     29.908183     29.908183     59.816365
     -3.948949     34.555788     34.555788     69.111575
     -3.938939     39.862464     39.862464     79.724928
     -3.928929     45.511516     45.511516     91.023033
     -3.918919     51.197867     51.197867    102.395734
     -3.908909     56.684725     56.684725    113.369449
     -3.898899     61.819433     61.819433    123.638866
     -3.888889     66.474793     66.474793    132.949585
     -3.878879     70.436781     70.436781    140.873562
     -3.868869     73.309984     73.309984    146.619969
     -3.858859     74.521292     74.521292    149.042584
     -3.848849     73.459365     73.459365    146.918730
     -3.838839     69.712958     69.712958    139.425917
     -3.828829     63.306660     63.306660    126.613320
     -3.818819     54.817133     54.817133    109.634265
     -3.808809     45.299583     45.299583     90.599167
     -3.798799     36.039613     36.039613     72.079226
     -3.788789     28.222915     28.222915     56.445829
     -3.778779     22.644206     22.644206     45.288412
     -3.768769     19.548803     19.548803     39.097606
     -3.758759     18.639627     18.639627     37.279255
     -3.748749     19.224469     19.224469     38.448938
     -3.738739     20.445197     20.445197     40.890394
     -3.728729     21.523544     21.523544     43.047088
     -3.718719     21.966010     21.966010     43.932020
     -3.708709     21.683600     21.683600     43.367200
     -3.698699     20.998018     20.998018     41.996035
     -3.688689     20.527433     20.527433     41.054867
     -3.678679     20.974139     20.974139     41.948278
     -3.668669     22.869590     22.869590     45.739181
     -3.658659     26.357684     26.357684     52.715368
     -3.648649     31.097951     31.097951     62.195903
     -3.638639     36.335147     36.335147     72.670294
     -3.628629     41.116794     41.116794     82.233588
     -3.618619     44.574757     44.574757     89.149514
     -3.608609     46.158896     46.158896     92.317791
     -3.598599     45.740177     45.740177     91.480354
     -3.588589     43.569617     43.569617     87.139234
     -3.578579     40.142921     40.142921     80.285842
     -3.568569     36.041548     36.041548     72.083095
     -3.558559     31.798925     31.798925     63.597849
     -3.548549     27.807524     27.807524     55.615047
     -3.538539     24.268169     24.268169     48.536338
     -3.528529     21.187891     21.187891     42.375782
     -3.518519     18.434149     18.434149     36.868298
     -3.508509     15.835311     15.835311     31.670622
     -3.498498     13.289933     13.289933     26.579866
     -3.488488     10.836163     10.836163     21.672326
     -3.478478      8.651021      8.651021     17.302043
     -3.468468      6.985076      6.985076     13.970152
     -3.458458      6.065897      6.065897     12.131794
     -3.448448      6.008942      6.008942     12.017884
     -3.438438      6.763028      6.763028     13.526057
     -3.428428      8.104280      8.104280     16.208560
     -3.418418      9.683914      9.683914     19.367827
     -3.408408     11.125529     11.125529     22.251058
     -3.398398     12.149801     12.149801     24.299601
     -3.388388     12.684271     12.684271     25.368543
     -3.378378     12.910030     12.910030     25.820061
     -3.368368     13.217516     13.217516     26.435032
     -3.358358     14.083310     14.083310     28.166620
     -3.348348     15.914443     15.914443     31.828886
     -3.338338     18.914336     18.914336     37.828671
     -3.328328     23.004028     23.004028     46.008055
     -3.318318     27.804554     27.804554     55.609108
     -3.308308     32.674514     32.674514     65.349029
     -3.298298     36.803913     36.803913     73.607826
     -3.288288     39.370164     39.370164     78.740327
     -3.278278     39.741875     39.741875     79.483750
     -3.268268     37.674412     37.674412     75.348823
     -3.258258     33.413040     33.413040     66.826080
     -3.248248     27.640673     27.640673     55.281345
     -3.238238     21.277287     21.277287     42.554575
     -3.228228     15.213761     15.213761     30.427522
     -3.218218     10.092254     10.092254     20.184508
     -3.208208      6.211010      6.211010     12.422021
     -3.198198      3.562023      3.562023      7.124045
     -3.188188      1.952513      1.952513      3.905026
     -3.178178      1.144256      1.144256      2.288513
     -3.168168      0.963675      0.963675      1.927351
     -3.158158      1.365479      1.365479      2.730958
     -3.148148      2.451097      2.451097      4.902193
     -3.138138      4.444506      4.444506      8.889012
     -3.128128      7.621994      7.621994     15.243988
     -3.118118     12.194319     12.194319     24.388638
     -3.108108     18.159118     18.159118     36.318236
     -3.098098     25.172735     25.172735     50.345469
     -3.088088     32.512534     32.512534     65.025067
     -3.078078     39.187085     39.187085     78.374169
     -3.068068     44.191989     44.191989     88.383978
     -3.058058     46.826443     46.826443     93.652887
     -3.048048     46.930368     46.930368     93.860736
     -3.038038     44.920270     44.920270     89.840541
     -3.028028     41.597018     41.597018     83.194037
     -3.018018     37.818781     37.818781     75.637563
     -3.008008     34.202752     34.202752     68.405505
     -2.997998     30.995479     30.995479     61.990958
     -2.987988     28.151401     28.151401     56.302802
     -2.977978     25.547114     25.547114     51.094227
     -2.967968     23.198984     23.198984     46.397969
     -2.957958     21.367606     21.367606     42.735212
     -2.947948     20.502154     20.502154     41.004308
     -2.937938     21.057528     21.057528     42.115055
     -2.927928     23.270974     23.270974     46.541948
     -2.917918     26.997398     26.997398     53.994797
     -2.907908     31.676635     31.676635     63.353271
     -2.897898     36.454484     36.454484     72.908969
     -2.887888     40.419675     40.419675     80.839350
     -2.877878     42.871348     42.871348     85.742695
     -2.867868     43.515370     43.515370     87.030740
     -2.857858     42.513213     42.513213     85.026426
     -2.847848     40.367228     40.367228     80.734456
     -2.837838     37.695981     37.695981     75.391963
     -2.827828     35.000003     35.000003     70.000006
     -2.817818     32.518230     32.518230     65.036459
     -2.807808     30.227627     30.227627     60.455254
     -2.797798     27.966616     27.966616     55.933233
     -2.787788     25.603720     25.603720     51.207439
     -2.777778     23.156795     23.156795     46.313590
     -2.767768     20.803157     20.803157     41.606313
     -2.757758     18.786927     18.786927     37.573854
     -2.747748     17.289624     17.289624     34.579249
     -2.737738     16.348574     16.348574     32.697149
     -2.727728     15.873818     15.873818     31.747636
     -2.717718     15.748085     15.748085     31.496170
     -2.707708     15.937747     15.937747     31.875494
     -2.697698     16.533238     16.533238     33.066476
     -2.687688     17.683671     17.683671     35.367342
     -2.677678     19.463709     19.463709     38.927418
     -2.667668     21.762198     21.762198     43.524396
     -2.657658     24.274697     24.274697     48.549393
     -2.647648     26.617066     26.617066     53.234133
     -2.637638     28.496463     28.496463     56.992925
     -2.627628     29.835195     29.835195     59.670389
     -2.617618     30.772503     30.772503     61.545006
     -2.607608     31.549868     31.549868     63.099737
     -2.597598     32.358943     32.358943     64.717885
     -2.587588     33.244614     33.244614     66.489228
     -2.577578     34.103599     34.103599     68.207199
     -2.567568     34.748035     34.748035     69.496070
     -2.557558     34.972110     34.972110     69.944221
     -2.547548     34.587051     34.587051     69.174101
     -2.537538     33.440978     33.440978     66.881955
     -2.527528     31.461776     31.461776     62.923552
     -2.517518     28.731865     28.731865     57.463729
     -2.507508     25.553125     25.553125     51.106251
     -2.497497     22.438528     22.438528     44.877056
     -2.487487     19.998458     19.998458     39.996916
     -2.477477     18.753327     18.753327     37.506653
     -2.467467     18.954322     18.954322     37.908645
     -2.457457     20.498318     20.498318     40.996635
     -2.447447     22.980267     22.980267     45.960534
     -2.437437     25.861924     25.861924     51.723848
     -2.427427     28.681656     28.681656     57.363312
     -2.417417     31.210679     31.210679     62.421358
     -2.407407     33.484574     33.484574     66.969148
     -2.397397     35.695701     35.695701     71.391401
     -2.387387     37.997568     37.997568     75.995137
     -2.377377     40.317162     40.317162     80.634323
     -2.367367     42.274050     42.274050     84.548100
     -2.357357     43.261247     43.261247     86.522494
     -2.347347     42.667971     42.667971     85.335941
     -2.337337     40.151857     40.151857     80.303714
     -2.327327     35.836129     35.836129     71.672259
     -2.317317     30.337816     30.337816     60.675632
     -2.307307     24.613288     24.613288     49.226577
     -2.297297     19.691803     19.691803     39.383605
     -2.287287     16.408478     16.408478     32.816956
     -2.277277     15.228623     15.228623     30.457247
     -2.267267     16.198857     16.198857     32.397715
     -2.257257     19.006603     19.006603     38.013206
     -2.247247     23.102667     23.102667     46.205334
     -2.237237     27.840083     27.840083     55.680166
     -2.227227     32.592270     32.592270     65.184540
     -2.217217     36.826775     36.826775     73.653550
     -2.207207     40.128800     40.128800     80.257601
     -2.197197     42.191388     42.191388     84.382775
     -2.187187     42.806210     42.806210     85.612420
     -2.177177     41.884795     41.884795     83.769590
     -2.167167     39.509975     39.509975     79.019950
     -2.157157     35.978852     35.978852     71.957704
     -2.147147     31.782791     31.782791     63.565582
     -2.137137     27.497258     27.497258     54.994516
     -2.127127     23.612474     23.612474     47.224947
     -2.117117     20.384383     20.384383     40.768765
     -2.107107     17.785349     17.785349     35.570698
     -2.097097     15.580531     15.580531     31.161063
     -2.087087     13.484358     13.484358     26.968716
     -2.077077     11.310404     11.310404     22.620808
     -2.067067      9.042166      9.042166     18.084332
     -2.057057      6.806475      6.806475     13.612951
     -2.047047      4.785820      4.785820      9.571641
     -2.037037      3.127870      3.127870      6.255741
     -2.027027      1.895103      1.895103      3.790207
     -2.017017      1.064200      1.064200      2.128400
     -2.007007      0.558275      0.558275      1.116549
     -1.996997      0.287264      0.287264      0.574529
     -1.986987      0.179518      0.179518      0.359036
     -1.976977      0.199836      0.199836      0.399672
     -1.966967      0.356967      0.356967      0.713935
     -1.956957      0.704158      0.704158      1.408317
     -1.946947      1.332356      1.332356      2.664711
     -1.936937      2.351939      2.351939      4.703877
     -1.926927      3.859777      3.859777      7.719553
     -1.916917      5.895453      5.895453     11.790906
     -1.906907      8.400492      8.400492     16.800984
     -1.896897     11.200115     11.200115     22.400230
     -1.886887     14.022071     14.022071     28.044142
     -1.876877     16.551825     16.551825     33.103650
     -1.866867     18.506795     18.506795     37.013590
     -1.856857     19.704772     19.704772     39.409545
     -1.846847     20.106158     20.106158     40.212316
     -1.836837     19.819440     19.819440     39.638879
     -1.826827     19.067285     19.067285     38.134570
     -1.816817     18.117540     18.117540     36.235079
     -1.806807     17.195526     17.195526     34.391053
     -1.796797     16.410137     16.410137     32.820274
     -1.786787     15.732258     15.732258     31.464516
     -1.776777     15.045158     15.045158     30.090317
     -1.766767     14.245841     14.245841     28.491683
     -1.756757     13.339741     13.339741     26.679482
     -1.746747     12.467955     12.467955     24.935910
     -1.736737     11.844197     11.844197     23.688393
     -1.726727     11.635152     11.635152     23.270303
     -1.716717     11.855798     11.855798     23.711596
     -1.706707     12.345272     12.345272     24.690544
     -1.696697     12.841997     12.841997     25.683994
     -1.686687     13.117376     13.117376     26.234751
     -1.676677     13.091087     13.091087     26.182175
     -1.666667     12.860219     12.860219     25.720437
     -1.656657     12.624479     12.624479     25.248959
     -1.646647     12.551360     12.551360     25.102720
     -1.636637     12.661185     12.661185     25.322369
     -1.626627     12.800797     12.800797     25.601594
