# EIG2DOS: Utility for SIESTA to obtain the electronic density of states
#  E. Artacho, Apr 1999, A. Garcia, Apr 2012
#  Nick R. Papior, Feb 2017
# ------------------------------------------
# Eigenvalues calculated from a non-polarized calculation
# Eigenvalues read from siesta.EIG
# Kpoint weights read from siesta.KP
# Using smearing parameter:   0.0500
# Using 1000 points in the energy range
# Selected bands: 1 to: 2981
# Emin, Emax in file for selected band(s):    -27.1471818    218.3758110
# Nbands, Nspin, Nk   =   2981     1     1
# E_F                 =    -4.2229 eV --> (shifted to ZERO)
# Broadening          =     0.0500 eV
#
#        E            N(up)  (=)   N(down)         Ntot
     -5.000000     33.660812     33.660812     67.321624
     -4.989990     38.254149     38.254149     76.508299
     -4.979980     42.255549     42.255549     84.511097
     -4.969970     44.986848     44.986848     89.973695
     -4.959960     45.956542     45.956542     91.913084
     -4.949950     45.022132     45.022132     90.044265
     -4.939940     42.442620     42.442620     84.885240
     -4.929930     38.818030     38.818030     77.636060
     -4.919920     34.960884     34.960884     69.921768
     -4.909910     31.752100     31.752100     63.504201
     -4.899900     30.004356     30.004356     60.008713
     -4.889890     30.323070     30.323070     60.646140
     -4.879880     32.954867     32.954867     65.909733
     -4.869870     37.652006     37.652006     75.304012
     -4.859860     43.625567     43.625567     87.251135
     -4.849850     49.662268     49.662268     99.324535
     -4.839840     54.418154     54.418154    108.836309
     -4.829830     56.805621     56.805621    113.611243
     -4.819820     56.321014     56.321014    112.642028
     -4.809810     53.170605     53.170605    106.341209
     -4.799800     48.144272     48.144272     96.288544
     -4.789790     42.305897     42.305897     84.611795
     -4.779780     36.646243     36.646243     73.292486
     -4.769770     31.837901     31.837901     63.675802
     -4.759760     28.158097     28.158097     56.316194
     -4.749750     25.557026     25.557026     51.114052
     -4.739740     23.796730     23.796730     47.593461
     -4.729730     22.583791     22.583791     45.167583
     -4.719720     21.651344     21.651344     43.302689
     -4.709710     20.785527     20.785527     41.571054
     -4.699700     19.820480     19.820480     39.640960
     -4.689690     18.636802     18.636802     37.273605
     -4.679680     17.188942     17.188942     34.377884
     -4.669670     15.561781     15.561781     31.123562
     -4.659660     14.028848     14.028848     28.057696
     -4.649650     13.070745     13.070745     26.141491
     -4.639640     13.320381     13.320381     26.640762
     -4.629630     15.425762     15.425762     30.851524
     -4.619620     19.850697     19.850697     39.701394
     -4.609610     26.662376     26.662376     53.324752
     -4.599600     35.378653     35.378653     70.757306
     -4.589590     44.955513     44.955513     89.911026
     -4.579580     53.967997     53.967997    107.935995
     -4.569570     60.968062     60.968062    121.936125
     -4.559560     64.913382     64.913382    129.826764
     -4.549550     65.501998     65.501998    131.003995
     -4.539540     63.263958     63.263958    126.527915
     -4.529530     59.357057     59.357057    118.714115
     -4.519520     55.144242     55.144242    110.288485
     -4.509510     51.726713     51.726713    103.453425
     -4.499499     49.619460     49.619460     99.238920
     -4.489489     48.681755     48.681755     97.363511
     -4.479479     48.296278     48.296278     96.592556
     -4.469469     47.688272     47.688272     95.376545
     -4.459459     46.236527     46.236527     92.473054
     -4.449449     43.660443     43.660443     87.320886
     -4.439439     40.044977     40.044977     80.089954
     -4.429429     35.743066     35.743066     71.486132
     -4.419419     31.235346     31.235346     62.470692
     -4.409409     27.016311     27.016311     54.032622
     -4.399399     23.530802     23.530802     47.061603
     -4.389389     21.139768     21.139768     42.279536
     -4.379379     20.080863     20.080863     40.161727
     -4.369369     20.413532     20.413532     40.827063
     -4.359359     21.976089     21.976089     43.952177
     -4.349349     24.399270     24.399270     48.798540
     -4.339339     27.199169     27.199169     54.398338
     -4.329329     29.925979     29.925979     59.851958
     -4.319319     32.306723     32.306723     64.613445
     -4.309309     34.316675     34.316675     68.633349
     -4.299299     36.146151     36.146151     72.292302
     -4.289289     38.075227     38.075227     76.150453
     -4.279279     40.304552     40.304552     80.609104
     -4.269269     42.805509     42.805509     85.611019
     -4.259259     45.249945     45.249945     90.499890
     -4.249249     47.061108     47.061108     94.122217
     -4.239239     47.589949     47.589949     95.179897
     -4.229229     46.366525     46.366525     92.733050
     -4.219219     43.326094     43.326094     86.652188
     -4.209209     38.899005     38.899005     77.798009
     -4.199199     33.904582     33.904582     67.809164
     -4.189189     29.283496     29.283496     58.566993
     -4.179179     25.787017     25.787017     51.574034
     -4.169169     23.762939     23.762939     47.525878
     -4.159159     23.124743     23.124743     46.249486
     -4.149149     23.497019     23.497019     46.994039
     -4.139139     24.449551     24.449551     48.899101
     -4.129129     25.701447     25.701447     51.402894
     -4.119119     27.201040     27.201040     54.402080
     -4.109109     29.049984     29.049984     58.099968
     -4.099099     31.315852     31.315852     62.631704
     -4.089089     33.837975     33.837975     67.675949
     -4.079079     36.146699     36.146699     72.293398
     -4.069069     37.567848     37.567848     75.135696
     -4.059059     37.485211     37.485211     74.970422
     -4.049049     35.636437     35.636437     71.272874
     -4.039039     32.285497     32.285497     64.570995
     -4.029029     28.175741     28.175741     56.351482
     -4.019019     24.286601     24.286601     48.573202
     -4.009009     21.518311     21.518311     43.036623
     -3.998999     20.451320     20.451320     40.902640
     -3.988989     21.265840     21.265840     42.531680
     -3.978979     23.811226     23.811226     47.622452
     -3.968969     27.747207     27.747207     55.494414
     -3.958959     32.672851     32.672851     65.345702
     -3.948949     38.202258     38.202258     76.404517
     -3.938939     43.996578     43.996578     87.993156
     -3.928929     49.781744     49.781744     99.563488
     -3.918919     55.363344     55.363344    110.726689
     -3.908909     60.620467     60.620467    121.240935
     -3.898899     65.453853     65.453853    130.907707
     -3.888889     69.692351     69.692351    139.384702
     -3.878879     73.004277     73.004277    146.008554
     -3.868869     74.880335     74.880335    149.760671
     -3.858859     74.730705     74.730705    149.461410
     -3.848849     72.080723     72.080723    144.161445
     -3.838839     66.791089     66.791089    133.582177
     -3.828829     59.204338     59.204338    118.408675
     -3.818819     50.143916     50.143916    100.287832
     -3.808809     40.752823     40.752823     81.505645
     -3.798799     32.224398     32.224398     64.448795
     -3.788789     25.517345     25.517345     51.034689
     -3.778779     21.145849     21.145849     42.291698
     -3.768769     19.100921     19.100921     38.201842
     -3.758759     18.911823     18.911823     37.823646
     -3.748749     19.816882     19.816882     39.633764
     -3.738739     20.991026     20.991026     41.982052
     -3.728729     21.771955     21.771955     43.543910
     -3.718719     21.832443     21.832443     43.664886
     -3.708709     21.258514     21.258514     42.517027
     -3.698699     20.511191     20.511191     41.022382
     -3.688689     20.274170     20.274170     40.548340
     -3.678679     21.220549     21.220549     42.441098
     -3.668669     23.762935     23.762935     47.525870
     -3.658659     27.869950     27.869950     55.739900
     -3.648649     33.022789     33.022789     66.045577
     -3.638639     38.340448     38.340448     76.680895
     -3.628629     42.834157     42.834157     85.668314
     -3.618619     45.693340     45.693340     91.386680
     -3.608609     46.492651     46.492651     92.985302
     -3.598599     45.252803     45.252803     90.505606
     -3.588589     42.360365     42.360365     84.720730
     -3.578579     38.407496     38.407496     76.814991
     -3.568569     34.022524     34.022524     68.045047
     -3.558559     29.735331     29.735331     59.470661
     -3.548549     25.890930     25.890930     51.781859
     -3.538539     22.613851     22.613851     45.227701
     -3.528529     19.829194     19.829194     39.658389
     -3.518519     17.341603     17.341603     34.683206
     -3.508509     14.951538     14.951538     29.903077
     -3.498498     12.564360     12.564360     25.128720
     -3.488488     10.245317     10.245317     20.490635
     -3.478478      8.199388      8.199388     16.398776
     -3.468468      6.691386      6.691386     13.382771
     -3.458458      5.944496      5.944496     11.888992
     -3.448448      6.054804      6.054804     12.109608
     -3.438438      6.945325      6.945325     13.890650
     -3.428428      8.370412      8.370412     16.740824
     -3.418418      9.973826      9.973826     19.947653
     -3.408408     11.393363     11.393363     22.786725
     -3.398398     12.386129     12.386129     24.772257
     -3.388388     12.929633     12.929633     25.859265
     -3.378378     13.252207     13.252207     26.504413
     -3.368368     13.771368     13.771368     27.542737
     -3.358358     14.959278     14.959278     29.918556
     -3.348348     17.185017     17.185017     34.370034
     -3.338338     20.585352     20.585352     41.170703
     -3.328328     24.993497     24.993497     49.986994
     -3.318318     29.932083     29.932083     59.864167
     -3.308308     34.670501     34.670501     69.341003
     -3.298298     38.352375     38.352375     76.704750
     -3.288288     40.191887     40.191887     80.383773
     -3.278278     39.703363     39.703363     79.406725
     -3.268268     36.885024     36.885024     73.770048
     -3.258258     32.266051     32.266051     64.532102
     -3.248248     26.771825     26.771825     53.543649
     -3.238238     21.446277     21.446277     42.892553
     -3.228228     17.140363     17.140363     34.280727
     -3.218218     14.288417     14.288417     28.576834
     -3.208208     12.847558     12.847558     25.695116
     -3.198198     12.403065     12.403065     24.806131
     -3.188188     12.382920     12.382920     24.765840
     -3.178178     12.297190     12.297190     24.594379
     -3.168168     11.922490     11.922490     23.844980
     -3.158158     11.379418     11.379418     22.758836
     -3.148148     11.089579     11.089579     22.179158
     -3.138138     11.634778     11.634778     23.269555
     -3.128128     13.562729     13.562729     27.125458
     -3.118118     17.189356     17.189356     34.378711
     -3.108108     22.445497     22.445497     44.890994
     -3.098098     28.812873     28.812873     57.625746
     -3.088088     35.385697     35.385697     70.771393
     -3.078078     41.066694     41.066694     82.133387
     -3.068068     44.854999     44.854999     89.709997
     -3.058058     46.129161     46.129161     92.258322
     -3.048048     44.810176     44.810176     89.620351
     -3.038038     41.333558     41.333558     82.667116
     -3.028028     36.451055     36.451055     72.902111
     -3.018018     30.967213     30.967213     61.934425
     -3.008008     25.538160     25.538160     51.076320
     -2.997998     20.606974     20.606974     41.213948
     -2.987988     16.462027     16.462027     32.924054
     -2.977978     13.341619     13.341619     26.683237
     -2.967968     11.502793     11.502793     23.005586
     -2.957958     11.212603     11.212603     22.425206
     -2.947948     12.669763     12.669763     25.339525
     -2.937938     15.896078     15.896078     31.792155
     -2.927928     20.645819     20.645819     41.291639
     -2.917918     26.375794     26.375794     52.751588
     -2.907908     32.304091     32.304091     64.608181
     -2.897898     37.559548     37.559548     75.119097
     -2.887888     41.387986     41.387986     82.775971
     -2.877878     43.347937     43.347937     86.695874
     -2.867868     43.418349     43.418349     86.836698
     -2.857858     41.967143     41.967143     83.934286
     -2.847848     39.586817     39.586817     79.173633
     -2.837838     36.865020     36.865020     73.730039
     -2.827828     34.190699     34.190699     68.381397
     -2.817818     31.679127     31.679127     63.358254
     -2.807808     29.238262     29.238262     58.476524
     -2.797798     26.726389     26.726389     53.452778
     -2.787788     24.107040     24.107040     48.214080
     -2.777778     21.516100     21.516100     43.032201
     -2.767768     19.211931     19.211931     38.423863
     -2.757758     17.449156     17.449156     34.898312
     -2.747748     16.359516     16.359516     32.719031
     -2.737738     15.913768     15.913768     31.827536
     -2.727728     15.982943     15.982943     31.965886
     -2.717718     16.450315     16.450315     32.900630
     -2.707708     17.290947     17.290947     34.581895
     -2.697698     18.558520     18.558520     37.117039
     -2.687688     20.286402     20.286402     40.572805
     -2.677678     22.376338     22.376338     44.752676
     -2.667668     24.564917     24.564917     49.129834
     -2.657658     26.508973     26.508973     53.017945
     -2.647648     27.947208     27.947208     55.894416
     -2.637638     28.836430     28.836430     57.672860
     -2.627628     29.371525     29.371525     58.743050
     -2.617618     29.873287     29.873287     59.746574
     -2.607608     30.613496     30.613496     61.226992
     -2.597598     31.680593     31.680593     63.361186
     -2.587588     32.950882     32.950882     65.901764
     -2.577578     34.154785     34.154785     68.309570
     -2.567568     34.975761     34.975761     69.951523
     -2.557558     35.125824     35.125824     70.251648
     -2.547548     34.388333     34.388333     68.776667
     -2.537538     32.656206     32.656206     65.312413
     -2.527528     29.987415     29.987415     59.974831
     -2.517518     26.659923     26.659923     53.319847
     -2.507508     23.176826     23.176826     46.353652
     -2.497497     20.182318     20.182318     40.364635
     -2.487487     18.296239     18.296239     36.592477
     -2.477477     17.925827     17.925827     35.851654
     -2.467467     19.134272     19.134272     38.268544
     -2.457457     21.625713     21.625713     43.251425
     -2.447447     24.857744     24.857744     49.715489
     -2.437437     28.238287     28.238287     56.476573
     -2.427427     31.326225     31.326225     62.652450
     -2.417417     33.950384     33.950384     67.900768
     -2.407407     36.193776     36.193776     72.387553
     -2.397397     38.249350     38.249350     76.498701
     -2.387387     40.215526     40.215526     80.431052
     -2.377377     41.935502     41.935502     83.871003
     -2.367367     42.972407     42.972407     85.944814
     -2.357357     42.751455     42.751455     85.502909
     -2.347347     40.815028     40.815028     81.630056
     -2.337337     37.071524     37.071524     74.143049
     -2.327327     31.914445     31.914445     63.828890
     -2.317317     26.152192     26.152192     52.304385
     -2.307307     20.784330     20.784330     41.568659
     -2.297297     16.728621     16.728621     33.457241
     -2.287287     14.607924     14.607924     29.215849
     -2.277277     14.655923     14.655923     29.311845
     -2.267267     16.737126     16.737126     33.474253
     -2.257257     20.437576     20.437576     40.875152
     -2.247247     25.178092     25.178092     50.356185
     -2.237237     30.317690     30.317690     60.635381
     -2.227227     35.232734     35.232734     70.465467
     -2.217217     39.369926     39.369926     78.739853
     -2.207207     42.279817     42.279817     84.559635
     -2.197197     43.643770     43.643770     87.287539
     -2.187187     43.307257     43.307257     86.614515
     -2.177177     41.320412     41.320412     82.640825
     -2.167167     37.965464     37.965464     75.930927
     -2.157157     33.735389     33.735389     67.470778
     -2.147147     29.237782     29.237782     58.475565
     -2.137137     25.036825     25.036825     50.073650
     -2.127127     21.492546     21.492546     42.985092
     -2.117117     18.674525     18.674525     37.349050
     -2.107107     16.396270     16.396270     32.792540
     -2.097097     14.352087     14.352087     28.704173
     -2.087087     12.282810     12.282810     24.565620
     -2.077077     10.087243     10.087243     20.174485
     -2.067067      7.835866      7.835866     15.671732
     -2.057057      5.701850      5.701850     11.403700
     -2.047047      3.862927      3.862927      7.725853
     -2.037037      2.427910      2.427910      4.855819
     -2.027027      1.413269      1.413269      2.826538
     -2.017017      0.762975      0.762975      1.525950
     -2.007007      0.387850      0.387850      0.775701
     -1.996997      0.202394      0.202394      0.404789
     -1.986987      0.148783      0.148783      0.297565
     -1.976977      0.208780      0.208780      0.417560
     -1.966967      0.408793      0.408793      0.817585
     -1.956957      0.821362      0.821362      1.642723
     -1.946947      1.561548      1.561548      3.123096
     -1.936937      2.773060      2.773060      5.546121
     -1.926927      4.599745      4.599745      9.199490
     -1.916917      7.143648      7.143648     14.287296
     -1.906907     10.418433     10.418433     20.836865
     -1.896897     14.311689     14.311689     28.623378
     -1.886887     18.568842     18.568842     37.137684
     -1.876877     22.806880     22.806880     45.613760
     -1.866867     26.562086     26.562086     53.124172
     -1.856857     29.372163     29.372163     58.744326
     -1.846847     30.883522     30.883522     61.767043
     -1.836837     30.955595     30.955595     61.911190
     -1.826827     29.716255     29.716255     59.432510
     -1.816817     27.527102     27.527102     55.054203
     -1.806807     24.856055     24.856055     49.712110
     -1.796797     22.109590     22.109590     44.219180
     -1.786787     19.508251     19.508251     39.016502
     -1.776777     17.067700     17.067700     34.135400
     -1.766767     14.684119     14.684119     29.368239
     -1.756757     12.261966     12.261966     24.523931
     -1.746747      9.806183      9.806183     19.612366
     -1.736737      7.436149      7.436149     14.872297
     -1.726727      5.333610      5.333610     10.667221
     -1.716717      3.671811      3.671811      7.343622
     -1.706707      2.569812      2.569812      5.139625
     -1.696697      2.086223      2.086223      4.172446
     -1.686687      2.235787      2.235787      4.471574
     -1.676677      3.000271      3.000271      6.000542
     -1.666667      4.315628      4.315628      8.631257
     -1.656657      6.040898      6.040898     12.081796
     -1.646647      7.935442      7.935442     15.870884
     -1.636637      9.676001      9.676001     19.352002
     -1.626627     10.928168     10.928168     21.856335
