# EIG2DOS: Utility for SIESTA to obtain the electronic density of states
#  E. Artacho, Apr 1999, A. Garcia, Apr 2012
#  Nick R. Papior, Feb 2017
# ------------------------------------------
# Eigenvalues calculated from a non-polarized calculation
# Eigenvalues read from siesta.EIG
# Kpoint weights read from siesta.KP
# Using smearing parameter:   0.0500
# Using 1000 points in the energy range
# Selected bands: 1 to: 2981
# Emin, Emax in file for selected band(s):    -27.0475217    218.3153910
# Nbands, Nspin, Nk   =   2981     1     1
# E_F                 =    -4.2982 eV --> (shifted to ZERO)
# Broadening          =     0.0500 eV
#
#        E            N(up)  (=)   N(down)         Ntot
     -5.000000     45.320397     45.320397     90.640793
     -4.989990     46.997590     46.997590     93.995179
     -4.979980     47.568447     47.568447     95.136895
     -4.969970     47.083072     47.083072     94.166144
     -4.959960     45.633383     45.633383     91.266766
     -4.949950     43.354077     43.354077     86.708154
     -4.939940     40.445844     40.445844     80.891689
     -4.929930     37.206397     37.206397     74.412795
     -4.919920     34.053630     34.053630     68.107261
     -4.909910     31.524722     31.524722     63.049443
     -4.899900     30.230541     30.230541     60.461083
     -4.889890     30.743327     30.743327     61.486654
     -4.879880     33.414119     33.414119     66.828239
     -4.869870     38.162956     38.162956     76.325912
     -4.859860     44.338331     44.338331     88.676662
     -4.849850     50.756980     50.756980    101.513960
     -4.839840     55.975056     55.975056    111.950111
     -4.829830     58.722283     58.722283    117.444566
     -4.819820     58.322043     58.322043    116.644086
     -4.809810     54.902395     54.902395    109.804789
     -4.799800     49.300954     49.300954     98.601908
     -4.789790     42.723423     42.723423     85.446846
     -4.779780     36.331001     36.331001     72.662002
     -4.769770     30.937480     30.937480     61.874959
     -4.759760     26.904819     26.904819     53.809638
     -4.749750     24.211029     24.211029     48.422057
     -4.739740     22.598876     22.598876     45.197752
     -4.729730     21.718462     21.718462     43.436923
     -4.719720     21.220696     21.220696     42.441392
     -4.709710     20.801189     20.801189     41.602378
     -4.699700     20.215652     20.215652     40.431305
     -4.689690     19.291400     19.291400     38.582799
     -4.679680     17.952212     17.952212     35.904425
     -4.669670     16.258973     16.258973     32.517946
     -4.659660     14.450099     14.450099     28.900198
     -4.649650     12.953421     12.953421     25.906842
     -4.639640     12.343039     12.343039     24.686078
     -4.629630     13.230266     13.230266     26.460532
     -4.619620     16.099625     16.099625     32.199250
     -4.609610     21.123575     21.123575     42.247150
     -4.599600     28.011424     28.011424     56.022847
     -4.589590     35.961761     35.961761     71.923522
     -4.579580     43.776771     43.776771     87.553541
     -4.569570     50.146602     50.146602    100.293204
     -4.559560     54.032427     54.032427    108.064854
     -4.549550     55.008519     55.008519    110.017037
     -4.539540     53.414860     53.414860    106.829720
     -4.529530     50.241093     50.241093    100.482187
     -4.519520     46.779725     46.779725     93.559450
     -4.509510     44.189118     44.189118     88.378236
     -4.499499     43.140691     43.140691     86.281382
     -4.489489     43.676225     43.676225     87.352451
     -4.479479     45.301175     45.301175     90.602349
     -4.469469     47.241168     47.241168     94.482336
     -4.459459     48.736210     48.736210     97.472420
     -4.449449     49.256684     49.256684     98.513367
     -4.439439     48.583051     48.583051     97.166102
     -4.429429     46.763655     46.763655     93.527310
     -4.419419     44.016054     44.016054     88.032109
     -4.409409     40.643536     40.643536     81.287072
     -4.399399     37.001041     37.001041     74.002082
     -4.389389     33.491242     33.491242     66.982484
     -4.379379     30.541096     30.541096     61.082193
     -4.369369     28.525571     28.525571     57.051142
     -4.359359     27.656303     27.656303     55.312606
     -4.349349     27.897449     27.897449     55.794898
     -4.339339     28.970859     28.970859     57.941718
     -4.329329     30.464649     30.464649     60.929298
     -4.319319     31.997481     31.997481     63.994963
     -4.309309     33.359007     33.359007     66.718014
     -4.299299     34.563497     34.563497     69.126994
     -4.289289     35.801244     35.801244     71.602488
     -4.279279     37.316695     37.316695     74.633390
     -4.269269     39.262402     39.262402     78.524803
     -4.259259     41.577753     41.577753     83.155507
     -4.249249     43.935574     43.935574     87.871148
     -4.239239     45.790538     45.790538     91.581075
     -4.229229     46.537674     46.537674     93.075348
     -4.219219     45.739596     45.739596     91.479192
     -4.209209     43.328609     43.328609     86.657217
     -4.199199     39.677246     39.677246     79.354493
     -4.189189     35.484563     35.484563     70.969125
     -4.179179     31.523208     31.523208     63.046416
     -4.169169     28.371407     28.371407     56.742815
     -4.159159     26.260120     26.260120     52.520240
     -4.149149     25.096278     25.096278     50.192557
     -4.139139     24.626154     24.626154     49.252307
     -4.129129     24.636644     24.636644     49.273287
     -4.119119     25.085223     25.085223     50.170446
     -4.109109     26.093542     26.093542     52.187084
     -4.099099     27.809469     27.809469     55.618939
     -4.089089     30.210634     30.210634     60.421267
     -4.079079     32.962460     32.962460     65.924919
     -4.069069     35.430598     35.430598     70.861195
     -4.059059     36.874478     36.874478     73.748956
     -4.049049     36.745419     36.745419     73.490839
     -4.039039     34.940578     34.940578     69.881155
     -4.029029     31.876349     31.876349     63.752698
     -4.019019     28.342039     28.342039     56.684079
     -4.009009     25.216258     25.216258     50.432517
     -3.998999     23.194957     23.194957     46.389914
     -3.988989     22.651648     22.651648     45.303295
     -3.978979     23.655082     23.655082     47.310164
     -3.968969     26.078308     26.078308     52.156616
     -3.958959     29.704575     29.704575     59.409151
     -3.948949     34.276405     34.276405     68.552810
     -3.938939     39.500155     39.500155     79.000311
     -3.928929     45.054342     45.054342     90.108683
     -3.918919     50.632301     50.632301    101.264601
     -3.908909     56.001155     56.001155    112.002309
     -3.898899     61.025143     61.025143    122.050286
     -3.888889     65.613244     65.613244    131.226488
     -3.878879     69.602667     69.602667    139.205335
     -3.868869     72.645463     72.645463    145.290925
     -3.858859     74.185324     74.185324    148.370648
     -3.848849     73.577011     73.577011    147.154021
     -3.838839     70.325477     70.325477    140.650953
     -3.828829     64.346487     64.346487    128.692975
     -3.818819     56.120999     56.120999    112.241998
     -3.808809     46.654620     46.654620     93.309241
     -3.798799     37.242609     37.242609     74.485218
     -3.788789     29.129848     29.129848     58.259696
     -3.778779     23.195408     23.195408     46.390815
     -3.768769     19.767459     19.767459     39.534917
     -3.758759     18.610441     18.610441     37.220881
     -3.748749     19.062275     19.062275     38.124551
     -3.738739     20.262012     20.262012     40.524024
     -3.728729     21.400225     21.400225     42.800449
     -3.718719     21.933291     21.933291     43.866581
     -3.708709     21.716401     21.716401     43.432801
     -3.698699     21.025365     21.025365     42.050730
     -3.688689     20.457123     20.457123     40.914246
     -3.678679     20.726561     20.726561     41.453123
     -3.668669     22.410445     22.410445     44.820891
     -3.658659     25.717324     25.717324     51.434647
     -3.648649     30.368287     30.368287     60.736573
     -3.638639     35.643699     35.643699     71.287399
     -3.628629     40.587990     40.587990     81.175980
     -3.618619     44.294837     44.294837     88.589674
     -3.608609     46.158333     46.158333     92.316666
     -3.598599     45.997473     45.997473     91.994947
     -3.588589     44.029361     44.029361     88.058721
     -3.578579     40.736307     40.736307     81.472613
     -3.568569     36.701032     36.701032     73.402063
     -3.558559     32.465906     32.465906     64.931811
     -3.548549     28.436460     28.436460     56.872921
     -3.538539     24.829753     24.829753     49.659507
     -3.528529     21.670451     21.670451     43.340902
     -3.518519     18.840832     18.840832     37.681665
     -3.508509     16.176549     16.176549     32.353099
     -3.498498     13.574101     13.574101     27.148202
     -3.488488     11.062933     11.062933     22.125867
     -3.478478      8.810424      8.810424     17.620849
     -3.468468      7.062265      7.062265     14.124531
     -3.458458      6.049317      6.049317     12.098635
     -3.448448      5.898863      5.898863     11.797725
     -3.438438      6.577552      6.577552     13.155105
     -3.428428      7.880181      7.880181     15.760362
     -3.418418      9.470403      9.470403     18.940806
     -3.408408     10.971123     10.971123     21.942246
     -3.398398     12.085703     12.085703     24.171406
     -3.388388     12.710238     12.710238     25.420476
     -3.378378     12.988472     12.988472     25.976943
     -3.368368     13.278413     13.278413     26.556826
     -3.358358     14.038569     14.038569     28.077139
     -3.348348     15.678283     15.678283     31.356567
     -3.338338     18.426606     18.426606     36.853211
     -3.328328     22.253655     22.253655     44.507310
     -3.318318     26.848130     26.848130     53.696261
     -3.308308     31.641206     31.641206     63.282413
     -3.298298     35.877231     35.877231     71.754462
     -3.288288     38.744219     38.744219     77.488438
     -3.278278     39.563354     39.563354     79.126708
     -3.268268     37.993300     37.993300     75.986600
     -3.258258     34.165320     34.165320     68.330639
     -3.248248     28.672102     28.672102     57.344203
     -3.238238     22.396925     22.396925     44.793849
     -3.228228     16.252208     16.252208     32.504415
     -3.218218     10.940661     10.940661     21.881323
     -3.208208      6.830161      6.830161     13.660322
     -3.198198      3.966130      3.966130      7.932259
     -3.188188      2.180673      2.180673      4.361345
     -3.178178      1.231274      1.231274      2.462547
     -3.168168      0.915318      0.915318      1.830637
     -3.158158      1.137256      1.137256      2.274512
     -3.148148      1.928787      1.928787      3.857573
     -3.138138      3.429875      3.429875      6.859750
     -3.128128      5.835791      5.835791     11.671583
     -3.118118      9.314876      9.314876     18.629752
     -3.108108     13.910647     13.910647     27.821294
     -3.098098     19.457034     19.457034     38.914067
     -3.088088     25.544667     25.544667     51.089334
     -3.078078     31.566388     31.566388     63.132776
     -3.068068     36.839167     36.839167     73.678334
     -3.058058     40.761728     40.761728     81.523456
     -3.048048     42.946581     42.946581     85.893162
     -3.038038     43.278735     43.278735     86.557470
     -3.028028     41.894781     41.894781     83.789561
     -3.018018     39.117227     39.117227     78.234453
     -3.008008     35.390635     35.390635     70.781269
     -2.997998     31.242208     31.242208     62.484416
     -2.987988     27.253041     27.253041     54.506082
     -2.977978     24.009652     24.009652     48.019304
     -2.967968     22.022097     22.022097     44.044194
     -2.957958     21.628369     21.628369     43.256739
     -2.947948     22.924288     22.924288     45.848575
     -2.937938     25.747163     25.747163     51.494325
     -2.927928     29.711507     29.711507     59.423015
     -2.917918     34.273214     34.273214     68.546429
     -2.907908     38.801991     38.801991     77.603982
     -2.897898     42.661521     42.661521     85.323043
     -2.887888     45.307465     45.307465     90.614930
     -2.877878     46.398673     46.398673     92.797346
     -2.867868     45.887086     45.887086     91.774173
     -2.857858     44.035618     44.035618     88.071237
     -2.847848     41.333069     41.333069     82.666138
     -2.837838     38.325181     38.325181     76.650362
     -2.827828     35.430546     35.430546     70.861092
     -2.817818     32.825345     32.825345     65.650689
     -2.807808     30.449063     30.449063     60.898126
     -2.797798     28.120929     28.120929     56.241858
     -2.787788     25.699218     25.699218     51.398437
     -2.777778     23.195502     23.195502     46.391005
     -2.767768     20.784783     20.784783     41.569565
     -2.757758     18.714030     18.714030     37.428059
     -2.747748     17.170767     17.170767     34.341535
     -2.737738     16.195290     16.195290     32.390579
     -2.727728     15.690893     15.690893     31.381787
     -2.717718     15.522758     15.522758     31.045516
     -2.707708     15.637073     15.637073     31.274146
     -2.697698     16.116276     16.116276     32.232552
     -2.687688     17.126329     17.126329     34.252657
     -2.677678     18.784023     18.784023     37.568046
     -2.667668     21.029712     21.029712     42.059424
     -2.657658     23.593854     23.593854     47.187709
     -2.647648     26.089080     26.089080     52.178160
     -2.637638     28.178159     28.178159     56.356319
     -2.627628     29.716999     29.716999     59.433998
     -2.617618     30.787300     30.787300     61.574599
     -2.607608     31.606487     31.606487     63.212973
     -2.597598     32.380851     32.380851     64.761702
     -2.587588     33.194930     33.194930     66.389861
     -2.577578     33.989700     33.989700     67.979400
     -2.567568     34.611957     34.611957     69.223914
     -2.557558     34.876706     34.876706     69.753412
     -2.547548     34.602112     34.602112     69.204223
     -2.537538     33.626808     33.626808     67.253616
     -2.527528     31.848199     31.848199     63.696399
     -2.517518     29.298129     29.298129     58.596258
     -2.507508     26.220523     26.220523     52.441045
     -2.497497     23.085054     23.085054     46.170108
     -2.487487     20.493788     20.493788     40.987575
     -2.477477     19.000423     19.000423     38.000846
     -2.467467     18.919516     18.919516     37.839031
     -2.457457     20.217288     20.217288     40.434576
     -2.447447     22.539155     22.539155     45.078310
     -2.437437     25.363923     25.363923     50.727847
     -2.427427     28.214435     28.214435     56.428870
     -2.417417     30.827216     30.827216     61.654433
     -2.407407     33.201916     33.201916     66.403832
     -2.397397     35.507658     35.507658     71.015316
     -2.387387     37.892818     37.892818     75.785637
     -2.377377     40.294518     40.294518     80.589035
     -2.367367     42.349588     42.349588     84.699177
     -2.357357     43.465030     43.465030     86.930060
     -2.347347     43.031001     43.031001     86.062001
     -2.337337     40.687630     40.687630     81.375260
     -2.327327     36.524938     36.524938     73.049875
     -2.317317     31.122576     31.122576     62.245151
     -2.307307     25.410754     25.410754     50.821508
     -2.297297     20.414698     20.414698     40.829397
     -2.287287     16.987917     16.987917     33.975833
     -2.277277     15.626654     15.626654     31.253307
     -2.267267     16.407498     16.407498     32.814996
     -2.257257     19.037514     19.037514     38.075027
     -2.247247     22.975759     22.975759     45.951518
     -2.237237     27.578096     27.578096     55.156191
     -2.227227     32.223230     32.223230     64.446460
     -2.217217     36.390612     36.390612     72.781224
     -2.207207     39.681267     39.681267     79.362534
     -2.197197     41.799483     41.799483     83.598966
     -2.187187     42.534009     42.534009     85.068018
     -2.177177     41.774558     41.774558     83.549115
     -2.167167     39.567328     39.567328     79.134656
     -2.157157     36.170221     36.170221     72.340442
     -2.147147     32.047976     32.047976     64.095952
     -2.137137     27.772517     27.772517     55.545033
     -2.127127     23.853807     23.853807     47.707614
     -2.117117     20.580275     20.580275     41.160550
     -2.107107     17.953641     17.953641     35.907282
     -2.097097     15.752438     15.752438     31.504877
     -2.087087     13.684997     13.684997     27.369993
     -2.077077     11.545879     11.545879     23.091758
     -2.067067      9.298346      9.298346     18.596692
     -2.057057      7.057612      7.057612     14.115224
     -2.047047      5.006585      5.006585     10.013170
     -2.037037      3.302318      3.302318      6.604636
     -2.027027      2.019456      2.019456      4.038913
     -2.017017      1.144244      1.144244      2.288488
     -2.007007      0.604270      0.604270      1.208540
     -1.996997      0.309101      0.309101      0.618202
     -1.986987      0.183419      0.183419      0.366837
     -1.976977      0.186603      0.186603      0.373207
     -1.966967      0.321315      0.321315      0.642630
     -1.956957      0.635048      0.635048      1.270096
     -1.946947      1.214934      1.214934      2.429867
     -1.936937      2.171873      2.171873      4.343745
     -1.926927      3.609997      3.609997      7.219994
     -1.916917      5.583545      5.583545     11.167090
     -1.906907      8.053215      8.053215     16.106430
     -1.896897     10.861298     10.861298     21.722596
     -1.886887     13.742422     13.742422     27.484844
     -1.876877     16.373299     16.373299     32.746598
     -1.866867     18.447663     18.447663     36.895327
     -1.856857     19.752019     19.752019     39.504038
     -1.846847     20.218754     20.218754     40.437508
     -1.836837     19.941313     19.941313     39.882627
     -1.826827     19.144873     19.144873     38.289746
     -1.816817     18.114921     18.114921     36.229842
     -1.806807     17.100006     17.100006     34.200012
     -1.796797     16.222423     16.222423     32.444845
     -1.786787     15.438888     15.438888     30.877776
     -1.776777     14.577539     14.577539     29.155079
     -1.766767     13.439480     13.439480     26.878960
     -1.756757     11.915596     11.915596     23.831192
     -1.746747     10.060081     10.060081     20.120162
     -1.736737      8.089034      8.089034     16.178069
     -1.726727      6.315841      6.315841     12.631683
     -1.716717      5.063984      5.063984     10.127969
     -1.706707      4.595670      4.595670      9.191340
     -1.696697      5.070003      5.070003     10.140006
     -1.686687      6.520987      6.520987     13.041975
     -1.676677      8.841191      8.841191     17.682382
     -1.666667     11.770641     11.770641     23.541282
     -1.656657     14.906891     14.906891     29.813782
     -1.646647     17.754995     17.754995     35.509990
     -1.636637     19.821033     19.821033     39.642066
     -1.626627     20.729298     20.729298     41.458597
