# EIG2DOS: Utility for SIESTA to obtain the electronic density of states
#  E. Artacho, Apr 1999, A. Garcia, Apr 2012
#  Nick R. Papior, Feb 2017
# ------------------------------------------
# Eigenvalues calculated from a non-polarized calculation
# Eigenvalues read from siesta.EIG
# Kpoint weights read from siesta.KP
# Using smearing parameter:   0.0500
# Using 1000 points in the energy range
# Selected bands: 1 to: 2981
# Emin, Emax in file for selected band(s):    -27.0336275    218.3144540
# Nbands, Nspin, Nk   =   2981     1     1
# E_F                 =    -4.2996 eV --> (shifted to ZERO)
# Broadening          =     0.0500 eV
#
#        E            N(up)  (=)   N(down)         Ntot
     -5.000000     44.819776     44.819776     89.639553
     -4.989990     48.918823     48.918823     97.837646
     -4.979980     51.471594     51.471594    102.943189
     -4.969970     52.183137     52.183137    104.366274
     -4.959960     51.052364     51.052364    102.104728
     -4.949950     48.358836     48.358836     96.717673
     -4.939940     44.585790     44.585790     89.171580
     -4.929930     40.326117     40.326117     80.652234
     -4.919920     36.213975     36.213975     72.427949
     -4.909910     32.892538     32.892538     65.785076
     -4.899900     30.989150     30.989150     61.978300
     -4.889890     31.048485     31.048485     62.096969
     -4.879880     33.392216     33.392216     66.784433
     -4.869870     37.930797     37.930797     75.861595
     -4.859860     44.020165     44.020165     88.040329
     -4.849850     50.482550     50.482550    100.965100
     -4.839840     55.857300     55.857300    111.714599
     -4.829830     58.827295     58.827295    117.654591
     -4.819820     58.649553     58.649553    117.299106
     -4.809810     55.389190     55.389190    110.778380
     -4.799800     49.846572     49.846572     99.693145
     -4.789790     43.225787     43.225787     86.451575
     -4.779780     36.716500     36.716500     73.433000
     -4.769770     31.175669     31.175669     62.351337
     -4.759760     27.006935     27.006935     54.013870
     -4.749750     24.217739     24.217739     48.435478
     -4.739740     22.563910     22.563910     45.127820
     -4.729730     21.692971     21.692971     43.385943
     -4.719720     21.241305     21.241305     42.482610
     -4.709710     20.883651     20.883651     41.767303
     -4.699700     20.354946     20.354946     40.709891
     -4.689690     19.467088     19.467088     38.934176
     -4.679680     18.135882     18.135882     36.271765
     -4.669670     16.419955     16.419955     32.839910
     -4.659660     14.557331     14.557331     29.114661
     -4.649650     12.974195     12.974195     25.948390
     -4.639640     12.241901     12.241901     24.483801
     -4.629630     12.972098     12.972098     25.944196
     -4.619620     15.659440     15.659440     31.318880
     -4.609610     20.501859     20.501859     41.003719
     -4.599600     27.249179     27.249179     54.498358
     -4.589590     35.146048     35.146048     70.292095
     -4.579580     43.028678     43.028678     86.057355
     -4.569570     49.590527     49.590527     99.181054
     -4.559560     53.755963     53.755963    107.511926
     -4.549550     55.029935     55.029935    110.059871
     -4.539540     53.674241     53.674241    107.348482
     -4.529530     50.620560     50.620560    101.241119
     -4.519520     47.143310     47.143310     94.286621
     -4.509510     44.422395     44.422395     88.844789
     -4.499499     43.170207     43.170207     86.340413
     -4.489489     43.459165     43.459165     86.918329
     -4.479479     44.791140     44.791140     89.582280
     -4.469469     46.349963     46.349963     92.699927
     -4.459459     47.318539     47.318539     94.637078
     -4.449449     47.140867     47.140867     94.281735
     -4.439439     45.653798     45.653798     91.307596
     -4.429429     43.074531     43.074531     86.149062
     -4.419419     39.880287     39.880287     79.760573
     -4.409409     36.641337     36.641337     73.282673
     -4.399399     33.866504     33.866504     67.733009
     -4.389389     31.899557     31.899557     63.799114
     -4.379379     30.878038     30.878038     61.756076
     -4.369369     30.744860     30.744860     61.489720
     -4.359359     31.294199     31.294199     62.588399
     -4.349349     32.235778     32.235778     64.471556
     -4.339339     33.267949     33.267949     66.535897
     -4.329329     34.151635     34.151635     68.303270
     -4.319319     34.772285     34.772285     69.544570
     -4.309309     35.171933     35.171933     70.343867
     -4.299299     35.536413     35.536413     71.072826
     -4.289289     36.134860     36.134860     72.269719
     -4.279279     37.223072     37.223072     74.446144
     -4.269269     38.932668     38.932668     77.865336
     -4.259259     41.175250     41.175250     82.350501
     -4.249249     43.598130     43.598130     87.196260
     -4.239239     45.629137     45.629137     91.258274
     -4.229229     46.627082     46.627082     93.254163
     -4.219219     46.104941     46.104941     92.209882
     -4.209209     43.937071     43.937071     87.874141
     -4.199199     40.443343     40.443343     80.886686
     -4.189189     36.291294     36.291294     72.582588
     -4.179179     32.252937     32.252937     64.505874
     -4.169169     28.935025     28.935025     57.870051
     -4.159159     26.613737     26.613737     53.227473
     -4.149149     25.240590     25.240590     50.481180
     -4.139139     24.591186     24.591186     49.182372
     -4.129129     24.460363     24.460363     48.920727
     -4.119119     24.796648     24.796648     49.593296
     -4.109109     25.708672     25.708672     51.417344
     -4.099099     27.341941     27.341941     54.683883
     -4.089089     29.690457     29.690457     59.380914
     -4.079079     32.449918     32.449918     64.899836
     -4.069069     35.013104     35.013104     70.026207
     -4.059059     36.643169     36.643169     73.286338
     -4.049049     36.761026     36.761026     73.522051
     -4.039039     35.206206     35.206206     70.412411
     -4.029029     32.332164     32.332164     64.664327
     -4.019019     28.884684     28.884684     57.769367
     -4.009009     25.732340     25.732340     51.464680
     -3.998999     23.591981     23.591981     47.183962
     -3.988989     22.874304     22.874304     45.748609
     -3.978979     23.685203     23.685203     47.370407
     -3.968969     25.925235     25.925235     51.850471
     -3.958959     29.394347     29.394347     58.788694
     -3.948949     33.844013     33.844013     67.688026
     -3.938939     38.984120     38.984120     77.968239
     -3.928929     44.491204     44.491204     88.982408
     -3.918919     50.050978     50.050978    100.101956
     -3.908909     55.420330     55.420330    110.840660
     -3.898899     60.457387     60.457387    120.914775
     -3.888889     65.076030     65.076030    130.152061
     -3.878879     69.131000     69.131000    138.262000
     -3.868869     72.297463     72.297463    144.594926
     -3.858859     74.033871     74.033871    148.067743
     -3.848849     73.687355     73.687355    147.374710
     -3.838839     70.727111     70.727111    141.454222
     -3.828829     65.012362     65.012362    130.024725
     -3.818819     56.965076     56.965076    113.930151
     -3.808809     47.550516     47.550516     95.101032
     -3.798799     38.056442     38.056442     76.112885
     -3.788789     29.754705     29.754705     59.509410
     -3.778779     23.575621     23.575621     47.151242
     -3.768769     19.906453     19.906453     39.812905
     -3.758759     18.562360     18.562360     37.124720
     -3.748749     18.912028     18.912028     37.824057
     -3.738739     20.100016     20.100016     40.200031
     -3.728729     21.298071     21.298071     42.596142
     -3.718719     21.925746     21.925746     43.851492
     -3.708709     21.793865     21.793865     43.587731
     -3.698699     21.138912     21.138912     42.277823
     -3.688689     20.535316     20.535316     41.070633
     -3.678679     20.699847     20.699847     41.399695
     -3.668669     22.235894     22.235894     44.471788
     -3.658659     25.395317     25.395317     50.790633
     -3.648649     29.944713     29.944713     59.889425
     -3.638639     35.196415     35.196415     70.392830
     -3.628629     40.202919     40.202919     80.405839
     -3.618619     44.041539     44.041539     88.083077
     -3.608609     46.074356     46.074356     92.148712
     -3.598599     46.085484     46.085484     92.170968
     -3.588589     44.264463     44.264463     88.528926
     -3.578579     41.077489     41.077489     82.154979
     -3.568569     37.101772     37.101772     74.203544
     -3.558559     32.882392     32.882392     65.764784
     -3.548549     28.834031     28.834031     57.668062
     -3.538539     25.187572     25.187572     50.375144
     -3.528529     21.982849     21.982849     43.965697
     -3.518519     19.113761     19.113761     38.227521
     -3.508509     16.419897     16.419897     32.839795
     -3.498498     13.793291     13.793291     27.586581
     -3.488488     11.253857     11.253857     22.507713
     -3.478478      8.959869      8.959869     17.919738
     -3.468468      7.153096      7.153096     14.306192
     -3.458458      6.067863      6.067863     12.135725
     -3.448448      5.841784      5.841784     11.683569
     -3.438438      6.456144      6.456144     12.912287
     -3.428428      7.720558      7.720558     15.441115
     -3.418418      9.308553      9.308553     18.617107
     -3.408408     10.843055     10.843055     21.686110
     -3.398398     12.015153     12.015153     24.030306
     -3.388388     12.698382     12.698382     25.396765
     -3.378378     13.010088     13.010088     26.020175
     -3.368368     13.286445     13.286445     26.572890
     -3.358358     13.975587     13.975587     27.951174
     -3.348348     15.491215     15.491215     30.982431
     -3.338338     18.081456     18.081456     36.162912
     -3.328328     21.748316     21.748316     43.496632
     -3.318318     26.221536     26.221536     52.443072
     -3.308308     30.975228     30.975228     61.950456
     -3.298298     35.286323     35.286323     70.572646
     -3.288288     38.350362     38.350362     76.700724
     -3.278278     39.461206     39.461206     78.922412
     -3.268268     38.218446     38.218446     76.436892
     -3.258258     34.680568     34.680568     69.361135
     -3.248248     29.379558     29.379558     58.759116
     -3.238238     23.170805     23.170805     46.341609
     -3.228228     16.977217     16.977217     33.954434
     -3.218218     11.539749     11.539749     23.079499
     -3.208208      7.273154      7.273154     14.546308
     -3.198198      4.261152      4.261152      8.522305
     -3.188188      2.356895      2.356895      4.713789
     -3.178178      1.321916      1.321916      2.643832
     -3.168168      0.946002      0.946002      1.892004
     -3.158158      1.120291      1.120291      2.240582
     -3.148148      1.861348      1.861348      3.722696
     -3.138138      3.293490      3.293490      6.586980
     -3.128128      5.595287      5.595287     11.190574
     -3.118118      8.916086      8.916086     17.832171
     -3.108108     13.277805     13.277805     26.555611
     -3.098098     18.493360     18.493360     36.986720
     -3.088088     24.142760     24.142760     48.285521
     -3.078078     29.636219     29.636219     59.272438
     -3.068068     34.356424     34.356424     68.712848
     -3.058058     37.825814     37.825814     75.651627
     -3.048048     39.820199     39.820199     79.640398
     -3.038038     40.372523     40.372523     80.745046
     -3.028028     39.674586     39.674586     79.349171
     -3.018018     37.949994     37.949994     75.899988
     -3.008008     35.388973     35.388973     70.777947
     -2.997998     32.187179     32.187179     64.374359
     -2.987988     28.649277     28.649277     57.298554
     -2.977978     25.264588     25.264588     50.529176
     -2.967968     22.676008     22.676008     45.352016
     -2.957958     21.532009     21.532009     43.064017
     -2.947948     22.283819     22.283819     44.567639
     -2.937938     25.019417     25.019417     50.038834
     -2.927928     29.402975     29.402975     58.805951
     -2.917918     34.737693     34.737693     69.475386
     -2.907908     40.124313     40.124313     80.248626
     -2.897898     44.664834     44.664834     89.329667
     -2.887888     47.658799     47.658799     95.317597
     -2.877878     48.747298     48.747298     97.494597
     -2.867868     47.970744     47.970744     95.941487
     -2.857858     45.722595     45.722595     91.445190
     -2.847848     42.607125     42.607125     85.214250
     -2.837838     39.242373     39.242373     78.484746
     -2.827828     36.076022     36.076022     72.152044
     -2.817818     33.283934     33.283934     66.567868
     -2.807808     30.789886     30.789886     61.579773
     -2.797798     28.390854     28.390854     56.781708
     -2.787788     25.921618     25.921618     51.843236
     -2.777778     23.373952     23.373952     46.747904
     -2.767768     20.911784     20.911784     41.823567
     -2.757758     18.782311     18.782311     37.564621
     -2.747748     17.181958     17.181958     34.363916
     -2.737738     16.160905     16.160905     32.321809
     -2.727728     15.624579     15.624579     31.249158
     -2.717718     15.428557     15.428557     30.857113
     -2.707708     15.502151     15.502151     31.004301
     -2.697698     15.915018     15.915018     31.830037
     -2.687688     16.836027     16.836027     33.672054
     -2.677678     18.404246     18.404246     36.808491
     -2.667668     20.593293     20.593293     41.186585
     -2.657658     23.160789     23.160789     46.321578
     -2.647648     25.724297     25.724297     51.448595
     -2.637638     27.924400     27.924400     55.848800
     -2.627628     29.577823     29.577823     59.155647
     -2.617618     30.729488     30.729488     61.458975
     -2.607608     31.579310     31.579310     63.158621
     -2.597598     32.340201     32.340201     64.680402
     -2.587588     33.119559     33.119559     66.239118
     -2.577578     33.884494     33.884494     67.768988
     -2.567568     34.502127     34.502127     69.004254
     -2.557558     34.799819     34.799819     69.599638
     -2.547548     34.600901     34.600901     69.201802
     -2.537538     33.740319     33.740319     67.480638
     -2.527528     32.098487     32.098487     64.196974
     -2.517518     29.675216     29.675216     59.350431
     -2.507508     26.674132     26.674132     53.348264
     -2.497497     23.531444     23.531444     47.062887
     -2.487487     20.838715     20.838715     41.677429
     -2.477477     19.169806     19.169806     38.339612
     -2.467467     18.884265     18.884265     37.768529
     -2.457457     20.001183     20.001183     40.002366
     -2.447447     22.206750     22.206750     44.413500
     -2.437437     24.994625     24.994625     49.989250
     -2.427427     27.874637     27.874637     55.749274
     -2.417417     30.552279     30.552279     61.104558
     -2.407407     32.994369     32.994369     65.988737
     -2.397397     35.350213     35.350213     70.700426
     -2.387387     37.768467     37.768467     75.536934
     -2.377377     40.203816     40.203816     80.407631
     -2.367367     42.317379     42.317379     84.634759
     -2.357357     43.533663     43.533663     87.067326
     -2.347347     43.242670     43.242670     86.485340
     -2.337337     41.063139     41.063139     82.126278
     -2.327327     37.048324     37.048324     74.096648
     -2.317317     31.739078     31.739078     63.478157
     -2.307307     26.039659     26.039659     52.079319
     -2.297297     20.971476     20.971476     41.942951
     -2.287287     17.405898     17.405898     34.811796
     -2.277277     15.869738     15.869738     31.739476
     -2.267267     16.470774     16.470774     32.941549
     -2.257257     18.938705     18.938705     37.877411
     -2.247247     22.743763     22.743763     45.487527
     -2.237237     27.244639     27.244639     54.489279
     -2.227227     31.820727     31.820727     63.641453
     -2.217217     35.955378     35.955378     71.910756
     -2.207207     39.257963     39.257963     78.515925
     -2.197197     41.441395     41.441395     82.882790
     -2.187187     42.295567     42.295567     84.591133
     -2.177177     41.696918     41.696918     83.393835
     -2.167167     39.662976     39.662976     79.325953
     -2.157157     36.415102     36.415102     72.830205
     -2.147147     32.387295     32.387295     64.774589
     -2.137137     28.139539     28.139539     56.279078
     -2.127127     24.193521     24.193521     48.387041
     -2.117117     20.866486     20.866486     41.732971
     -2.107107     18.191523     18.191523     36.383046
     -2.097097     15.966715     15.966715     31.933431
     -2.087087     13.901579     13.901579     27.803158
     -2.077077     11.777211     11.777211     23.554421
     -2.067067      9.538961      9.538961     19.077922
     -2.057057      7.289693      7.289693     14.579386
     -2.047047      5.210175      5.210175     10.420350
     -2.037037      3.463937      3.463937      6.927874
     -2.027027      2.135581      2.135581      4.271163
     -2.017017      1.219792      1.219792      2.439585
     -2.007007      0.648474      0.648474      1.296947
     -1.996997      0.331307      0.331307      0.662615
     -1.986987      0.190195      0.190195      0.380389
     -1.976977      0.180260      0.180260      0.360521
     -1.966967      0.299412      0.299412      0.598823
     -1.956957      0.590602      0.590602      1.181203
     -1.946947      1.137587      1.137587      2.275174
     -1.936937      2.050559      2.050559      4.101118
     -1.926927      3.437281      3.437281      6.874561
     -1.916917      5.360758      5.360758     10.721517
     -1.906907      7.794300      7.794300     15.588600
     -1.896897     10.592865     10.592865     21.185731
     -1.886887     13.498664     13.498664     26.997328
     -1.876877     16.186784     16.186784     32.373567
     -1.866867     18.339295     18.339295     36.678590
     -1.856857     19.724179     19.724179     39.448357
     -1.846847     20.254370     20.254370     40.508739
     -1.836837     20.009327     20.009327     40.018654
     -1.826827     19.210479     19.210479     38.420959
     -1.816817     18.151565     18.151565     36.303130
     -1.806807     17.099267     17.099267     34.198535
     -1.796797     16.197783     16.197783     32.395566
     -1.786787     15.420722     15.420722     30.841445
     -1.776777     14.599925     14.599925     29.199850
     -1.766767     13.523230     13.523230     27.046461
     -1.756757     12.053723     12.053723     24.107445
     -1.746747     10.210148     10.210148     20.420296
     -1.736737      8.172893      8.172893     16.345786
     -1.726727      6.224721      6.224721     12.449442
     -1.716717      4.668581      4.668581      9.337163
     -1.706707      3.765425      3.765425      7.530851
     -1.696697      3.707765      3.707765      7.415530
     -1.686687      4.613055      4.613055      9.226110
     -1.676677      6.508291      6.508291     13.016582
     -1.666667      9.291337      9.291337     18.582675
     -1.656657     12.684723     12.684723     25.369445
     -1.646647     16.222005     16.222005     32.444010
     -1.636637     19.305656     19.305656     38.611311
     -1.626627     21.343859     21.343859     42.687719
