# EIG2DOS: Utility for SIESTA to obtain the electronic density of states
#  E. Artacho, Apr 1999, A. Garcia, Apr 2012
#  Nick R. Papior, Feb 2017
# ------------------------------------------
# Eigenvalues calculated from a non-polarized calculation
# Eigenvalues read from siesta.EIG
# Kpoint weights read from siesta.KP
# Using smearing parameter:   0.0500
# Using 1000 points in the energy range
# Selected bands: 1 to: 2981
# Emin, Emax in file for selected band(s):    -27.2288953    218.3943380
# Nbands, Nspin, Nk   =   2981     1     1
# E_F                 =    -4.1997 eV --> (shifted to ZERO)
# Broadening          =     0.0500 eV
#
#        E            N(up)  (=)   N(down)         Ntot
     -5.000000     31.040691     31.040691     62.081381
     -4.989990     36.151241     36.151241     72.302482
     -4.979980     41.085277     41.085277     82.170554
     -4.969970     44.999989     44.999989     89.999978
     -4.959960     47.150845     47.150845     94.301691
     -4.949950     47.138607     47.138607     94.277213
     -4.939940     45.048039     45.048039     90.096078
     -4.929930     41.434868     41.434868     82.869735
     -4.919920     37.188034     37.188034     74.376068
     -4.909910     33.333268     33.333268     66.666536
     -4.899900     30.834293     30.834293     61.668587
     -4.889890     30.412914     30.412914     60.825829
     -4.879880     32.390058     32.390058     64.780117
     -4.869870     36.566936     36.566936     73.133872
     -4.859860     42.198066     42.198066     84.396132
     -4.849850     48.112716     48.112716     96.225432
     -4.839840     52.993413     52.993413    105.986827
     -4.829830     55.739198     55.739198    111.478396
     -4.819820     55.780122     55.780122    111.560244
     -4.809810     53.214500     53.214500    106.429000
     -4.799800     48.716161     48.716161     97.432322
     -4.789790     43.263547     43.263547     86.527093
     -4.779780     37.815945     37.815945     75.631890
     -4.769770     33.066561     33.066561     66.133123
     -4.759760     29.344088     29.344088     58.688177
     -4.749750     26.655721     26.655721     53.311443
     -4.739740     24.810068     24.810068     49.620135
     -4.729730     23.548117     23.548117     47.096233
     -4.719720     22.634888     22.634888     45.269776
     -4.709710     21.900220     21.900220     43.800441
     -4.699700     21.244577     21.244577     42.489153
     -4.689690     20.635125     20.635125     41.270250
     -4.679680     20.108860     20.108860     40.217719
     -4.669670     19.781900     19.781900     39.563801
     -4.659660     19.851215     19.851215     39.702429
     -4.649650     20.575875     20.575875     41.151750
     -4.639640     22.235121     22.235121     44.470242
     -4.629630     25.066890     25.066890     50.133780
     -4.619620     29.188539     29.188539     58.377078
     -4.609610     34.503558     34.503558     69.007117
     -4.599600     40.618414     40.618414     81.236829
     -4.589590     46.823540     46.823540     93.647080
     -4.579580     52.198074     52.198074    104.396147
     -4.569570     55.851336     55.851336    111.702671
     -4.559560     57.229513     57.229513    114.459026
     -4.549550     56.349956     56.349956    112.699911
     -4.539540     53.833598     53.833598    107.667196
     -4.529530     50.695351     50.695351    101.390701
     -4.519520     47.972635     47.972635     95.945270
     -4.509510     46.352693     46.352693     92.705386
     -4.499499     45.956523     45.956523     91.913046
     -4.489489     46.358464     46.358464     92.716928
     -4.479479     46.811568     46.811568     93.623137
     -4.469469     46.564624     46.564624     93.129247
     -4.459459     45.132929     45.132929     90.265858
     -4.449449     42.425088     42.425088     84.850176
     -4.439439     38.705974     38.705974     77.411948
     -4.429429     34.450684     34.450684     68.901368
     -4.419419     30.179806     30.179806     60.359613
     -4.409409     26.349302     26.349302     52.698604
     -4.399399     23.314730     23.314730     46.629461
     -4.389389     21.336582     21.336582     42.673164
     -4.379379     20.576325     20.576325     41.152649
     -4.369369     21.060126     21.060126     42.120252
     -4.359359     22.634165     22.634165     45.268330
     -4.349349     24.962334     24.962334     49.924668
     -4.339339     27.600881     27.600881     55.201762
     -4.329329     30.136406     30.136406     60.272813
     -4.319319     32.328546     32.328546     64.657093
     -4.309309     34.187294     34.187294     68.374587
     -4.299299     35.942235     35.942235     71.884470
     -4.289289     37.908458     37.908458     75.816916
     -4.279279     40.297617     40.297617     80.595235
     -4.269269     43.048316     43.048316     86.096633
     -4.259259     45.752240     45.752240     91.504481
     -4.249249     47.727567     47.727567     95.455134
     -4.239239     48.237438     48.237438     96.474876
     -4.229229     46.781698     46.781698     93.563396
     -4.219219     43.338291     43.338291     86.676581
     -4.209209     38.434965     38.434965     76.869931
     -4.199199     33.003436     33.003436     66.006872
     -4.189189     28.073419     28.073419     56.146838
     -4.179179     24.442507     24.442507     48.885014
     -4.169169     22.463995     22.463995     44.927990
     -4.159159     22.029090     22.029090     44.058180
     -4.149149     22.724449     22.724449     45.448898
     -4.139139     24.071974     24.071974     48.143949
     -4.129129     25.734727     25.734727     51.469455
     -4.119119     27.600574     27.600574     55.201148
     -4.109109     29.715701     29.715701     59.431402
     -4.099099     32.110624     32.110624     64.221247
     -4.089089     34.617100     34.617100     69.234201
     -4.079079     36.789047     36.789047     73.578094
     -4.069069     37.996479     37.996479     75.992958
     -4.059059     37.669825     37.669825     75.339651
     -4.049049     35.579917     35.579917     71.159834
     -4.039039     32.006036     32.006036     64.012073
     -4.029029     27.698095     27.698095     55.396191
     -4.019019     23.648708     23.648708     47.297415
     -4.009009     20.787203     20.787203     41.574407
     -3.998999     19.733240     19.733240     39.466480
     -3.988989     20.696509     20.696509     41.393019
     -3.978979     23.523730     23.523730     47.047460
     -3.968969     27.829851     27.829851     55.659703
     -3.958959     33.137616     33.137616     66.275233
     -3.948949     38.980284     38.980284     77.960568
     -3.938939     44.962978     44.962978     89.925957
     -3.928929     50.797148     50.797148    101.594297
     -3.918919     56.312751     56.312751    112.625502
     -3.908909     61.434028     61.434028    122.868057
     -3.898899     66.105195     66.105195    132.210391
     -3.888889     70.181160     70.181160    140.362319
     -3.878879     73.335899     73.335899    146.671797
     -3.868869     75.054136     75.054136    150.108272
     -3.858859     74.742169     74.742169    149.484338
     -3.848849     71.933494     71.933494    143.866988
     -3.838839     66.509170     66.509170    133.018340
     -3.828829     58.834972     58.834972    117.669943
     -3.818819     49.748013     49.748013     99.496026
     -3.808809     40.387856     40.387856     80.775712
     -3.798799     31.929036     31.929036     63.858073
     -3.788789     25.305195     25.305195     50.610390
     -3.778779     21.009570     21.009570     42.019141
     -3.768769     19.022291     19.022291     38.044581
     -3.758759     18.871438     18.871438     37.742876
     -3.748749     19.799317     19.799317     39.598634
     -3.738739     20.984989     20.984989     41.969978
     -3.728729     21.767792     21.767792     43.535585
     -3.718719     21.820055     21.820055     43.640111
     -3.708709     21.227783     21.227783     42.455566
     -3.698699     20.455290     20.455290     40.910581
     -3.688689     20.194377     20.194377     40.388754
     -3.678679     21.129845     21.129845     42.259691
     -3.668669     23.685338     23.685338     47.370677
     -3.658659     27.833854     27.833854     55.667709
     -3.648649     33.049635     33.049635     66.099269
     -3.638639     38.433491     38.433491     76.866983
     -3.628629     42.973511     42.973511     85.947022
     -3.618619     45.841137     45.841137     91.682274
     -3.608609     46.606856     46.606856     93.213711
     -3.598599     45.303142     45.303142     90.606285
     -3.588589     42.338566     42.338566     84.677132
     -3.578579     38.327454     38.327454     76.654909
     -3.568569     33.911796     33.911796     67.823592
     -3.558559     29.623555     29.623555     59.247110
     -3.548549     25.800987     25.800987     51.601974
     -3.538539     22.558424     22.558424     45.116848
     -3.528529     19.811645     19.811645     39.623291
     -3.518519     17.358298     17.358298     34.716597
     -3.508509     14.993487     14.993487     29.986974
     -3.498498     12.617873     12.617873     25.235745
     -3.488488     10.292719     10.292719     20.585438
     -3.478478      8.220902      8.220902     16.441804
     -3.468468      6.668653      6.668653     13.337305
     -3.458458      5.865473      5.865473     11.730946
     -3.448448      5.919140      5.919140     11.838279
     -3.438438      6.768645      6.768645     13.537291
     -3.428428      8.185531      8.185531     16.371063
     -3.418418      9.827589      9.827589     19.655179
     -3.408408     11.340238     11.340238     22.680475
     -3.398398     12.482992     12.482992     24.965985
     -3.388388     13.238221     13.238221     26.476442
     -3.378378     13.854066     13.854066     27.708131
     -3.368368     14.794048     14.794048     29.588095
     -3.358358     16.603630     16.603630     33.207261
     -3.348348     19.735633     19.735633     39.471267
     -3.338338     24.384393     24.384393     48.768787
     -3.328328     30.366886     30.366886     60.733773
     -3.318318     37.076965     37.076965     74.153930
     -3.308308     43.537522     43.537522     87.075043
     -3.298298     48.571846     48.571846     97.143693
     -3.288288     51.085192     51.085192    102.170384
     -3.278278     50.387498     50.387498    100.774997
     -3.268268     46.434655     46.434655     92.869310
     -3.258258     39.870681     39.870681     79.741362
     -3.248248     31.834792     31.834792     63.669584
     -3.238238     23.612838     23.612838     47.225676
     -3.228228     16.286914     16.286914     32.573828
     -3.218218     10.522680     10.522680     21.045359
     -3.208208      6.547332      6.547332     13.094664
     -3.198198      4.273921      4.273921      8.547841
     -3.188188      3.475850      3.475850      6.951700
     -3.178178      3.924335      3.924335      7.848671
     -3.168168      5.448129      5.448129     10.896259
     -3.158158      7.923986      7.923986     15.847973
     -3.148148     11.233876     11.233876     22.467751
     -3.138138     15.224876     15.224876     30.449752
     -3.128128     19.688692     19.688692     39.377384
     -3.118118     24.356801     24.356801     48.713603
     -3.108108     28.900462     28.900462     57.800924
     -3.098098     32.936354     32.936354     65.872708
     -3.088088     36.055125     36.055125     72.110249
     -3.078078     37.889911     37.889911     75.779821
     -3.068068     38.215816     38.215816     76.431632
     -3.058058     37.036171     37.036171     74.072342
     -3.048048     34.599761     34.599761     69.199522
     -3.038038     31.324029     31.324029     62.648059
     -3.028028     27.656628     27.656628     55.313255
     -3.018018     23.949729     23.949729     47.899457
     -3.008008     20.414557     20.414557     40.829114
     -2.997998     17.171340     17.171340     34.342679
     -2.987988     14.350356     14.350356     28.700712
     -2.977978     12.173612     12.173612     24.347224
     -2.967968     10.965658     10.965658     21.931317
     -2.957958     11.085425     11.085425     22.170850
     -2.947948     12.808090     12.808090     25.616181
     -2.937938     16.201540     16.201540     32.403080
     -2.927928     21.039966     21.039966     42.079932
     -2.917918     26.787811     26.787811     53.575623
     -2.907908     32.672994     32.672994     65.345989
     -2.897898     37.844887     37.844887     75.689773
     -2.887888     41.579988     41.579988     83.159975
     -2.877878     43.468949     43.468949     86.937897
     -2.867868     43.511916     43.511916     87.023832
     -2.857858     42.077353     42.077353     84.154706
     -2.847848     39.735825     39.735825     79.471649
     -2.837838     37.038565     37.038565     74.077130
     -2.827828     34.338765     34.338765     68.677529
     -2.817818     31.732585     31.732585     63.465171
     -2.807808     29.135096     29.135096     58.270191
     -2.797798     26.436473     26.436473     52.872946
     -2.787788     23.645043     23.645043     47.290086
     -2.777778     20.937765     20.937765     41.875530
     -2.767768     18.596771     18.596771     37.193542
     -2.757758     16.878238     16.878238     33.756476
     -2.747748     15.897643     15.897643     31.795286
     -2.737738     15.601268     15.601268     31.202537
     -2.727728     15.836393     15.836393     31.672786
     -2.717718     16.467392     16.467392     32.934783
     -2.707708     17.454269     17.454269     34.908538
     -2.697698     18.836324     18.836324     37.672649
     -2.687688     20.631983     20.631983     41.263967
     -2.677678     22.730424     22.730424     45.460847
     -2.667668     24.864058     24.864058     49.728116
     -2.657658     26.698960     26.698960     53.397920
     -2.647648     27.996409     27.996409     55.992818
     -2.637638     28.742871     28.742871     57.485743
     -2.627628     29.160686     29.160686     58.321373
     -2.617618     29.588640     29.588640     59.177280
     -2.607608     30.304949     30.304949     60.609898
     -2.597598     31.395034     31.395034     62.790069
     -2.587588     32.725573     32.725573     65.451146
     -2.577578     34.012058     34.012058     68.024116
     -2.567568     34.918407     34.918407     69.836815
     -2.557558     35.135151     35.135151     70.270302
     -2.547548     34.427750     34.427750     68.855501
     -2.537538     32.680837     32.680837     65.361674
     -2.527528     29.956476     29.956476     59.912952
     -2.517518     26.546875     26.546875     53.093750
     -2.507508     22.974196     22.974196     45.948392
     -2.497497     19.901922     19.901922     39.803844
     -2.487487     17.967886     17.967886     35.935773
     -2.477477     17.596567     17.596567     35.193134
     -2.467467     18.866941     18.866941     37.733882
     -2.457457     21.493251     21.493251     42.986501
     -2.447447     24.930859     24.930859     49.861718
     -2.437437     28.568136     28.568136     57.136273
     -2.427427     31.927696     31.927696     63.855391
     -2.417417     34.792186     34.792186     69.584373
     -2.407407     37.198640     37.198640     74.397280
     -2.397397     39.303671     39.303671     78.607343
     -2.387387     41.185938     41.185938     82.371876
     -2.377377     42.690377     42.690377     85.380754
     -2.367367     43.406690     43.406690     86.813380
     -2.357357     42.811117     42.811117     85.622234
     -2.347347     40.513882     40.513882     81.027764
     -2.337337     36.492172     36.492172     72.984345
     -2.327327     31.189772     31.189772     62.379544
     -2.317317     25.432313     25.432313     50.864625
     -2.307307     20.200708     20.200708     40.401415
     -2.297297     16.367656     16.367656     32.735313
     -2.287287     14.500813     14.500813     29.001627
     -2.277277     14.784260     14.784260     29.568521
     -2.267267     17.048686     17.048686     34.097372
     -2.257257     20.865212     20.865212     41.730424
     -2.247247     25.655676     25.655676     51.311352
     -2.237237     30.789115     30.789115     61.578230
     -2.227227     35.653048     35.653048     71.306097
     -2.217217     39.701141     39.701141     79.402282
     -2.207207     42.486539     42.486539     84.973078
     -2.197197     43.693718     43.693718     87.387436
     -2.187187     43.178369     43.178369     86.356738
     -2.177177     41.011397     41.011397     82.022795
     -2.167167     37.503363     37.503363     75.006725
     -2.157157     33.174204     33.174204     66.348407
     -2.147147     28.646650     28.646650     57.293301
     -2.137137     24.481948     24.481948     48.963897
     -2.127127     21.020638     21.020638     42.041276
     -2.117117     18.304706     18.304706     36.609411
     -2.107107     16.122726     16.122726     32.245452
     -2.097097     14.154484     14.154484     28.308969
     -2.087087     12.138657     12.138657     24.277313
     -2.077077      9.981454      9.981454     19.962908
     -2.067067      7.766514      7.766514     15.533028
     -2.057057      5.684886      5.684886     11.369771
     -2.047047      3.940580      3.940580      7.881160
     -2.037037      2.684309      2.684309      5.368618
     -2.027027      1.996599      1.996599      3.993198
     -2.017017      1.906672      1.906672      3.813345
     -2.007007      2.415943      2.415943      4.831886
     -1.996997      3.500466      3.500466      7.000933
     -1.986987      5.087953      5.087953     10.175906
     -1.976977      7.028665      7.028665     14.057329
     -1.966967      9.091586      9.091586     18.183173
     -1.956957     11.008433     11.008433     22.016865
     -1.946947     12.559509     12.559509     25.119017
     -1.936937     13.662693     13.662693     27.325386
     -1.926927     14.412930     14.412930     28.825860
     -1.916917     15.039431     15.039431     30.078863
     -1.906907     15.793110     15.793110     31.586219
     -1.896897     16.819028     16.819028     33.638056
     -1.886887     18.078950     18.078950     36.157899
     -1.876877     19.361055     19.361055     38.722111
     -1.866867     20.367712     20.367712     40.735424
     -1.856857     20.837087     20.837087     41.674174
     -1.846847     20.646197     20.646197     41.292394
     -1.836837     19.857073     19.857073     39.714147
     -1.826827     18.690840     18.690840     37.381681
     -1.816817     17.438674     17.438674     34.877348
     -1.806807     16.342041     16.342041     32.684082
     -1.796797     15.491929     15.491929     30.983859
     -1.786787     14.795586     14.795586     29.591172
     -1.776777     14.031067     14.031067     28.062135
     -1.766767     12.964617     12.964617     25.929234
     -1.756757     11.470746     11.470746     22.941491
     -1.746747      9.594702      9.594702     19.189404
     -1.736737      7.532881      7.532881     15.065763
     -1.726727      5.553795      5.553795     11.107590
     -1.716717      3.909442      3.909442      7.818884
     -1.706707      2.780013      2.780013      5.560026
     -1.696697      2.264257      2.264257      4.528514
     -1.686687      2.397078      2.397078      4.794155
     -1.676677      3.163954      3.163954      6.327909
     -1.666667      4.492788      4.492788      8.985576
     -1.656657      6.228180      6.228180     12.456360
     -1.646647      8.114786      8.114786     16.229572
     -1.636637      9.820742      9.820742     19.641484
     -1.626627     11.014108     11.014108     22.028216
