# EIG2DOS: Utility for SIESTA to obtain the electronic density of states
#  E. Artacho, Apr 1999, A. Garcia, Apr 2012
#  Nick R. Papior, Feb 2017
# ------------------------------------------
# Eigenvalues calculated from a non-polarized calculation
# Eigenvalues read from siesta.EIG
# Kpoint weights read from siesta.KP
# Using smearing parameter:   0.0500
# Using 1000 points in the energy range
# Selected bands: 1 to: 2981
# Emin, Emax in file for selected band(s):    -27.3096668    218.3962480
# Nbands, Nspin, Nk   =   2981     1     1
# E_F                 =    -4.1963 eV --> (shifted to ZERO)
# Broadening          =     0.0500 eV
#
#        E            N(up)  (=)   N(down)         Ntot
     -5.000000     34.762363     34.762363     69.524726
     -4.989990     39.594058     39.594058     79.188116
     -4.979980     43.638946     43.638946     87.277892
     -4.969970     46.167176     46.167176     92.334352
     -4.959960     46.714751     46.714751     93.429503
     -4.949950     45.239626     45.239626     90.479251
     -4.939940     42.139281     42.139281     84.278562
     -4.929930     38.145741     38.145741     76.291483
     -4.919920     34.161478     34.161478     68.322957
     -4.909910     31.095965     31.095965     62.191931
     -4.899900     29.722732     29.722732     59.445464
     -4.889890     30.543433     30.543433     61.086865
     -4.879880     33.652534     33.652534     67.305069
     -4.869870     38.638208     38.638208     77.276415
     -4.859860     44.589922     44.589922     89.179844
     -4.849850     50.267959     50.267959    100.535918
     -4.839840     54.418973     54.418973    108.837947
     -4.829830     56.135823     56.135823    112.271647
     -4.819820     55.118031     55.118031    110.236061
     -4.809810     51.724552     51.724552    103.449105
     -4.799800     46.805913     46.805913     93.611827
     -4.789790     41.402291     41.402291     82.804582
     -4.779780     36.441512     36.441512     72.883023
     -4.769770     32.545434     32.545434     65.090867
     -4.759760     29.979902     29.979902     59.959804
     -4.749750     28.711505     28.711505     57.423009
     -4.739740     28.502607     28.502607     57.005213
     -4.729730     28.991128     28.991128     57.982255
     -4.719720     29.741247     29.741247     59.482493
     -4.709710     30.285470     30.285470     60.570939
     -4.699700     30.187653     30.187653     60.375307
     -4.689690     29.138904     29.138904     58.277809
     -4.679680     27.067144     27.067144     54.134288
     -4.669670     24.217040     24.217040     48.434080
     -4.659660     21.155842     21.155842     42.311685
     -4.649650     18.683355     18.683355     37.366709
     -4.639640     17.656854     17.656854     35.313708
     -4.629630     18.767917     18.767917     37.535834
     -4.619620     22.322901     22.322901     44.645802
     -4.609610     28.087483     28.087483     56.174965
     -4.599600     35.258393     35.258393     70.516786
     -4.589590     42.608300     42.608300     85.216600
     -4.579580     48.797584     48.797584     97.595167
     -4.569570     52.769047     52.769047    105.538094
     -4.559560     54.080396     54.080396    108.160792
     -4.549550     53.032359     53.032359    106.064717
     -4.539540     50.530132     50.530132    101.060264
     -4.529530     47.733330     47.733330     95.466660
     -4.519520     45.640129     45.640129     91.280257
     -4.509510     44.769248     44.769248     89.538495
     -4.499499     45.048108     45.048108     90.096216
     -4.489489     45.922485     45.922485     91.844970
     -4.479479     46.617364     46.617364     93.234729
     -4.469469     46.432824     46.432824     92.865648
     -4.459459     44.963938     44.963938     89.927876
     -4.449449     42.181230     42.181230     84.362459
     -4.439439     38.374435     38.374435     76.748869
     -4.429429     34.017124     34.017124     68.034248
     -4.419419     29.628414     29.628414     59.256828
     -4.409409     25.684320     25.684320     51.368639
     -4.399399     22.583347     22.583347     45.166694
     -4.389389     20.632308     20.632308     41.264616
     -4.379379     20.015761     20.015761     40.031523
     -4.369369     20.745189     20.745189     41.490377
     -4.359359     22.622920     22.622920     45.245840
     -4.349349     25.266549     25.266549     50.533099
     -4.339339     28.210267     28.210267     56.420535
     -4.329329     31.050527     31.050527     62.101055
     -4.319319     33.570314     33.570314     67.140627
     -4.309309     35.781805     35.781805     71.563611
     -4.299299     37.866131     37.866131     75.732262
     -4.289289     40.035824     40.035824     80.071648
     -4.279279     42.376718     42.376718     84.753436
     -4.269269     44.733316     44.733316     89.466633
     -4.259259     46.689308     46.689308     93.378615
     -4.249249     47.667056     47.667056     95.334112
     -4.239239     47.127497     47.127497     94.254994
     -4.229229     44.802907     44.802907     89.605815
     -4.219219     40.862675     40.862675     81.725351
     -4.209209     35.924326     35.924326     71.848652
     -4.199199     30.885651     30.885651     61.771302
     -4.189189     26.640364     26.640364     53.280729
     -4.179179     23.799609     23.799609     47.599218
     -4.169169     22.538892     22.538892     45.077784
     -4.159159     22.627241     22.627241     45.254482
     -4.149149     23.608921     23.608921     47.217842
     -4.139139     25.041857     25.041857     50.083715
     -4.129129     26.677929     26.677929     53.355858
     -4.119119     28.502064     28.502064     57.004128
     -4.109109     30.615617     30.615617     61.231233
     -4.099099     33.029143     33.029143     66.058286
     -4.089089     35.485609     35.485609     70.971218
     -4.079079     37.432731     37.432731     74.865461
     -4.069069     38.190461     38.190461     76.380922
     -4.059059     37.247558     37.247558     74.495116
     -4.049049     34.535958     34.535958     69.071916
     -4.039039     30.532783     30.532783     61.065565
     -4.029029     26.131959     26.131959     52.263919
     -4.019019     22.352397     22.352397     44.704794
     -4.009009     20.027800     20.027800     40.055599
     -3.998999     19.611939     19.611939     39.223879
     -3.988989     21.152305     21.152305     42.304611
     -3.978979     24.394237     24.394237     48.788473
     -3.968969     28.930645     28.930645     57.861290
     -3.958959     34.324607     34.324607     68.649215
     -3.948949     40.178899     40.178899     80.357799
     -3.938939     46.167061     46.167061     92.334122
     -3.928929     52.047975     52.047975    104.095950
     -3.918919     57.665245     57.665245    115.330491
     -3.908909     62.913360     62.913360    125.826719
     -3.898899     67.661190     67.661190    135.322381
     -3.888889     71.658178     71.658178    143.316357
     -3.878879     74.480349     74.480349    148.960699
     -3.868869     75.570822     75.570822    151.141644
     -3.858859     74.386702     74.386702    148.773403
     -3.848849     70.605711     70.605711    141.211421
     -3.838839     64.307264     64.307264    128.614528
     -3.828829     56.046168     56.046168    112.092336
     -3.818819     46.779259     46.779259     93.558518
     -3.808809     37.663374     37.663374     75.326749
     -3.798799     29.789911     29.789911     59.579822
     -3.788789     23.939373     23.939373     47.878746
     -3.778779     20.426284     20.426284     40.852568
     -3.768769     19.071103     19.071103     38.142205
     -3.758759     19.296670     19.296670     38.593340
     -3.748749     20.315169     20.315169     40.630337
     -3.738739     21.353670     21.353670     42.707341
     -3.728729     21.862251     21.862251     43.724502
     -3.718719     21.655288     21.655288     43.310577
     -3.708709     20.951003     20.951003     41.902006
     -3.698699     20.295074     20.295074     40.590147
     -3.688689     20.380929     20.380929     40.761858
     -3.678679     21.809872     21.809872     43.619744
     -3.668669     24.860954     24.860954     49.721909
     -3.658659     29.350215     29.350215     58.700430
     -3.648649     34.638693     34.638693     69.277386
     -3.638639     39.797181     39.797181     79.594363
     -3.628629     43.871412     43.871412     87.742824
     -3.618619     46.147191     46.147191     92.294382
     -3.608609     46.318321     46.318321     92.636643
     -3.598599     44.510661     44.510661     89.021323
     -3.588589     41.181916     41.181916     82.363832
     -3.578579     36.958738     36.958738     73.917477
     -3.568569     32.472792     32.472792     64.945584
     -3.558559     28.231352     28.231352     56.462704
     -3.548549     24.535411     24.535411     49.070822
     -3.538539     21.453023     21.453023     42.906047
     -3.528529     18.856217     18.856217     37.712434
     -3.518519     16.517525     16.517525     33.035050
     -3.508509     14.235933     14.235933     28.471865
     -3.498498     11.941735     11.941735     23.883470
     -3.488488      9.736111      9.736111     19.472221
     -3.478478      7.853479      7.853479     15.706958
     -3.468468      6.571119      6.571119     13.142237
     -3.458458      6.108309      6.108309     12.216617
     -3.448448      6.551683      6.551683     13.103366
     -3.438438      7.826788      7.826788     15.653577
     -3.428428      9.721028      9.721028     19.442057
     -3.418418     11.951863     11.951863     23.903727
     -3.408408     14.260822     14.260822     28.521645
     -3.398398     16.499459     16.499459     32.998918
     -3.388388     18.669697     18.669697     37.339395
     -3.378378     20.899072     20.899072     41.798144
     -3.368368     23.365040     23.365040     46.730081
     -3.358358     26.208221     26.208221     52.416442
     -3.348348     29.470921     29.470921     58.941842
     -3.338338     33.068528     33.068528     66.137057
     -3.328328     36.775874     36.775874     73.551748
     -3.318318     40.215668     40.215668     80.431336
     -3.308308     42.867919     42.867919     85.735839
     -3.298298     44.142381     44.142381     88.284761
     -3.288288     43.535486     43.535486     87.070973
     -3.278278     40.832152     40.832152     81.664304
     -3.268268     36.256971     36.256971     72.513942
     -3.258258     30.480032     30.480032     60.960064
     -3.248248     24.449498     24.449498     48.898996
     -3.238238     19.113369     19.113369     38.226739
     -3.228228     15.146796     15.146796     30.293591
     -3.218218     12.789981     12.789981     25.579961
     -3.208208     11.843328     11.843328     23.686656
     -3.198198     11.801664     11.801664     23.603329
     -3.188188     12.067358     12.067358     24.134715
     -3.178178     12.168350     12.168350     24.336700
     -3.168168     11.914665     11.914665     23.829330
     -3.158158     11.449627     11.449627     22.899253
     -3.148148     11.185127     11.185127     22.370253
     -3.138138     11.645348     11.645348     23.290696
     -3.128128     13.269064     13.269064     26.538129
     -3.118118     16.230493     16.230493     32.460987
     -3.108108     20.333773     20.333773     40.667546
     -3.098098     25.019575     25.019575     50.039150
     -3.088088     29.493588     29.493588     58.987176
     -3.078078     32.945543     32.945543     65.891086
     -3.068068     34.785273     34.785273     69.570547
     -3.058058     34.803175     34.803175     69.606350
     -3.048048     33.187842     33.187842     66.375683
     -3.038038     30.400054     30.400054     60.800107
     -3.028028     26.974543     26.974543     53.949085
     -3.018018     23.353348     23.353348     46.706696
     -3.008008     19.825365     19.825365     39.650730
     -2.997998     16.576608     16.576608     33.153217
     -2.987988     13.792472     13.792472     27.584944
     -2.977978     11.734806     11.734806     23.469612
     -2.967968     10.744933     10.744933     21.489865
     -2.957958     11.170515     11.170515     22.341030
     -2.947948     13.248842     13.248842     26.497685
     -2.937938     16.990628     16.990628     33.981256
     -2.927928     22.104778     22.104778     44.209556
     -2.917918     27.995646     27.995646     55.991292
     -2.907908     33.850345     33.850345     67.700691
     -2.897898     38.809108     38.809108     77.618215
     -2.887888     42.177660     42.177660     84.355320
     -2.877878     43.611181     43.611181     87.222363
     -2.867868     43.195211     43.195211     86.390421
     -2.857858     41.381718     41.381718     82.763437
     -2.847848     38.799569     38.799569     77.599139
     -2.837838     36.018796     36.018796     72.037591
     -2.827828     33.373067     33.373067     66.746134
     -2.817818     30.916345     30.916345     61.832690
     -2.807808     28.520113     28.520113     57.040227
     -2.797798     26.044790     26.044790     52.089581
     -2.787788     23.484578     23.484578     46.969156
     -2.777778     21.008359     21.008359     42.016719
     -2.767768     18.885321     18.885321     37.770642
     -2.757758     17.352544     17.352544     34.705088
     -2.747748     16.511800     16.511800     33.023599
     -2.737738     16.316901     16.316901     32.633802
     -2.727728     16.648537     16.648537     33.297074
     -2.717718     17.413117     17.413117     34.826235
     -2.707708     18.587351     18.587351     37.174703
     -2.697698     20.173185     20.173185     40.346370
     -2.687688     22.099567     22.099567     44.199135
     -2.677678     24.155686     24.155686     48.311372
     -2.667668     26.025610     26.025610     52.051221
     -2.657658     27.422620     27.422620     54.845240
     -2.647648     28.243562     28.243562     56.487123
     -2.637638     28.638765     28.638765     57.277529
     -2.627628     28.943197     28.943197     57.886394
     -2.617618     29.504791     29.504791     59.009582
     -2.607608     30.510373     30.510373     61.020747
     -2.597598     31.903089     31.903089     63.806178
     -2.587588     33.417937     33.417937     66.835875
     -2.577578     34.689333     34.689333     69.378666
     -2.567568     35.359568     35.359568     70.719135
     -2.557558     35.148241     35.148241     70.296481
     -2.547548     33.892001     33.892001     67.784001
     -2.537538     31.584322     31.584322     63.168645
     -2.527528     28.422536     28.422536     56.845071
     -2.517518     24.831466     24.831466     49.662932
     -2.507508     21.419729     21.419729     42.839458
     -2.497497     18.851783     18.851783     37.703567
     -2.487487     17.667386     17.667386     35.334771
     -2.477477     18.116280     18.116280     36.232560
     -2.467467     20.077886     20.077886     40.155772
     -2.457457     23.104139     23.104139     46.208278
     -2.447447     26.574726     26.574726     53.149452
     -2.437437     29.907777     29.907777     59.815553
     -2.427427     32.743149     32.743149     65.486298
     -2.417417     35.021463     35.021463     70.042925
     -2.407407     36.921598     36.921598     73.843197
     -2.397397     38.680527     38.680527     77.361054
     -2.387387     40.377860     40.377860     80.755719
     -2.377377     41.794861     41.794861     83.589722
     -2.367367     42.433291     42.433291     84.866581
     -2.357357     41.705281     41.705281     83.410562
     -2.347347     39.214037     39.214037     78.428075
     -2.337337     34.988703     34.988703     69.977405
     -2.327327     29.554550     29.554550     59.109099
     -2.317317     23.805508     23.805508     47.611016
     -2.307307     18.746442     18.746442     37.492884
     -2.297297     15.225345     15.225345     30.450691
     -2.287287     13.755992     13.755992     27.511984
     -2.277277     14.466218     14.466218     28.932437
     -2.267267     17.145504     17.145504     34.291009
     -2.257257     21.340147     21.340147     42.680294
     -2.247247     26.453645     26.453645     52.907291
     -2.237237     31.832321     31.832321     63.664643
     -2.227227     36.833279     36.833279     73.666558
     -2.217217     40.879088     40.879088     81.758175
     -2.207207     43.505578     43.505578     87.011156
     -2.197197     44.408956     44.408956     88.817912
     -2.187187     43.493771     43.493771     86.987541
     -2.177177     40.911035     40.911035     81.822070
     -2.167167     37.060814     37.060814     74.121628
     -2.157157     32.530249     32.530249     65.060498
     -2.147147     27.959446     27.959446     55.918893
     -2.137137     23.869482     23.869482     47.738964
     -2.127127     20.522360     20.522360     41.044721
     -2.117117     17.881228     17.881228     35.762457
     -2.107107     15.692611     15.692611     31.385223
     -2.097097     13.647704     13.647704     27.295409
     -2.087087     11.539890     11.539890     23.079780
     -2.077077      9.346502      9.346502     18.693004
     -2.067067      7.213503      7.213503     14.427005
     -2.057057      5.375027      5.375027     10.750053
     -2.047047      4.062153      4.062153      8.124307
     -2.037037      3.440046      3.440046      6.880091
     -2.027027      3.579825      3.579825      7.159650
     -2.017017      4.448768      4.448768      8.897536
     -2.007007      5.903864      5.903864     11.807728
     -1.996997      7.692650      7.692650     15.385299
     -1.986987      9.481306      9.481306     18.962611
     -1.976977     10.925821     10.925821     21.851641
     -1.966967     11.776292     11.776292     23.552584
     -1.956957     11.974200     11.974200     23.948399
     -1.946947     11.691444     11.691444     23.382887
     -1.936937     11.280490     11.280490     22.560980
     -1.926927     11.147809     11.147809     22.295619
     -1.916917     11.602477     11.602477     23.204955
     -1.906907     12.744519     12.744519     25.489038
     -1.896897     14.436831     14.436831     28.873662
     -1.886887     16.363994     16.363994     32.727989
     -1.876877     18.144663     18.144663     36.289327
     -1.866867     19.449621     19.449621     38.899242
     -1.856857     20.087140     20.087140     40.174280
     -1.846847     20.038186     20.038186     40.076372
     -1.836837     19.440725     19.440725     38.881449
     -1.826827     18.530186     18.530186     37.060372
     -1.816817     17.549640     17.549640     35.099280
     -1.806807     16.655614     16.655614     33.311227
     -1.796797     15.857548     15.857548     31.715095
     -1.786787     15.024111     15.024111     30.048222
     -1.776777     13.960002     13.960002     27.920005
     -1.766767     12.516823     12.516823     25.033646
     -1.756757     10.679772     10.679772     21.359545
     -1.746747      8.586430      8.586430     17.172860
     -1.736737      6.475418      6.475418     12.950837
     -1.726727      4.601781      4.601781      9.203562
     -1.716717      3.167070      3.167070      6.334140
     -1.706707      2.292502      2.292502      4.585005
     -1.696697      2.031113      2.031113      4.062225
     -1.686687      2.391904      2.391904      4.783808
     -1.676677      3.347681      3.347681      6.695363
     -1.666667      4.815990      4.815990      9.631980
     -1.656657      6.627390      6.627390     13.254781
     -1.646647      8.512148      8.512148     17.024296
     -1.636637     10.134111     10.134111     20.268221
     -1.626627     11.177449     11.177449     22.354898
