# EIG2DOS: Utility for SIESTA to obtain the electronic density of states
#  E. Artacho, Apr 1999, A. Garcia, Apr 2012
#  Nick R. Papior, Feb 2017
# ------------------------------------------
# Eigenvalues calculated from a non-polarized calculation
# Eigenvalues read from siesta.EIG
# Kpoint weights read from siesta.KP
# Using smearing parameter:   0.0500
# Using 1000 points in the energy range
# Selected bands: 1 to: 2981
# Emin, Emax in file for selected band(s):    -27.2506786    218.3741240
# Nbands, Nspin, Nk   =   2981     1     1
# E_F                 =    -4.2277 eV --> (shifted to ZERO)
# Broadening          =     0.0500 eV
#
#        E            N(up)  (=)   N(down)         Ntot
     -5.000000     31.966048     31.966048     63.932097
     -4.989990     36.435507     36.435507     72.871014
     -4.979980     40.599047     40.599047     81.198095
     -4.969970     43.797690     43.797690     87.595380
     -4.959960     45.458165     45.458165     90.916331
     -4.949950     45.280514     45.280514     90.561027
     -4.939940     43.346757     43.346757     86.693514
     -4.929930     40.117508     40.117508     80.235015
     -4.919920     36.335699     36.335699     72.671398
     -4.909910     32.884553     32.884553     65.769105
     -4.899900     30.636651     30.636651     61.273302
     -4.889890     30.301282     30.301282     60.602565
     -4.879880     32.264064     32.264064     64.528127
     -4.869870     36.436604     36.436604     72.873208
     -4.859860     42.176815     42.176815     84.353629
     -4.849850     48.357447     48.357447     96.714895
     -4.839840     53.617848     53.617848    107.235697
     -4.829830     56.743021     56.743021    113.486042
     -4.819820     57.030001     57.030001    114.060003
     -4.809810     54.485290     54.485290    108.970580
     -4.799800     49.768915     49.768915     99.537830
     -4.789790     43.921676     43.921676     87.843353
     -4.779780     38.009324     38.009324     76.018649
     -4.769770     32.835556     32.835556     65.671113
     -4.759760     28.814479     28.814479     57.628958
     -4.749750     26.001656     26.001656     52.003312
     -4.739740     24.218259     24.218259     48.436519
     -4.729730     23.190494     23.190494     46.380988
     -4.719720     22.652844     22.652844     45.305688
     -4.709710     22.399453     22.399453     44.798907
     -4.699700     22.293229     22.293229     44.586458
     -4.689690     22.253102     22.253102     44.506204
     -4.679680     22.240001     22.240001     44.480002
     -4.669670     22.255566     22.255566     44.511132
     -4.659660     22.357634     22.357634     44.715269
     -4.649650     22.685450     22.685450     45.370900
     -4.639640     23.476320     23.476320     46.952640
     -4.629630     25.046675     25.046675     50.093350
     -4.619620     27.712762     27.712762     55.425524
     -4.609610     31.650280     31.650280     63.300561
     -4.599600     36.736431     36.736431     73.472862
     -4.589590     42.457167     42.457167     84.914335
     -4.579580     47.961087     47.961087     95.922175
     -4.569570     52.282844     52.282844    104.565688
     -4.559560     54.667824     54.667824    109.335649
     -4.549550     54.860595     54.860595    109.721190
     -4.539540     53.219070     53.219070    106.438141
     -4.529530     50.590300     50.590300    101.180600
     -4.519520     47.993514     47.993514     95.987028
     -4.509510     46.244040     46.244040     92.488081
     -4.499499     45.674926     45.674926     91.349851
     -4.489489     46.063484     46.063484     92.126967
     -4.479479     46.775138     46.775138     93.550275
     -4.469469     47.043937     47.043937     94.087875
     -4.459459     46.261268     46.261268     92.522536
     -4.449449     44.159777     44.159777     88.319554
     -4.439439     40.844063     40.844063     81.688126
     -4.429429     36.695608     36.695608     73.391217
     -4.419419     32.226971     32.226971     64.453941
     -4.409409     27.958797     27.958797     55.917594
     -4.399399     24.351773     24.351773     48.703547
     -4.389389     21.776872     21.776872     43.553745
     -4.379379     20.485932     20.485932     40.971864
     -4.369369     20.563284     20.563284     41.126568
     -4.359359     21.878785     21.878785     43.757571
     -4.349349     24.087588     24.087588     48.175176
     -4.339339     26.708680     26.708680     53.417361
     -4.329329     29.269928     29.269928     58.539856
     -4.319319     31.463465     31.463465     62.926929
     -4.309309     33.241830     33.241830     66.483660
     -4.299299     34.809178     34.809178     69.618356
     -4.289289     36.506170     36.506170     73.012341
     -4.279279     38.628462     38.628462     77.256924
     -4.269269     41.243910     41.243910     82.487820
     -4.259259     44.080626     44.080626     88.161251
     -4.249249     46.544899     46.544899     93.089799
     -4.239239     47.888882     47.888882     95.777764
     -4.229229     47.484424     47.484424     94.968849
     -4.219219     45.096067     45.096067     90.192133
     -4.209209     41.024196     41.024196     82.048392
     -4.199199     36.037018     36.037018     72.074036
     -4.189189     31.111501     31.111501     62.223003
     -4.179179     27.101396     27.101396     54.202791
     -4.169169     24.484307     24.484307     48.968614
     -4.159159     23.290730     23.290730     46.581459
     -4.149149     23.220319     23.220319     46.440638
     -4.139139     23.863478     23.863478     47.726957
     -4.129129     24.911396     24.911396     49.822792
     -4.119119     26.259818     26.259818     52.519636
     -4.109109     27.969439     27.969439     55.938878
     -4.099099     30.112459     30.112459     60.224919
     -4.089089     32.589242     32.589242     65.178483
     -4.079079     35.021325     35.021325     70.042651
     -4.069069     36.800108     36.800108     73.600216
     -4.059059     37.294627     37.294627     74.589255
     -4.049049     36.130054     36.130054     72.260108
     -4.039039     33.396085     33.396085     66.792171
     -4.029029     29.671540     29.671540     59.343080
     -4.019019     25.847660     25.847660     51.695320
     -4.009009     22.838782     22.838782     45.677564
     -3.998999     21.318953     21.318953     42.637906
     -3.988989     21.590768     21.590768     43.181537
     -3.978979     23.607730     23.607730     47.215460
     -3.968969     27.092818     27.092818     54.185636
     -3.958959     31.669359     31.669359     63.338719
     -3.948949     36.949598     36.949598     73.899197
     -3.938939     42.577457     42.577457     85.154914
     -3.928929     48.252236     48.252236     96.504472
     -3.918919     53.751216     53.751216    107.502431
     -3.908909     58.938883     58.938883    117.877767
     -3.898899     63.734166     63.734166    127.468333
     -3.888889     68.025774     68.025774    136.051547
     -3.878879     71.568310     71.568310    143.136621
     -3.868869     73.924596     73.924596    147.849191
     -3.858859     74.513644     74.513644    149.027287
     -3.848849     72.776192     72.776192    145.552385
     -3.838839     68.405128     68.405128    136.810255
     -3.828829     61.543141     61.543141    123.086282
     -3.818819     52.851627     52.851627    105.703254
     -3.808809     43.405325     43.405325     86.810649
     -3.798799     34.441596     34.441596     68.883191
     -3.788789     27.053309     27.053309     54.106618
     -3.778779     21.931391     21.931391     43.862781
     -3.768769     19.234555     19.234555     38.469110
     -3.758759     18.610989     18.610989     37.221979
     -3.748749     19.347738     19.347738     38.695476
     -3.738739     20.594899     20.594899     41.189799
     -3.728729     21.604056     21.604056     43.208113
     -3.718719     21.925485     21.925485     43.850970
     -3.708709     21.519796     21.519796     43.039593
     -3.698699     20.755364     20.755364     41.510729
     -3.688689     20.285226     20.285226     40.570451
     -3.678679     20.827105     20.827105     41.654210
     -3.668669     22.903686     22.903686     45.807372
     -3.658659     26.625589     26.625589     53.251178
     -3.648649     31.600077     31.600077     63.200154
     -3.638639     37.012227     37.012227     74.024453
     -3.628629     41.858218     41.858218     83.716436
     -3.618619     45.242329     45.242329     90.484658
     -3.608609     46.620055     46.620055     93.240110
     -3.598599     45.900702     45.900702     91.801404
     -3.588589     43.395596     43.395596     86.791191
     -3.578579     39.665595     39.665595     79.331191
     -3.568569     35.344675     35.344675     70.689350
     -3.558559     30.994024     30.994024     61.988047
     -3.548549     27.005660     27.005660     54.011320
     -3.538539     23.556835     23.556835     47.113671
     -3.528529     20.618422     20.618422     41.236843
     -3.518519     18.020582     18.020582     36.041164
     -3.508509     15.561701     15.561701     31.123401
     -3.498498     13.121365     13.121365     26.242730
     -3.488488     10.729354     10.729354     21.458708
     -3.478478      8.562493      8.562493     17.124986
     -3.468468      6.877146      6.877146     13.754292
     -3.458458      5.911952      5.911952     11.823905
     -3.448448      5.799056      5.799056     11.598112
     -3.438438      6.509233      6.509233     13.018466
     -3.428428      7.842869      7.842869     15.685738
     -3.418418      9.471749      9.471749     18.943498
     -3.408408     11.029477     11.029477     22.058953
     -3.398398     12.232416     12.232416     24.464832
     -3.388388     12.992409     12.992409     25.984818
     -3.378378     13.473832     13.473832     26.947665
     -3.368368     14.064612     14.064612     28.129225
     -3.358358     15.267958     15.267958     30.535915
     -3.348348     17.554655     17.554655     35.109311
     -3.338338     21.222350     21.222350     42.444699
     -3.328328     26.288815     26.288815     52.577631
     -3.318318     32.425450     32.425450     64.850900
     -3.308308     38.939454     38.939454     77.878909
     -3.298298     44.834480     44.834480     89.668959
     -3.288288     48.985471     48.985471     97.970943
     -3.278278     50.422452     50.422452    100.844905
     -3.268268     48.641409     48.641409     97.282817
     -3.258258     43.805841     43.805841     87.611682
     -3.248248     36.727151     36.727151     73.454302
     -3.238238     28.616419     28.616419     57.232838
     -3.228228     20.718784     20.718784     41.437568
     -3.218218     13.994275     13.994275     27.988550
     -3.208208      8.965219      8.965219     17.930438
     -3.198198      5.749001      5.749001     11.498002
     -3.188188      4.205830      4.205830      8.411660
     -3.178178      4.101176      4.101176      8.202353
     -3.168168      5.211092      5.211092     10.422183
     -3.158158      7.352545      7.352545     14.705091
     -3.148148     10.363944     10.363944     20.727888
     -3.138138     14.074165     14.074165     28.148330
     -3.128128     18.284097     18.284097     36.568194
     -3.118118     22.760465     22.760465     45.520929
     -3.108108     27.228976     27.228976     54.457951
     -3.098098     31.363075     31.363075     62.726149
     -3.088088     34.786118     34.786118     69.572236
     -3.078078     37.114241     37.114241     74.228482
     -3.068068     38.047038     38.047038     76.094075
     -3.058058     37.472681     37.472681     74.945363
     -3.048048     35.526474     35.526474     71.052948
     -3.038038     32.556724     32.556724     65.113447
     -3.028028     29.006191     29.006191     58.012382
     -3.018018     25.273006     25.273006     50.546012
     -3.008008     21.629001     21.629001     43.258002
     -2.997998     18.234165     18.234165     36.468329
     -2.987988     15.222888     15.222888     30.445775
     -2.977978     12.795954     12.795954     25.591908
     -2.967968     11.256097     11.256097     22.512195
     -2.957958     10.963164     10.963164     21.926327
     -2.947948     12.226954     12.226954     24.453909
     -2.937938     15.179648     15.179648     30.359296
     -2.927928     19.673562     19.673562     39.347124
     -2.917918     25.243046     25.243046     50.486091
     -2.907908     31.155912     31.155912     62.311825
     -2.897898     36.556761     36.556761     73.113523
     -2.887888     40.670956     40.670956     81.341912
     -2.877878     43.005137     43.005137     86.010275
     -2.867868     43.467957     43.467957     86.935913
     -2.857858     42.357737     42.357737     84.715474
     -2.847848     40.217516     40.217516     80.435032
     -2.837838     37.617932     37.617932     75.235864
     -2.827828     34.962869     34.962869     69.925738
     -2.817818     32.401147     32.401147     64.802293
     -2.807808     29.873613     29.873613     59.747226
     -2.797798     27.256318     27.256318     54.512635
     -2.787788     24.513750     24.513750     49.027501
     -2.777778     21.776807     21.776807     43.553614
     -2.767768     19.307423     19.307423     38.614845
     -2.757758     17.378756     17.378756     34.757511
     -2.747748     16.148073     16.148073     32.296146
     -2.737738     15.600865     15.600865     31.201730
     -2.727728     15.597918     15.597918     31.195835
     -2.717718     15.989927     15.989927     31.979854
     -2.707708     16.719075     16.719075     33.438151
     -2.697698     17.834776     17.834776     35.669552
     -2.687688     19.409586     19.409586     38.819171
     -2.677678     21.413699     21.413699     42.827397
     -2.667668     23.642088     23.642088     47.284176
     -2.657658     25.758632     25.758632     51.517263
     -2.647648     27.442836     27.442836     54.885672
     -2.637638     28.550780     28.550780     57.101559
     -2.627628     29.186550     29.186550     58.373100
     -2.617618     29.637037     29.637037     59.274074
     -2.607608     30.211616     30.211616     60.423233
     -2.597598     31.084847     31.084847     62.169695
     -2.587588     32.226224     32.226224     64.452447
     -2.577578     33.433091     33.433091     66.866183
     -2.567568     34.417971     34.417971     68.835941
     -2.557558     34.887916     34.887916     69.775833
     -2.547548     34.591523     34.591523     69.183045
     -2.537538     33.355074     33.355074     66.710149
     -2.527528     31.138012     31.138012     62.276025
     -2.517518     28.103426     28.103426     56.206852
     -2.507508     24.657575     24.657575     49.315151
     -2.497497     21.405677     21.405677     42.811355
     -2.487487     19.010112     19.010112     38.020223
     -2.477477     17.994811     17.994811     35.989621
     -2.467467     18.576667     18.576667     37.153334
     -2.457457     20.599352     20.599352     41.198704
     -2.447447     23.601871     23.601871     47.203742
     -2.437437     26.995539     26.995539     53.991078
     -2.427427     30.274619     30.274619     60.549237
     -2.417417     33.168653     33.168653     66.337305
     -2.407407     35.668577     35.668577     71.337154
     -2.397397     37.916679     37.916679     75.833357
     -2.387387     40.017204     40.017204     80.034408
     -2.377377     41.867066     41.867066     83.734132
     -2.367367     43.101237     43.101237     86.202473
     -2.357357     43.194143     43.194143     86.388286
     -2.347347     41.680486     41.680486     83.360973
     -2.337337     38.395081     38.395081     76.790161
     -2.327327     33.616688     33.616688     67.233375
     -2.317317     28.045755     28.045755     56.091510
     -2.307307     22.626290     22.626290     45.252579
     -2.297297     18.291808     18.291808     36.583616
     -2.287287     15.737149     15.737149     31.474298
     -2.277277     15.287925     15.287925     30.575849
     -2.267267     16.885170     16.885170     33.770340
     -2.257257     20.158463     20.158463     40.316926
     -2.247247     24.543085     24.543085     49.086170
     -2.237237     29.400965     29.400965     58.801929
     -2.227227     34.118199     34.118199     68.236398
     -2.217217     38.166174     38.166174     76.332348
     -2.207207     41.127910     41.127910     82.255819
     -2.197197     42.705390     42.705390     85.410780
     -2.187187     42.730744     42.730744     85.461489
     -2.177177     41.195661     41.195661     82.391323
     -2.167167     38.288848     38.288848     76.577697
     -2.157157     34.405671     34.405671     68.811342
     -2.147147     30.090844     30.090844     60.181688
     -2.137137     25.906540     25.906540     51.813080
     -2.127127     22.269338     22.269338     44.538676
     -2.117117     19.333173     19.333173     38.666346
     -2.107107     16.981565     16.981565     33.963130
     -2.097097     14.934473     14.934473     29.868945
     -2.087087     12.911022     12.911022     25.822044
     -2.077077     10.762544     10.762544     21.525087
     -2.067067      8.516346      8.516346     17.032692
     -2.057057      6.327466      6.327466     12.654933
     -2.047047      4.383560      4.383560      8.767120
     -2.037037      2.820298      2.820298      5.640595
     -2.027027      1.682922      1.682922      3.365844
     -2.017017      0.936238      0.936238      1.872476
     -2.007007      0.502836      0.502836      1.005672
     -1.996997      0.306028      0.306028      0.612055
     -1.986987      0.303521      0.303521      0.607042
     -1.976977      0.508703      0.508703      1.017405
     -1.966967      1.000669      1.000669      2.001337
     -1.956957      1.921037      1.921037      3.842073
     -1.946947      3.450258      3.450258      6.900517
     -1.936937      5.755991      5.755991     11.511982
     -1.926927      8.916381      8.916381     17.832761
     -1.916917     12.839906     12.839906     25.679812
     -1.906907     17.219600     17.219600     34.439199
     -1.896897     21.557742     21.557742     43.115485
     -1.886887     25.270443     25.270443     50.540886
     -1.876877     27.840997     27.840997     55.681994
     -1.866867     28.962267     28.962267     57.924533
     -1.856857     28.612316     28.612316     57.224632
     -1.846847     27.041492     27.041492     54.082983
     -1.836837     24.688101     24.688101     49.376201
     -1.826827     22.058979     22.058979     44.117958
     -1.816817     19.607427     19.607427     39.214853
     -1.806807     17.630878     17.630878     35.261756
     -1.796797     16.208722     16.208722     32.417444
     -1.786787     15.202125     15.202125     30.404251
     -1.776777     14.326234     14.326234     28.652469
     -1.766767     13.275432     13.275432     26.550863
     -1.756757     11.851427     11.851427     23.702854
     -1.746747     10.037580     10.037580     20.075161
     -1.736737      7.990577      7.990577     15.981155
     -1.726727      5.965308      5.965308     11.930616
     -1.716717      4.220412      4.220412      8.440825
     -1.706707      2.951579      2.951579      5.903158
     -1.696697      2.272300      2.272300      4.544600
     -1.686687      2.229027      2.229027      4.458055
     -1.676677      2.820372      2.820372      5.640745
     -1.666667      3.995844      3.995844      7.991688
     -1.656657      5.631988      5.631988     11.263976
     -1.646647      7.507853      7.507853     15.015706
     -1.636637      9.312157      9.312157     18.624314
     -1.626627     10.702956     10.702956     21.405912
