# EIG2DOS: Utility for SIESTA to obtain the electronic density of states
#  E. Artacho, Apr 1999, A. Garcia, Apr 2012
#  Nick R. Papior, Feb 2017
# ------------------------------------------
# Eigenvalues calculated from a non-polarized calculation
# Eigenvalues read from siesta.EIG
# Kpoint weights read from siesta.KP
# Using smearing parameter:   0.0500
# Using 1000 points in the energy range
# Selected bands: 1 to: 2981
# Emin, Emax in file for selected band(s):    -27.0470968    218.3035750
# Nbands, Nspin, Nk   =   2981     1     1
# E_F                 =    -4.3085 eV --> (shifted to ZERO)
# Broadening          =     0.0500 eV
#
#        E            N(up)  (=)   N(down)         Ntot
     -5.000000     46.194000     46.194000     92.388000
     -4.989990     48.900340     48.900340     97.800679
     -4.979980     50.073802     50.073802    100.147603
     -4.969970     49.720084     49.720084     99.440168
     -4.959960     48.025849     48.025849     96.051698
     -4.949950     45.294282     45.294282     90.588563
     -4.939940     41.890447     41.890447     83.780894
     -4.929930     38.219941     38.219941     76.439882
     -4.919920     34.739482     34.739482     69.478965
     -4.909910     31.974149     31.974149     63.948298
     -4.899900     30.501614     30.501614     61.003229
     -4.889890     30.865584     30.865584     61.731169
     -4.879880     33.407284     33.407284     66.814567
     -4.869870     38.056758     38.056758     76.113515
     -4.859860     44.182918     44.182918     88.365837
     -4.849850     50.618523     50.618523    101.237045
     -4.839840     55.918338     55.918338    111.836676
     -4.829830     58.788923     58.788923    117.577845
     -4.819820     58.515599     58.515599    117.031198
     -4.809810     55.188051     55.188051    110.376103
     -4.799800     49.619604     49.619604     99.239209
     -4.789790     43.012882     43.012882     86.025763
     -4.779780     36.544885     36.544885     73.089770
     -4.769770     31.055414     31.055414     62.110828
     -4.759760     26.932871     26.932871     53.865743
     -4.749750     24.175075     24.175075     48.350150
     -4.739740     22.534638     22.534638     45.069276
     -4.729730     21.661289     21.661289     43.322578
     -4.719720     21.197334     21.197334     42.394668
     -4.709710     20.825119     20.825119     41.650239
     -4.699700     20.286609     20.286609     40.573218
     -4.689690     19.398081     19.398081     38.796162
     -4.679680     18.075947     18.075947     36.151895
     -4.669670     16.376107     16.376107     32.752213
     -4.659660     14.532396     14.532396     29.064792
     -4.649650     12.967836     12.967836     25.935672
     -4.639640     12.253543     12.253543     24.507085
     -4.629630     13.004232     13.004232     26.008463
     -4.619620     15.719333     15.719333     31.438666
     -4.609610     20.600080     20.600080     41.200161
     -4.599600     27.394537     27.394537     54.789074
     -4.589590     35.338512     35.338512     70.677024
     -4.579580     43.253697     43.253697     86.507394
     -4.569570     49.818641     49.818641     99.637281
     -4.559560     53.949641     53.949641    107.899282
     -4.549550     55.155784     55.155784    110.311568
     -4.539540     53.715244     53.715244    107.430488
     -4.529530     50.582463     50.582463    101.164926
     -4.519520     47.052369     47.052369     94.104737
     -4.509510     44.316676     44.316676     88.633352
     -4.499499     43.090386     43.090386     86.180772
     -4.489489     43.444968     43.444968     86.889935
     -4.479479     44.886228     44.886228     89.772456
     -4.469469     46.612652     46.612652     93.225305
     -4.459459     47.830349     47.830349     95.660698
     -4.449449     48.001734     48.001734     96.003468
     -4.439439     46.954598     46.954598     93.909195
     -4.429429     44.846765     44.846765     89.693531
     -4.419419     42.038470     42.038470     84.076941
     -4.409409     38.948348     38.948348     77.896696
     -4.399399     35.953720     35.953720     71.907439
     -4.389389     33.353617     33.353617     66.707234
     -4.379379     31.370338     31.370338     62.740675
     -4.369369     30.149302     30.149302     60.298604
     -4.359359     29.736332     29.736332     59.472664
     -4.349349     30.048237     30.048237     60.096473
     -4.339339     30.874592     30.874592     61.749184
     -4.329329     31.935803     31.935803     63.871606
     -4.319319     32.984127     32.984127     65.968254
     -4.309309     33.900959     33.900959     67.801919
     -4.299299     34.740578     34.740578     69.481156
     -4.289289     35.697236     35.697236     71.394472
     -4.279279     37.007367     37.007367     74.014734
     -4.269269     38.821465     38.821465     77.642929
     -4.259259     41.088148     41.088148     82.176296
     -4.249249     43.494260     43.494260     86.988521
     -4.239239     45.500015     45.500015     91.000030
     -4.229229     46.484760     46.484760     92.969520
     -4.219219     45.969496     45.969496     91.938992
     -4.209209     43.826768     43.826768     87.653535
     -4.199199     40.369538     40.369538     80.739075
     -4.189189     36.258010     36.258010     72.516019
     -4.179179     32.259063     32.259063     64.518126
     -4.169169     28.976474     28.976474     57.952948
     -4.159159     26.684116     26.684116     53.368232
     -4.149149     25.330939     25.330939     50.661878
     -4.139139     24.690543     24.690543     49.381086
     -4.129129     24.558337     24.558337     49.116673
     -4.119119     24.887179     24.887179     49.774358
     -4.109109     25.792483     25.792483     51.584966
     -4.099099     27.425253     27.425253     54.850507
     -4.089089     29.779819     29.779819     59.559637
     -4.079079     32.545901     32.545901     65.091802
     -4.069069     35.107044     35.107044     70.214087
     -4.059059     36.719669     36.719669     73.439338
     -4.049049     36.805271     36.805271     73.610541
     -4.039039     35.211770     35.211770     70.423540
     -4.029029     32.304430     32.304430     64.608861
     -4.019019     28.837827     28.837827     57.675653
     -4.009009     25.682076     25.682076     51.364152
     -3.998999     23.548930     23.548930     47.097859
     -3.988989     22.841940     22.841940     45.683880
     -3.978979     23.662864     23.662864     47.325727
     -3.968969     25.913166     25.913166     51.826332
     -3.958959     29.396746     29.396746     58.793493
     -3.948949     33.867954     33.867954     67.735908
     -3.938939     39.035352     39.035352     78.070704
     -3.928929     44.569896     44.569896     89.139791
     -3.918919     50.150183     50.150183    100.300367
     -3.908909     55.527927     55.527927    111.055854
     -3.898899     60.559977     60.559977    121.119953
     -3.888889     65.162304     65.162304    130.324608
     -3.878879     69.192813     69.192813    138.385626
     -3.868869     72.328660     72.328660    144.657320
     -3.858859     74.028610     74.028610    148.057219
     -3.848849     73.640055     73.640055    147.280110
     -3.838839     70.634913     70.634913    141.269825
     -3.828829     64.878883     64.878883    129.757765
     -3.818819     56.802872     56.802872    113.605744
     -3.808809     47.380086     47.380086     94.760173
     -3.798799     37.901539     37.901539     75.803077
     -3.788789     29.635847     29.635847     59.271694
     -3.778779     23.504540     23.504540     47.009081
     -3.768769     19.883500     19.883500     39.767000
     -3.758759     18.577415     18.577415     37.154829
     -3.748749     18.948165     18.948165     37.896329
     -3.738739     20.138576     20.138576     40.277152
     -3.728729     21.323748     21.323748     42.647496
     -3.718719     21.930456     21.930456     43.860912
     -3.708709     21.778492     21.778492     43.556985
     -3.698699     21.112417     21.112417     42.224834
     -3.688689     20.511376     20.511376     41.022752
     -3.678679     20.691952     20.691952     41.383905
     -3.668669     22.252527     22.252527     44.505054
     -3.658659     25.436973     25.436973     50.873946
     -3.648649     30.003919     30.003919     60.007838
     -3.638639     35.260666     35.260666     70.521333
     -3.628629     40.259105     40.259105     80.518211
     -3.618619     44.079829     44.079829     88.159657
     -3.608609     46.090023     46.090023     92.180045
     -3.598599     46.078473     46.078473     92.156946
     -3.588589     44.237738     44.237738     88.475476
     -3.578579     41.035445     41.035445     82.070890
     -3.568569     37.049347     37.049347     74.098695
     -3.558559     32.824600     32.824600     65.649199
     -3.548549     28.775344     28.775344     57.550687
     -3.538539     25.131070     25.131070     50.262140
     -3.528529     21.929665     21.929665     43.859330
     -3.518519     19.063466     19.063466     38.126931
     -3.508509     16.371889     16.371889     32.743777
     -3.498498     13.748518     13.748518     27.497036
     -3.488488     11.215920     11.215920     22.431841
     -3.478478      8.934850      8.934850     17.869700
     -3.468468      7.148092      7.148092     14.296185
     -3.458458      6.088638      6.088638     12.177277
     -3.448448      5.890167      5.890167     11.780334
     -3.438438      6.527927      6.527927     13.055855
     -3.428428      7.804853      7.804853     15.609706
     -3.418418      9.389439      9.389439     18.778879
     -3.408408     10.903700     10.903700     21.807400
     -3.398398     12.043345     12.043345     24.086689
     -3.388388     12.691317     12.691317     25.382633
     -3.378378     12.976223     12.976223     25.952447
     -3.368368     13.243456     13.243456     26.486911
     -3.358358     13.945235     13.945235     27.890471
     -3.348348     15.493161     15.493161     30.986322
     -3.338338     18.127936     18.127936     36.255873
     -3.328328     21.840720     21.840720     43.681440
     -3.318318     26.349125     26.349125     52.698250
     -3.308308     31.116202     31.116202     62.232405
     -3.298298     35.411682     35.411682     70.823365
     -3.288288     38.430616     38.430616     76.861232
     -3.278278     39.474598     39.474598     78.949196
     -3.268268     38.157816     38.157816     76.315632
     -3.258258     34.555720     34.555720     69.111441
     -3.248248     29.213763     29.213763     58.427525
     -3.238238     22.992898     22.992898     45.985797
     -3.228228     16.812879     16.812879     33.625758
     -3.218218     11.405521     11.405521     22.811042
     -3.208208      7.174890      7.174890     14.349779
     -3.198198      4.196250      4.196250      8.392501
     -3.188188      2.318279      2.318279      4.636559
     -3.178178      1.301782      1.301782      2.603564
     -3.168168      0.938277      0.938277      1.876553
     -3.158158      1.121824      1.121824      2.243648
     -3.148148      1.872487      1.872487      3.744974
     -3.138138      3.318916      3.318916      6.637831
     -3.128128      5.645920      5.645920     11.291840
     -3.118118      9.012570      9.012570     18.025141
     -3.108108     13.455208     13.455208     26.910416
     -3.098098     18.805022     18.805022     37.610043
     -3.088088     24.658952     24.658952     49.317905
     -3.078078     30.431815     30.431815     60.863629
     -3.068068     35.483866     35.483866     70.967732
     -3.058058     39.277009     39.277009     78.554019
     -3.048048     41.492002     41.492002     82.984005
     -3.038038     42.058367     42.058367     84.116735
     -3.028028     41.100853     41.100853     82.201706
     -3.018018     38.856305     38.856305     77.712611
     -3.008008     35.624714     35.624714     71.249428
     -2.997998     31.779288     31.779288     63.558576
     -2.987988     27.803202     27.803202     55.606403
     -2.977978     24.290976     24.290976     48.581952
     -2.967968     21.873252     21.873252     43.746505
     -2.957958     21.077101     21.077101     42.154201
     -2.947948     22.178882     22.178882     44.357764
     -2.937938     25.113120     25.113120     50.226240
     -2.927928     29.470905     29.470905     58.941811
     -2.917918     34.581211     34.581211     69.162423
     -2.907908     39.644033     39.644033     79.288066
     -2.897898     43.882132     43.882132     87.764264
     -2.887888     46.686221     46.686221     93.372443
     -2.877878     47.731357     47.731357     95.462715
     -2.867868     47.037538     47.037538     94.075077
     -2.857858     44.947272     44.947272     89.894543
     -2.847848     42.011228     42.011228     84.022455
     -2.837838     38.809683     38.809683     77.619367
     -2.827828     35.773372     35.773372     71.546744
     -2.817818     33.077321     33.077321     66.154642
     -2.807808     30.652665     30.652665     61.305330
     -2.797798     28.305409     28.305409     56.610818
     -2.787788     25.877404     25.877404     51.754809
     -2.777778     23.364205     23.364205     46.728410
     -2.767768     20.930228     20.930228     41.860456
     -2.757758     18.820651     18.820651     37.641303
     -2.747748     17.228763     17.228763     34.457526
     -2.737738     16.202303     16.202303     32.404606
     -2.727728     15.646627     15.646627     31.293254
     -2.717718     15.420422     15.420422     30.840843
     -2.707708     15.458840     15.458840     30.917680
     -2.697698     15.838666     15.838666     31.677331
     -2.687688     16.735520     16.735520     33.471039
     -2.677678     18.293724     18.293724     36.587448
     -2.667668     20.490169     20.490169     40.980337
     -2.657658     23.083482     23.083482     46.166964
     -2.647648     25.689466     25.689466     51.378932
     -2.637638     27.943592     27.943592     55.887183
     -2.627628     29.654198     29.654198     59.308397
     -2.617618     30.855950     30.855950     61.711899
     -2.607608     31.739306     31.739306     63.478612
     -2.597598     32.511445     32.511445     65.022889
     -2.587588     33.279519     33.279519     66.559037
     -2.577578     34.015508     34.015508     68.031015
     -2.567568     34.594186     34.594186     69.188373
     -2.557558     34.850342     34.850342     69.700684
     -2.547548     34.612479     34.612479     69.224958
     -2.537538     33.718362     33.718362     67.436725
     -2.527528     32.050288     32.050288     64.100576
     -2.517518     29.610468     29.610468     59.220937
     -2.507508     26.605538     26.605538     53.211075
     -2.497497     23.473751     23.473751     46.947502
     -2.487487     20.805569     20.805569     41.611138
     -2.477477     19.169399     19.169399     38.338797
     -2.467467     18.915867     18.915867     37.831735
     -2.457457     20.054565     20.054565     40.109131
     -2.447447     22.265277     22.265277     44.530554
     -2.437437     25.041141     25.041141     50.082282
     -2.427427     27.897881     27.897881     55.795761
     -2.417417     30.551194     30.551194     61.102389
     -2.407407     32.978437     32.978437     65.956874
     -2.397397     35.335497     35.335497     70.670995
     -2.387387     37.770760     37.770760     75.541521
     -2.377377     40.231475     40.231475     80.462950
     -2.367367     42.366721     42.366721     84.733443
     -2.357357     43.589065     43.589065     87.178130
     -2.347347     43.281777     43.281777     86.563553
     -2.337337     41.065354     41.065354     82.130707
     -2.327327     37.003038     37.003038     74.006077
     -2.317317     31.650008     31.650008     63.300015
     -2.307307     25.923500     25.923500     51.847000
     -2.297297     20.851911     20.851911     41.703821
     -2.287287     17.306013     17.306013     34.612026
     -2.277277     15.806061     15.806061     31.612122
     -2.267267     16.450639     16.450639     32.901279
     -2.257257     18.960780     18.960780     37.921560
     -2.247247     22.800465     22.800465     45.600930
     -2.237237     27.325081     27.325081     54.650163
     -2.227227     31.913250     31.913250     63.826500
     -2.217217     36.049138     36.049138     72.098275
     -2.207207     39.343421     39.343421     78.686843
     -2.197197     41.510062     41.510062     83.020125
     -2.187187     42.339827     42.339827     84.679653
     -2.177177     41.710821     41.710821     83.421642
     -2.167167     39.644111     39.644111     79.288222
     -2.157157     36.366485     36.366485     72.732969
     -2.147147     32.317628     32.317628     64.635256
     -2.137137     28.060897     28.060897     56.121795
     -2.127127     24.117192     24.117192     48.234385
     -2.117117     20.799116     20.799116     41.598232
     -2.107107     18.133682     18.133682     36.267365
     -2.097097     15.914533     15.914533     31.829066
     -2.087087     13.850223     13.850223     27.700445
     -2.077077     11.724065     11.724065     23.448129
     -2.067067      9.484885      9.484885     18.969771
     -2.057057      7.238141      7.238141     14.476283
     -2.047047      5.165169      5.165169     10.330339
     -2.037037      3.428242      3.428242      6.856484
     -2.027027      2.109905      2.109905      4.219810
     -2.017017      1.203058      1.203058      2.406115
     -2.007007      0.638680      0.638680      1.277359
     -1.996997      0.326442      0.326442      0.652885
     -1.986987      0.188891      0.188891      0.377782
     -1.976977      0.182155      0.182155      0.364310
     -1.966967      0.305295      0.305295      0.610589
     -1.956957      0.602383      0.602383      1.204766
     -1.946947      1.157990      1.157990      2.315980
     -1.936937      2.082380      2.082380      4.164760
     -1.926927      3.482173      3.482173      6.964346
     -1.916917      5.417813      5.417813     10.835626
     -1.906907      7.859047      7.859047     15.718094
     -1.896897     10.657456     10.657456     21.314913
     -1.886887     13.553632     13.553632     27.107265
     -1.876877     16.224030     16.224030     32.448060
     -1.866867     18.355192     18.355192     36.710385
     -1.856857     19.721421     19.721421     39.442842
     -1.846847     20.241626     20.241626     40.483253
     -1.836837     19.998625     19.998625     39.997250
     -1.826827     19.213098     19.213098     38.426196
     -1.816817     18.173765     18.173765     36.347530
     -1.806807     17.139350     17.139350     34.278699
     -1.796797     16.245768     16.245768     32.491537
     -1.786787     15.461231     15.461231     30.922462
     -1.776777     14.617636     14.617636     29.235273
     -1.766767     13.509097     13.509097     27.018195
     -1.756757     12.009711     12.009711     24.019422
     -1.746747     10.151123     10.151123     20.302245
     -1.736737      8.125898      8.125898     16.251796
     -1.726727      6.226950      6.226950     12.453900
     -1.716717      4.764732      4.764732      9.529463
     -1.706707      4.003094      4.003094      8.006189
     -1.696697      4.127934      4.127934      8.255868
     -1.686687      5.233876      5.233876     10.467753
     -1.676677      7.305213      7.305213     14.610425
     -1.666667     10.182852     10.182852     20.365704
     -1.656657     13.535763     13.535763     27.071526
     -1.646647     16.871894     16.871894     33.743788
     -1.636637     19.615047     19.615047     39.230095
     -1.626627     21.242247     21.242247     42.484493
