# EIG2DOS: Utility for SIESTA to obtain the electronic density of states
#  E. Artacho, Apr 1999, A. Garcia, Apr 2012
#  Nick R. Papior, Feb 2017
# ------------------------------------------
# Eigenvalues calculated from a non-polarized calculation
# Eigenvalues read from siesta.EIG
# Kpoint weights read from siesta.KP
# Using smearing parameter:   0.0500
# Using 1000 points in the energy range
# Selected bands: 1 to: 2981
# Emin, Emax in file for selected band(s):    -27.2991308    218.3929320
# Nbands, Nspin, Nk   =   2981     1     1
# E_F                 =    -4.2009 eV --> (shifted to ZERO)
# Broadening          =     0.0500 eV
#
#        E            N(up)  (=)   N(down)         Ntot
     -5.000000     30.947553     30.947553     61.895106
     -4.989990     36.130781     36.130781     72.261561
     -4.979980     41.153262     41.153262     82.306524
     -4.969970     45.151325     45.151325     90.302651
     -4.959960     47.359977     47.359977     94.719954
     -4.949950     47.367494     47.367494     94.734987
     -4.939940     45.258843     45.258843     90.517686
     -4.929930     41.602326     41.602326     83.204652
     -4.919920     37.306592     37.306592     74.613184
     -4.909910     33.416125     33.416125     66.832250
     -4.899900     30.904613     30.904613     61.809226
     -4.889890     30.490487     30.490487     60.980973
     -4.879880     32.478898     32.478898     64.957797
     -4.869870     36.649753     36.649753     73.299506
     -4.859860     42.241336     42.241336     84.482672
     -4.849850     48.081325     48.081325     96.162650
     -4.839840     52.868483     52.868483    105.736967
     -4.829830     55.530211     55.530211    111.060422
     -4.819820     55.525093     55.525093    111.050185
     -4.809810     52.968864     52.968864    105.937728
     -4.799800     48.538150     48.538150     97.076301
     -4.789790     43.206759     43.206759     86.413518
     -4.779780     37.936978     37.936978     75.873956
     -4.769770     33.448586     33.448586     66.897171
     -4.759760     30.129027     30.129027     60.258055
     -4.749750     28.070212     28.070212     56.140423
     -4.739740     27.165116     27.165116     54.330232
     -4.729730     27.192428     27.192428     54.384856
     -4.719720     27.852213     27.852213     55.704426
     -4.709710     28.764459     28.764459     57.528918
     -4.699700     29.476878     29.476878     58.953755
     -4.689690     29.528759     29.528759     59.057519
     -4.679680     28.581661     28.581661     57.163321
     -4.669670     26.575293     26.575293     53.150586
     -4.659660     23.832624     23.832624     47.665247
     -4.649650     21.047370     21.047370     42.094741
     -4.639640     19.135340     19.135340     38.270679
     -4.629630     18.987648     18.987648     37.975295
     -4.619620     21.198759     21.198759     42.397517
     -4.609610     25.848644     25.848644     51.697289
     -4.599600     32.407681     32.407681     64.815363
     -4.589590     39.811818     39.811818     79.623636
     -4.579580     46.716331     46.716331     93.432662
     -4.569570     51.873804     51.873804    103.747607
     -4.559560     54.515684     54.515684    109.031369
     -4.549550     54.589011     54.589011    109.178021
     -4.539540     52.742351     52.742351    105.484703
     -4.529530     50.057705     50.057705    100.115410
     -4.519520     47.636704     47.636704     95.273407
     -4.509510     46.210920     46.210920     92.421841
     -4.499499     45.927730     45.927730     91.855460
     -4.489489     46.378893     46.378893     92.757785
     -4.479479     46.833189     46.833189     93.666378
     -4.469469     46.556091     46.556091     93.112182
     -4.459459     45.079809     45.079809     90.159618
     -4.449449     42.328209     42.328209     84.656419
     -4.439439     38.578085     38.578085     77.156171
     -4.429429     34.311875     34.311875     68.623751
     -4.419419     30.052227     30.052227     60.104454
     -4.409409     26.252033     26.252033     52.504066
     -4.399399     23.260002     23.260002     46.520003
     -4.389389     21.328352     21.328352     42.656704
     -4.379379     20.611432     20.611432     41.222863
     -4.369369     21.131294     21.131294     42.262589
     -4.359359     22.733655     22.733655     45.467310
     -4.349349     25.085169     25.085169     50.170338
     -4.339339     27.747032     27.747032     55.494064
     -4.329329     30.311544     30.311544     60.623089
     -4.319319     32.542900     32.542900     65.085799
     -4.309309     34.452058     34.452058     68.904117
     -4.299299     36.263420     36.263420     72.526840
     -4.289289     38.279261     38.279261     76.558521
     -4.279279     40.692071     40.692071     81.384142
     -4.269269     43.419970     43.419970     86.839939
     -4.259259     46.040864     46.040864     92.081728
     -4.249249     47.873812     47.873812     95.747624
     -4.239239     48.201134     48.201134     96.402268
     -4.229229     46.556474     46.556474     93.112947
     -4.219219     42.955778     42.955778     85.911555
     -4.209209     37.956304     37.956304     75.912608
     -4.199199     32.501786     32.501786     65.003572
     -4.189189     27.615097     27.615097     55.230195
     -4.179179     24.074004     24.074004     48.148009
     -4.169169     22.208222     22.208222     44.416445
     -4.159159     21.889586     21.889586     43.779173
     -4.149149     22.693543     22.693543     45.387086
     -4.139139     24.138644     24.138644     48.277287
     -4.129129     25.889115     25.889115     51.778231
     -4.119119     27.833666     27.833666     55.667332
     -4.109109     30.014402     30.014402     60.028803
     -4.099099     32.450667     32.450667     64.901334
     -4.089089     34.958323     34.958323     69.916645
     -4.079079     37.077830     37.077830     74.155659
     -4.069069     38.177260     38.177260     76.354519
     -4.059059     37.702283     37.702283     75.404566
     -4.049049     35.454071     35.454071     70.908142
     -4.039039     31.747500     31.747500     63.494999
     -4.029029     27.360664     27.360664     54.721329
     -4.019019     23.298153     23.298153     46.596305
     -4.009009     20.484058     20.484058     40.968116
     -3.998999     19.521282     19.521282     39.042564
     -3.988989     20.599052     20.599052     41.198103
     -3.978979     23.545487     23.545487     47.090974
     -3.968969     27.960786     27.960786     55.921572
     -3.958959     33.356696     33.356696     66.713392
     -3.948949     39.259276     39.259276     78.518553
     -3.938939     45.271110     45.271110     90.542220
     -3.928929     51.106229     51.106229    102.212458
     -3.918919     56.600707     56.600707    113.201414
     -3.908909     61.684697     61.684697    123.369393
     -3.898899     66.304324     66.304324    132.608649
     -3.888889     70.311611     70.311611    140.623221
     -3.878879     73.376496     73.376496    146.752992
     -3.868869     74.984877     74.984877    149.969753
     -3.858859     74.554286     74.554286    149.108572
     -3.848849     71.638989     71.638989    143.277979
     -3.838839     66.143788     66.143788    132.287576
     -3.828829     58.451859     58.451859    116.903717
     -3.818819     49.404349     49.404349     98.808697
     -3.808809     40.130217     40.130217     80.260434
     -3.798799     31.783142     31.783142     63.566283
     -3.788789     25.272681     25.272681     50.545362
     -3.778779     21.071016     21.071016     42.142032
     -3.768769     19.143939     19.143939     38.287879
     -3.758759     19.013278     19.013278     38.026557
     -3.748749     19.923181     19.923181     39.846362
     -3.738739     21.061865     21.061865     42.123731
     -3.728729     21.783362     21.783362     43.566723
     -3.718719     21.777192     21.777192     43.554385
     -3.708709     21.145096     21.145096     42.290191
     -3.698699     20.361777     20.361777     40.723554
     -3.688689     20.121494     20.121494     40.242989
     -3.678679     21.103149     21.103149     42.206299
     -3.668669     23.718010     23.718010     47.436021
     -3.658659     27.923835     27.923835     55.847671
     -3.648649     33.180920     33.180920     66.361840
     -3.638639     38.580813     38.580813     77.161626
     -3.628629     43.108695     43.108695     86.217391
     -3.618619     45.939271     45.939271     91.878542
     -3.608609     46.650948     46.650948     93.301895
     -3.598599     45.286744     45.286744     90.573488
     -3.588589     42.266260     42.266260     84.532520
     -3.578579     38.213172     38.213172     76.426343
     -3.568569     33.775017     33.775017     67.550033
     -3.558559     29.484016     29.484016     58.968031
     -3.548549     25.673410     25.673410     51.346820
     -3.538539     22.449268     22.449268     44.898536
     -3.528529     19.719289     19.719289     39.438578
     -3.518519     17.276534     17.276534     34.553068
     -3.508509     14.916573     14.916573     29.833147
     -3.498498     12.544890     12.544890     25.089779
     -3.488488     10.229894     10.229894     20.459787
     -3.478478      8.182504      8.182504     16.365008
     -3.468468      6.678881      6.678881     13.357761
     -3.458458      5.964640      5.964640     11.929281
     -3.448448      6.176911      6.176911     12.353822
     -3.438438      7.304549      7.304549     14.609097
     -3.428428      9.191886      9.191886     18.383771
     -3.418418     11.582671     11.582671     23.165342
     -3.408408     14.192924     14.192924     28.385849
     -3.398398     16.790452     16.790452     33.580903
     -3.388388     19.251524     19.251524     38.503049
     -3.378378     21.572897     21.572897     43.145794
     -3.368368     23.840305     23.840305     47.680610
     -3.358358     26.176674     26.176674     52.353348
     -3.348348     28.695095     28.695095     57.390190
     -3.338338     31.461572     31.461572     62.923144
     -3.328328     34.452271     34.452271     68.904542
     -3.318318     37.495489     37.495489     74.990978
     -3.308308     40.221959     40.221959     80.443917
     -3.298298     42.078278     42.078278     84.156556
     -3.288288     42.448235     42.448235     84.896470
     -3.278278     40.866543     40.866543     81.733087
     -3.268268     37.236557     37.236557     74.473114
     -3.258258     31.936584     31.936584     63.873168
     -3.248248     25.747722     25.747722     51.495443
     -3.238238     19.630759     19.630759     39.261519
     -3.228228     14.455183     14.455183     28.910366
     -3.218218     10.791750     10.791750     21.583500
     -3.208208      8.827775      8.827775     17.655549
     -3.198198      8.398590      8.398590     16.797180
     -3.188188      9.093470      9.093470     18.186940
     -3.178178     10.396395     10.396395     20.792790
     -3.168168     11.836453     11.836453     23.672906
     -3.158158     13.123918     13.123918     26.247836
     -3.148148     14.235552     14.235552     28.471104
     -3.138138     15.407909     15.407909     30.815819
     -3.128128     17.020568     17.020568     34.041137
     -3.118118     19.399739     19.399739     38.799478
     -3.108108     22.620281     22.620281     45.240562
     -3.098098     26.399075     26.399075     52.798150
     -3.088088     30.139693     30.139693     60.279386
     -3.078078     33.119488     33.119488     66.238976
     -3.068068     34.739645     34.739645     69.479290
     -3.058058     34.724849     34.724849     69.449697
     -3.048048     33.183601     33.183601     66.367201
     -3.038038     30.512721     30.512721     61.025443
     -3.028028     27.210210     27.210210     54.420421
     -3.018018     23.702032     23.702032     47.404064
     -3.008008     20.266698     20.266698     40.533395
     -2.997998     17.073875     17.073875     34.147749
     -2.987988     14.285646     14.285646     28.571293
     -2.977978     12.142347     12.142347     24.284693
     -2.967968     10.977128     10.977128     21.954255
     -2.957958     11.150031     11.150031     22.300062
     -2.947948     12.931228     12.931228     25.862457
     -2.937938     16.378978     16.378978     32.757956
     -2.927928     21.255553     21.255553     42.511106
     -2.917918     27.014452     27.014452     54.028904
     -2.907908     32.877224     32.877224     65.754448
     -2.897898     37.994214     37.994214     75.988427
     -2.887888     41.650938     41.650938     83.301876
     -2.877878     43.453133     43.453133     86.906266
     -2.867868     43.417894     43.417894     86.835787
     -2.857858     41.927523     41.927523     83.855047
     -2.847848     39.559433     39.559433     79.118865
     -2.837838     36.863403     36.863403     73.726807
     -2.827828     34.184620     34.184620     68.369240
     -2.817818     31.608641     31.608641     63.217282
     -2.807808     29.041683     29.041683     58.083366
     -2.797798     26.369591     26.369591     52.739182
     -2.787788     23.600968     23.600968     47.201936
     -2.777778     20.915496     20.915496     41.830992
     -2.767768     18.597766     18.597766     37.195531
     -2.757758     16.904812     16.904812     33.809624
     -2.747748     15.952192     15.952192     31.904385
     -2.737738     15.687450     15.687450     31.374900
     -2.727728     15.961135     15.961135     31.922270
     -2.717718     16.640824     16.640824     33.281649
     -2.707708     17.685082     17.685082     35.370165
     -2.697698     19.123100     19.123100     38.246199
     -2.687688     20.955001     20.955001     41.910002
     -2.677678     23.050331     23.050331     46.100662
     -2.667668     25.131271     25.131271     50.262543
     -2.657658     26.871512     26.871512     53.743025
     -2.647648     28.057854     28.057854     56.115708
     -2.637638     28.710411     28.710411     57.420822
     -2.627628     29.078515     29.078515     58.157029
     -2.617618     29.509764     29.509764     59.019529
     -2.607608     30.270851     30.270851     60.541703
     -2.597598     31.422558     31.422558     62.845116
     -2.587588     32.804999     32.804999     65.609998
     -2.577578     34.113956     34.113956     68.227912
     -2.567568     35.003925     35.003925     70.007850
     -2.557558     35.165854     35.165854     70.331708
     -2.547548     34.374171     34.374171     68.748341
     -2.537538     32.530186     32.530186     65.060372
     -2.527528     29.718628     29.718628     59.437256
     -2.517518     26.255832     26.255832     52.511664
     -2.507508     22.682415     22.682415     45.364831
     -2.497497     19.667645     19.667645     39.335290
     -2.487487     17.839165     17.839165     35.678330
     -2.477477     17.597534     17.597534     35.195067
     -2.467467     18.991100     18.991100     37.982199
     -2.457457     21.705849     21.705849     43.411697
     -2.447447     25.179246     25.179246     50.358493
     -2.437437     28.796508     28.796508     57.593017
     -2.427427     32.091424     32.091424     64.182849
     -2.417417     34.867320     34.867320     69.734641
     -2.407407     37.183995     37.183995     74.367990
     -2.397397     39.215627     39.215627     78.431254
     -2.387387     41.048630     41.048630     82.097261
     -2.377377     42.525484     42.525484     85.050968
     -2.367367     43.226908     43.226908     86.453816
     -2.357357     42.619629     42.619629     85.239259
     -2.347347     40.309191     40.309191     80.618382
     -2.337337     36.275004     36.275004     72.550009
     -2.327327     30.967888     30.967888     61.935775
     -2.317317     25.220596     25.220596     50.441192
     -2.307307     20.016907     20.016907     40.033815
     -2.297297     16.226582     16.226582     32.453163
     -2.287287     14.410225     14.410225     28.820450
     -2.277277     14.744193     14.744193     29.488385
     -2.267267     17.053790     17.053790     34.107581
     -2.257257     20.908256     20.908256     41.816512
     -2.247247     25.730101     25.730101     51.460202
     -2.237237     30.889371     30.889371     61.778742
     -2.227227     35.772751     35.772751     71.545501
     -2.217217     39.830402     39.830402     79.660803
     -2.207207     42.610546     42.610546     85.221093
     -2.197197     43.794269     43.794269     87.588537
     -2.187187     43.238568     43.238568     86.477136
     -2.177177     41.021720     41.021720     82.043439
     -2.167167     37.465929     37.465929     74.931859
     -2.157157     33.102540     33.102540     66.205081
     -2.147147     28.560452     28.560452     57.120904
     -2.137137     24.399285     24.399285     48.798571
     -2.127127     20.951837     20.951837     41.903675
     -2.117117     18.251681     18.251681     36.503362
     -2.107107     16.085278     16.085278     32.170556
     -2.097097     14.142707     14.142707     28.285415
     -2.087087     12.189515     12.189515     24.379030
     -2.077077     10.177650     10.177650     20.355300
     -2.067067      8.254857      8.254857     16.509715
     -2.057057      6.687378      6.687378     13.374757
     -2.047047      5.744802      5.744802     11.489604
     -2.037037      5.595626      5.595626     11.191251
     -2.027027      6.241361      6.241361     12.482721
     -2.017017      7.498077      7.498077     14.996155
     -2.007007      9.027049      9.027049     18.054098
     -1.996997     10.412987     10.412987     20.825974
     -1.986987     11.277478     11.277478     22.554955
     -1.976977     11.396589     11.396589     22.793177
     -1.966967     10.779413     10.779413     21.558826
     -1.956957      9.673147      9.673147     19.346294
     -1.946947      8.489699      8.489699     16.979398
     -1.936937      7.681679      7.681679     15.363358
     -1.926927      7.612691      7.612691     15.225382
     -1.916917      8.461810      8.461810     16.923620
     -1.906907     10.183764     10.183764     20.367528
     -1.896897     12.527425     12.527425     25.054851
     -1.886887     15.101983     15.101983     30.203966
     -1.876877     17.472121     17.472121     34.944243
     -1.866867     19.259198     19.259198     38.518396
     -1.856857     20.225473     20.225473     40.450947
     -1.846847     20.322813     20.322813     40.645626
     -1.836837     19.693694     19.693694     39.387389
     -1.826827     18.619956     18.619956     37.239911
     -1.816817     17.426672     17.426672     34.853344
     -1.806807     16.366976     16.366976     32.733952
     -1.796797     15.531098     15.531098     31.062196
     -1.786787     14.823370     14.823370     29.646740
     -1.776777     14.024100     14.024100     28.048200
     -1.766767     12.909254     12.909254     25.818509
     -1.756757     11.367775     11.367775     22.735550
     -1.746747      9.458432      9.458432     18.916864
     -1.736737      7.385181      7.385181     14.770362
     -1.726727      5.416299      5.416299     10.832597
     -1.716717      3.797567      3.797567      7.595134
     -1.706707      2.700779      2.700779      5.401557
     -1.696697      2.217559      2.217559      4.435119
     -1.686687      2.378567      2.378567      4.757135
     -1.676677      3.167589      3.167589      6.335177
     -1.666667      4.512091      4.512091      9.024181
     -1.656657      6.256403      6.256403     12.512806
     -1.646647      8.144843      8.144843     16.289685
     -1.636637      9.845739      9.845739     19.691478
     -1.626627     11.028708     11.028708     22.057416
