# EIG2DOS: Utility for SIESTA to obtain the electronic density of states
#  E. Artacho, Apr 1999, A. Garcia, Apr 2012
#  Nick R. Papior, Feb 2017
# ------------------------------------------
# Eigenvalues calculated from a non-polarized calculation
# Eigenvalues read from siesta.EIG
# Kpoint weights read from siesta.KP
# Using smearing parameter:   0.0500
# Using 1000 points in the energy range
# Selected bands: 1 to: 2981
# Emin, Emax in file for selected band(s):    -27.1404179    218.3441330
# Nbands, Nspin, Nk   =   2981     1     1
# E_F                 =    -4.2675 eV --> (shifted to ZERO)
# Broadening          =     0.0500 eV
#
#        E            N(up)  (=)   N(down)         Ntot
     -5.000000     37.755035     37.755035     75.510070
     -4.989990     40.117414     40.117414     80.234827
     -4.979980     42.349318     42.349318     84.698637
     -4.969970     43.953320     43.953320     87.906640
     -4.959960     44.474829     44.474829     88.949658
     -4.949950     43.666000     43.666000     87.331999
     -4.939940     41.575957     41.575957     83.151913
     -4.929930     38.552669     38.552669     77.105337
     -4.919920     35.180492     35.180492     70.360983
     -4.909910     32.187854     32.187854     64.375708
     -4.899900     30.340679     30.340679     60.681358
     -4.889890     30.310955     30.310955     60.621911
     -4.879880     32.507457     32.507457     65.014913
     -4.869870     36.891704     36.891704     73.783407
     -4.859860     42.855691     42.855691     85.711382
     -4.849850     49.260364     49.260364     98.520728
     -4.839840     54.686859     54.686859    109.373719
     -4.829830     57.846064     57.846064    115.692128
     -4.819820     57.988736     57.988736    115.977471
     -4.809810     55.132879     55.132879    110.265758
     -4.799800     50.005905     50.005905    100.011810
     -4.789790     43.741417     43.741417     87.482835
     -4.779780     37.485098     37.485098     74.970196
     -4.769770     32.083233     32.083233     64.166466
     -4.759760     27.952310     27.952310     55.904620
     -4.749750     25.120832     25.120832     50.241664
     -4.739740     23.364135     23.364135     46.728269
     -4.729730     22.346446     22.346446     44.692892
     -4.719720     21.720821     21.720821     43.441641
     -4.709710     21.179816     21.179816     42.359632
     -4.699700     20.475434     20.475434     40.950868
     -4.689690     19.433487     19.433487     38.866974
     -4.679680     17.980400     17.980400     35.960800
     -4.669670     16.184287     16.184287     32.368573
     -4.659660     14.293639     14.293639     28.587278
     -4.649650     12.745961     12.745961     25.491922
     -4.639640     12.121841     12.121841     24.243682
     -4.629630     13.035009     13.035009     26.070018
     -4.619620     15.968887     15.968887     31.937774
     -4.609610     21.091795     21.091795     42.183590
     -4.599600     28.106081     28.106081     56.212162
     -4.589590     36.203181     36.203181     72.406363
     -4.579580     44.186775     44.186775     88.373550
     -4.569570     50.772719     50.772719    101.545437
     -4.559560     54.987751     54.987751    109.975503
     -4.549550     56.514112     56.514112    113.028223
     -4.539540     55.818375     55.818375    111.636749
     -4.529530     53.981776     53.981776    107.963551
     -4.519520     52.283445     52.283445    104.566889
     -4.509510     51.707027     51.707027    103.414054
     -4.499499     52.580091     52.580091    105.160182
     -4.489489     54.493152     54.493152    108.986304
     -4.479479     56.514225     56.514225    113.028449
     -4.469469     57.583402     57.583402    115.166803
     -4.459459     56.905565     56.905565    113.811131
     -4.449449     54.185798     54.185798    108.371597
     -4.439439     49.647912     49.647912     99.295824
     -4.429429     43.883380     43.883380     87.766761
     -4.419419     37.638662     37.638662     75.277325
     -4.409409     31.640332     31.640332     63.280664
     -4.399399     26.499686     26.499686     52.999372
     -4.389389     22.676877     22.676877     45.353754
     -4.379379     20.458727     20.458727     40.917455
     -4.369369     19.923720     19.923720     39.847440
     -4.359359     20.908907     20.908907     41.817813
     -4.349349     23.019999     23.019999     46.039998
     -4.339339     25.715059     25.715059     51.430118
     -4.329329     28.451077     28.451077     56.902155
     -4.319319     30.841088     30.841088     61.682176
     -4.309309     32.756395     32.756395     65.512790
     -4.299299     34.331317     34.331317     68.662633
     -4.289289     35.869596     35.869596     71.739192
     -4.279279     37.687612     37.687612     75.375224
     -4.269269     39.946978     39.946978     79.893957
     -4.259259     42.531536     42.531536     85.063073
     -4.249249     45.017819     45.017819     90.035638
     -4.239239     46.769841     46.769841     93.539682
     -4.229229     47.148674     47.148674     94.297348
     -4.219219     45.769226     45.769226     91.538452
     -4.209209     42.692179     42.692179     85.384358
     -4.199199     38.448250     38.448250     76.896500
     -4.189189     33.866646     33.866646     67.733292
     -4.179179     29.782218     29.782218     59.564437
     -4.169169     26.761391     26.761391     53.522782
     -4.159159     24.972274     24.972274     49.944549
     -4.149149     24.241370     24.241370     48.482740
     -4.139139     24.242584     24.242584     48.485167
     -4.129129     24.708011     24.708011     49.416022
     -4.119119     25.554141     25.554141     51.108283
     -4.109109     26.867514     26.867514     53.735029
     -4.099099     28.763248     28.763248     57.526496
     -4.089089     31.193096     31.193096     62.386191
     -4.079079     33.813453     33.813453     67.626906
     -4.069069     36.006592     36.006592     72.013185
     -4.059059     37.075511     37.075511     74.151022
     -4.049049     36.533925     36.533925     73.067850
     -4.039039     34.346500     34.346500     68.693000
     -4.029029     30.989513     30.989513     61.979026
     -4.019019     27.297117     27.297117     54.594234
     -4.009009     24.174753     24.174753     48.349506
     -3.998999     22.324506     22.324506     44.649013
     -3.988989     22.100867     22.100867     44.201733
     -3.978979     23.525485     23.525485     47.050970
     -3.968969     26.401202     26.401202     52.802404
     -3.958959     30.433941     30.433941     60.867883
     -3.948949     35.304360     35.304360     70.608719
     -3.938939     40.691381     40.691381     81.382762
     -3.928929     46.286119     46.286119     92.572238
     -3.918919     51.823282     51.823282    103.646565
     -3.908909     57.116524     57.116524    114.233047
     -3.898899     62.056282     62.056282    124.112564
     -3.888889     66.542582     66.542582    133.085164
     -3.878879     70.373722     70.373722    140.747443
     -3.868869     73.158471     73.158471    146.316942
     -3.858859     74.327042     74.327042    148.654083
     -3.848849     73.273266     73.273266    146.546532
     -3.838839     69.588775     69.588775    139.177550
     -3.828829     63.290484     63.290484    126.580968
     -3.818819     54.931422     54.931422    109.862844
     -3.808809     45.530854     45.530854     91.061708
     -3.798799     36.339058     36.339058     72.678117
     -3.788789     28.522416     28.522416     57.044833
     -3.778779     22.881104     22.881104     45.762208
     -3.768769     19.687726     19.687726     39.375451
     -3.758759     18.681661     18.681661     37.363321
     -3.748749     19.200801     19.200801     38.401602
     -3.738739     20.399522     20.399522     40.799044
     -3.728729     21.491344     21.491344     42.982687
     -3.718719     21.958766     21.958766     43.917532
     -3.708709     21.683332     21.683332     43.366664
     -3.698699     20.963963     20.963963     41.927927
     -3.688689     20.412977     20.412977     40.825954
     -3.678679     20.748510     20.748510     41.497019
     -3.668669     22.536059     22.536059     45.072117
     -3.658659     25.959636     25.959636     51.919272
     -3.648649     30.708034     30.708034     61.416069
     -3.638639     36.030342     36.030342     72.060685
     -3.628629     40.950274     40.950274     81.900549
     -3.618619     44.558304     44.558304     89.116607
     -3.608609     46.264469     46.264469     92.528937
     -3.598599     45.918409     45.918409     91.836817
     -3.588589     43.773646     43.773646     87.547292
     -3.578579     40.344523     40.344523     80.689046
     -3.568569     36.233462     36.233462     72.466924
     -3.558559     31.986820     31.986820     63.973640
     -3.548549     28.000058     28.000058     56.000116
     -3.538539     24.471427     24.471427     48.942854
     -3.528529     21.404559     21.404559     42.809118
     -3.518519     18.663713     18.663713     37.327426
     -3.508509     16.072174     16.072174     32.144348
     -3.498498     13.519859     13.519859     27.039717
     -3.488488     11.034112     11.034112     22.068224
     -3.478478      8.783248      8.783248     17.566495
     -3.468468      7.016222      7.016222     14.032443
     -3.458458      5.969729      5.969729     11.939457
     -3.448448      5.780118      5.780118     11.560235
     -3.438438      6.426347      6.426347     12.852695
     -3.428428      7.717007      7.717007     15.434014
     -3.418418      9.327251      9.327251     18.654502
     -3.408408     10.884612     10.884612     21.769224
     -3.398398     12.087160     12.087160     24.174319
     -3.388388     12.816307     12.816307     25.632615
     -3.378378     13.196074     13.196074     26.392147
     -3.368368     13.565982     13.565982     27.131963
     -3.358358     14.372757     14.372757     28.745513
     -3.348348     16.023288     16.023288     32.046576
     -3.338338     18.752768     18.752768     37.505536
     -3.328328     22.542531     22.542531     45.085062
     -3.318318     27.092427     27.092427     54.184854
     -3.308308     31.839752     31.839752     63.679504
     -3.298298     36.027585     36.027585     72.055170
     -3.288288     38.837445     38.837445     77.674891
     -3.278278     39.585017     39.585017     79.170035
     -3.268268     37.931258     37.931258     75.862516
     -3.258258     34.020437     34.020437     68.040873
     -3.248248     28.466240     28.466240     56.932480
     -3.238238     22.175436     22.175436     44.350872
     -3.228228     16.083838     16.083838     32.167676
     -3.218218     10.921875     10.921875     21.843749
     -3.208208      7.099589      7.099589     14.199179
     -3.198198      4.727603      4.727603      9.455206
     -3.188188      3.722972      3.722972      7.445945
     -3.178178      3.924836      3.924836      7.849672
     -3.168168      5.166729      5.166729     10.333457
     -3.158158      7.295730      7.295730     14.591459
     -3.148148     10.163088     10.163088     20.326176
     -3.138138     13.618571     13.618571     27.237143
     -3.128128     17.522314     17.522314     35.044627
     -3.118118     21.760457     21.760457     43.520914
     -3.108108     26.237557     26.237557     52.475115
     -3.098098     30.832782     30.832782     61.665565
     -3.088088     35.339534     35.339534     70.679068
     -3.078078     39.432417     39.432417     78.864833
     -3.068068     42.697877     42.697877     85.395753
     -3.058058     44.726796     44.726796     89.453593
     -3.048048     45.226613     45.226613     90.453226
     -3.038038     44.098443     44.098443     88.196886
     -3.028028     41.449627     41.449627     82.899254
     -3.018018     37.552955     37.552955     75.105909
     -3.008008     32.789371     32.789371     65.578742
     -2.997998     27.605773     27.605773     55.211545
     -2.987988     22.494059     22.494059     44.988118
     -2.977978     17.975217     17.975217     35.950433
     -2.967968     14.567945     14.567945     29.135890
     -2.957958     12.732521     12.732521     25.465042
     -2.947948     12.794789     12.794789     25.589578
     -2.937938     14.864490     14.864490     29.728980
     -2.927928     18.768129     18.768129     37.536257
     -2.917918     24.022445     24.022445     48.044889
     -2.907908     29.876281     29.876281     59.752562
     -2.897898     35.436089     35.436089     70.872178
     -2.887888     39.859220     39.859220     79.718440
     -2.877878     42.560695     42.560695     85.121391
     -2.867868     43.356661     43.356661     86.713321
     -2.857858     42.481003     42.481003     84.962007
     -2.847848     40.461037     40.461037     80.922074
     -2.837838     37.901375     37.901375     75.802751
     -2.827828     35.268890     35.268890     70.537781
     -2.817818     32.770934     32.770934     65.541869
     -2.807808     30.372160     30.372160     60.744321
     -2.797798     27.925648     27.925648     55.851295
     -2.787788     25.338246     25.338246     50.676492
     -2.777778     22.677895     22.677895     45.355789
     -2.767768     20.168534     20.168534     40.337068
     -2.757758     18.084839     18.084839     36.169678
     -2.747748     16.616598     16.616598     33.233196
     -2.737738     15.787908     15.787908     31.575816
     -2.727728     15.480000     15.480000     30.960000
     -2.717718     15.539669     15.539669     31.079338
     -2.707708     15.899025     15.899025     31.798050
     -2.697698     16.623177     16.623177     33.246354
     -2.687688     17.848842     17.848842     35.697684
     -2.677678     19.650845     19.650845     39.301690
     -2.667668     21.926592     21.926592     43.853185
     -2.657658     24.382995     24.382995     48.765990
     -2.647648     26.646023     26.646023     53.292047
     -2.637638     28.431100     28.431100     56.862200
     -2.627628     29.669354     29.669354     59.338709
     -2.617618     30.512348     30.512348     61.024695
     -2.607608     31.217908     31.217908     62.435816
     -2.597598     31.994621     31.994621     63.989241
     -2.587588     32.898584     32.898584     65.797169
     -2.577578     33.826270     33.826270     67.652540
     -2.567568     34.576583     34.576583     69.153165
     -2.557558     34.921380     34.921380     69.842760
     -2.547548     34.647452     34.647452     69.294903
     -2.537538     33.582400     33.582400     67.164800
     -2.527528     31.639934     31.639934     63.279869
     -2.517518     28.894297     28.894297     57.788593
     -2.507508     25.645270     25.645270     51.290540
     -2.497497     22.412622     22.412622     44.825245
     -2.487487     19.826914     19.826914     39.653829
     -2.477477     18.444044     18.444044     36.888088
     -2.467467     18.561069     18.561069     37.122139
     -2.457457     20.118408     20.118408     40.236816
     -2.447447     22.735869     22.735869     45.471739
     -2.437437     25.868829     25.868829     51.737658
     -2.427427     29.015877     29.015877     58.031753
     -2.417417     31.884776     31.884776     63.769551
     -2.407407     34.441230     34.441230     68.882459
     -2.397397     36.818895     36.818895     73.637791
     -2.387387     39.136357     39.136357     78.272715
     -2.377377     41.315711     41.315711     82.631421
     -2.367367     43.002569     43.002569     86.005138
     -2.357357     43.642777     43.642777     87.285555
     -2.347347     42.694959     42.694959     85.389917
     -2.337337     39.886572     39.886572     79.773144
     -2.327327     35.392892     35.392892     70.785784
     -2.317317     29.851817     29.851817     59.703633
     -2.307307     24.206310     24.206310     48.412620
     -2.297297     19.445738     19.445738     38.891476
     -2.287287     16.353205     16.353205     32.706411
     -2.277277     15.345040     15.345040     30.690080
     -2.267267     16.433679     16.433679     32.867359
     -2.257257     19.293427     19.293427     38.586854
     -2.247247     23.382605     23.382605     46.765209
     -2.237237     28.075087     28.075087     56.150175
     -2.227227     32.766651     32.766651     65.533301
     -2.217217     36.937927     36.937927     73.875853
     -2.207207     40.174204     40.174204     80.348408
     -2.197197     42.160966     42.160966     84.321932
     -2.187187     42.685003     42.685003     85.370006
     -2.177177     41.663444     41.663444     83.326889
     -2.167167     39.195286     39.195286     78.390573
     -2.157157     35.597247     35.597247     71.194493
     -2.147147     31.374661     31.374661     62.749322
     -2.137137     27.105730     27.105730     54.211460
     -2.127127     23.272388     23.272388     46.544775
     -2.117117     20.115840     20.115840     40.231681
     -2.107107     17.592980     17.592980     35.185960
     -2.097097     15.456966     15.456966     30.913932
     -2.087087     13.415406     13.415406     26.830811
     -2.077077     11.279876     11.279876     22.559752
     -2.067067      9.035288      9.035288     18.070577
     -2.057057      6.811707      6.811707     13.623414
     -2.047047      4.795352      4.795352      9.590704
     -2.037037      3.137228      3.137228      6.274455
     -2.027027      1.902258      1.902258      3.804515
     -2.017017      1.068493      1.068493      2.136986
     -2.007007      0.559315      0.559315      1.118630
     -1.996997      0.283789      0.283789      0.567577
     -1.986987      0.168074      0.168074      0.336147
     -1.976977      0.173231      0.173231      0.346461
     -1.966967      0.302790      0.302790      0.605580
     -1.956957      0.604339      0.604339      1.208678
     -1.946947      1.165327      1.165327      2.330655
     -1.936937      2.098847      2.098847      4.197695
     -1.926927      3.514623      3.514623      7.029247
     -1.916917      5.476125      5.476125     10.952251
     -1.906907      7.954748      7.954748     15.909497
     -1.896897     10.800248     10.800248     21.600495
     -1.886887     13.745984     13.745984     27.491968
     -1.876877     16.455694     16.455694     32.911389
     -1.866867     18.601239     18.601239     37.202479
     -1.856857     19.947991     19.947991     39.895983
     -1.846847     20.422107     20.422107     40.844214
     -1.836837     20.139641     20.139641     40.279283
     -1.826827     19.385903     19.385903     38.771806
     -1.816817     18.543484     18.543484     37.086969
     -1.806807     17.982102     17.982102     35.964205
     -1.796797     17.941498     17.941498     35.882996
     -1.786787     18.449708     18.449708     36.899416
     -1.776777     19.310850     19.310850     38.621700
     -1.766767     20.168919     20.168919     40.337837
     -1.756757     20.622254     20.622254     41.244508
     -1.746747     20.345926     20.345926     40.691851
     -1.736737     19.183245     19.183245     38.366490
     -1.726727     17.184950     17.184950     34.369899
     -1.716717     14.593235     14.593235     29.186469
     -1.706707     11.781487     11.781487     23.562974
     -1.696697      9.169139      9.169139     18.338277
     -1.686687      7.134213      7.134213     14.268426
     -1.676677      5.942159      5.942159     11.884317
     -1.666667      5.699953      5.699953     11.399906
     -1.656657      6.336270      6.336270     12.672540
     -1.646647      7.608328      7.608328     15.216655
     -1.636637      9.141601      9.141601     18.283202
     -1.626627     10.509008     10.509008     21.018016
