# EIG2DOS: Utility for SIESTA to obtain the electronic density of states
#  E. Artacho, Apr 1999, A. Garcia, Apr 2012
#  Nick R. Papior, Feb 2017
# ------------------------------------------
# Eigenvalues calculated from a non-polarized calculation
# Eigenvalues read from siesta.EIG
# Kpoint weights read from siesta.KP
# Using smearing parameter:   0.0500
# Using 1000 points in the energy range
# Selected bands: 1 to: 2981
# Emin, Emax in file for selected band(s):    -27.1298528    218.3664550
# Nbands, Nspin, Nk   =   2981     1     1
# E_F                 =    -4.2362 eV --> (shifted to ZERO)
# Broadening          =     0.0500 eV
#
#        E            N(up)  (=)   N(down)         Ntot
     -5.000000     32.909906     32.909906     65.819811
     -4.989990     37.209985     37.209985     74.419969
     -4.979980     41.053402     41.053402     82.106805
     -4.969970     43.834369     43.834369     87.668738
     -4.959960     45.068371     45.068371     90.136742
     -4.949950     44.549005     44.549005     89.098009
     -4.939940     42.424273     42.424273     84.848546
     -4.929930     39.174797     39.174797     78.349595
     -4.919920     35.520556     35.520556     71.041111
     -4.909910     32.298227     32.298227     64.596454
     -4.899900     30.332702     30.332702     60.665403
     -4.889890     30.297235     30.297235     60.594471
     -4.879880     32.551679     32.551679     65.103358
     -4.869870     36.981788     36.981788     73.963576
     -4.859860     42.911110     42.911110     85.822221
     -4.849850     49.172306     49.172306     98.344612
     -4.839840     54.374134     54.374134    108.748267
     -4.829830     57.299841     57.299841    114.599681
     -4.819820     57.283815     57.283815    114.567630
     -4.809810     54.401218     54.401218    108.802436
     -4.799800     49.388140     49.388140     98.776281
     -4.789790     43.341080     43.341080     86.682160
     -4.779780     37.343815     37.343815     74.687630
     -4.769770     32.180540     32.180540     64.361079
     -4.759760     28.221988     28.221988     56.443976
     -4.749750     25.473036     25.473036     50.946072
     -4.739740     23.706524     23.706524     47.413047
     -4.729730     22.601793     22.601793     45.203585
     -4.719720     21.839665     21.839665     43.679329
     -4.709710     21.146219     21.146219     42.292439
     -4.699700     20.305015     20.305015     40.610030
     -4.689690     19.166216     19.166216     38.332433
     -4.679680     17.673326     17.673326     35.346652
     -4.669670     15.908475     15.908475     31.816949
     -4.659660     14.135251     14.135251     28.270502
     -4.649650     12.806651     12.806651     25.613302
     -4.639640     12.512098     12.512098     25.024196
     -4.629630     13.857567     13.857567     27.715133
     -4.619620     17.297062     17.297062     34.594124
     -4.609610     22.955875     22.955875     45.911750
     -4.599600     30.503227     30.503227     61.006454
     -4.589590     39.136192     39.136192     78.272384
     -4.579580     47.714605     47.714605     95.429210
     -4.569570     55.032907     55.032907    110.065814
     -4.559560     60.148363     60.148363    120.296726
     -4.549550     62.644158     62.644158    125.288317
     -4.539540     62.721274     62.721274    125.442548
     -4.529530     61.082150     61.082150    122.164301
     -4.519520     58.655908     58.655908    117.311816
     -4.509510     56.275474     56.275474    112.550949
     -4.499499     54.426726     54.426726    108.853452
     -4.489489     53.151401     53.151401    106.302803
     -4.479479     52.120147     52.120147    104.240295
     -4.469469     50.826773     50.826773    101.653546
     -4.459459     48.814442     48.814442     97.628884
     -4.449449     45.844516     45.844516     91.689031
     -4.439439     41.957333     41.957333     83.914666
     -4.429429     37.430389     37.430389     74.860779
     -4.419419     32.682299     32.682299     65.364599
     -4.409409     28.178051     28.178051     56.356101
     -4.399399     24.363591     24.363591     48.727181
     -4.389389     21.620724     21.620724     43.241448
     -4.379379     20.217180     20.217180     40.434360
     -4.369369     20.243656     20.243656     40.487311
     -4.359359     21.563024     21.563024     43.126048
     -4.349349     23.815030     23.815030     47.630060
     -4.339339     26.502453     26.502453     53.004906
     -4.329329     29.140668     29.140668     58.281337
     -4.319319     31.412083     31.412083     62.824167
     -4.309309     33.257833     33.257833     66.515666
     -4.299299     34.865842     34.865842     69.731683
     -4.289289     36.558402     36.558402     73.116804
     -4.279279     38.620076     38.620076     77.240152
     -4.269269     41.126463     41.126463     82.252926
     -4.259259     43.837686     43.837686     87.675372
     -4.249249     46.209008     46.209008     92.418017
     -4.239239     47.539226     47.539226     95.078452
     -4.229229     47.222714     47.222714     94.445429
     -4.219219     45.010738     45.010738     90.021476
     -4.209209     41.160128     41.160128     82.320257
     -4.199199     36.384335     36.384335     72.768670
     -4.189189     31.615500     31.615500     63.230999
     -4.179179     27.684548     27.684548     55.369095
     -4.169169     25.067662     25.067662     50.135323
     -4.159159     23.806725     23.806725     47.613449
     -4.149149     23.617042     23.617042     47.234084
     -4.139139     24.105736     24.105736     48.211472
     -4.129129     24.983635     24.983635     49.967270
     -4.119119     26.171317     26.171317     52.342635
     -4.109109     27.757336     27.757336     55.514672
     -4.099099     29.836947     29.836947     59.673893
     -4.089089     32.319033     32.319033     64.638067
     -4.079079     34.813963     34.813963     69.627925
     -4.069069     36.686235     36.686235     73.372470
     -4.059059     37.274234     37.274234     74.548467
     -4.049049     36.181930     36.181930     72.363860
     -4.039039     33.493789     33.493789     66.987579
     -4.029029     29.795643     29.795643     59.591286
     -4.019019     25.987499     25.987499     51.974998
     -4.009009     22.984844     22.984844     45.969688
     -3.998999     21.453602     21.453602     42.907205
     -3.988989     21.685737     21.685737     43.371475
     -3.978979     23.631499     23.631499     47.262999
     -3.968969     27.023834     27.023834     54.047667
     -3.958959     31.507072     31.507072     63.014145
     -3.948949     36.716946     36.716946     73.433892
     -3.938939     42.313925     42.313925     84.627851
     -3.928929     48.001969     48.001969     96.003938
     -3.918919     53.552325     53.552325    107.104650
     -3.908909     58.817723     58.817723    117.635446
     -3.898899     63.704183     63.704183    127.408366
     -3.888889     68.087824     68.087824    136.175648
     -3.878879     71.709910     71.709910    143.419819
     -3.868869     74.118625     74.118625    148.237250
     -3.858859     74.719843     74.719843    149.439687
     -3.848849     72.948488     72.948488    145.896976
     -3.838839     68.504168     68.504168    137.008336
     -3.828829     61.549029     61.549029    123.098058
     -3.818819     52.770366     52.770366    105.540731
     -3.808809     43.265417     43.265417     86.530834
     -3.798799     34.282562     34.282562     68.565124
     -3.788789     26.911800     26.911800     53.823601
     -3.778779     21.830849     21.830849     43.661699
     -3.768769     19.181532     19.181532     38.363064
     -3.758759     18.597744     18.597744     37.195488
     -3.748749     19.358603     19.358603     38.717207
     -3.738739     20.613577     20.613577     41.227154
     -3.728729     21.619734     21.619734     43.239468
     -3.718719     21.936522     21.936522     43.873045
     -3.708709     21.534291     21.534291     43.068581
     -3.698699     20.788310     20.788310     41.576620
     -3.688689     20.352581     20.352581     40.705161
     -3.678679     20.938097     20.938097     41.876193
     -3.668669     23.053899     23.053899     46.107797
     -3.658659     26.794054     26.794054     53.588108
     -3.648649     31.752801     31.752801     63.505602
     -3.638639     37.112078     37.112078     74.224156
     -3.628629     41.877775     41.877775     83.755549
     -3.618619     45.174139     45.174139     90.348278
     -3.608609     46.479480     46.479480     92.958959
     -3.598599     45.720041     45.720041     91.440082
     -3.588589     43.212496     43.212496     86.424992
     -3.578579     39.511175     39.511175     79.022351
     -3.568569     35.236048     35.236048     70.472095
     -3.558559     30.932944     30.932944     61.865888
     -3.548549     26.982023     26.982023     53.964045
     -3.538539     23.554402     23.554402     47.108805
     -3.528529     20.620524     20.620524     41.241047
     -3.518519     18.014574     18.014574     36.029148
     -3.508509     15.541698     15.541698     31.083397
     -3.498498     13.089079     13.089079     26.178159
     -3.488488     10.693036     10.693036     21.386073
     -3.478478      8.534336      8.534336     17.068671
     -3.468468      6.869798      6.869798     13.739597
     -3.458458      5.934862      5.934862     11.869723
     -3.448448      5.855232      5.855232     11.710464
     -3.438438      6.593043      6.593043     13.186086
     -3.428428      7.939619      7.939619     15.879239
     -3.418418      9.559696      9.559696     19.119392
     -3.408408     11.083956     11.083956     22.167913
     -3.398398     12.230052     12.230052     24.460103
     -3.388388     12.911645     12.911645     25.823289
     -3.378378     13.287605     13.287605     26.575210
     -3.368368     13.722611     13.722611     27.445223
     -3.358358     14.669785     14.669785     29.339569
     -3.348348     16.520914     16.520914     33.041828
     -3.338338     19.477106     19.477106     38.954212
     -3.328328     23.471238     23.471238     46.942476
     -3.318318     28.145999     28.145999     56.291997
     -3.308308     32.882336     32.882336     65.764672
     -3.298298     36.884309     36.884309     73.768618
     -3.288288     39.332584     39.332584     78.665167
     -3.278278     39.594817     39.594817     79.189634
     -3.268268     37.433046     37.433046     74.866091
     -3.258258     33.116520     33.116520     66.233040
     -3.248248     27.372262     27.372262     54.744523
     -3.238238     21.181551     21.181551     42.363102
     -3.228228     15.508836     15.508836     31.017671
     -3.218218     11.075236     11.075236     22.150471
     -3.208208      8.248566      8.248566     16.497133
     -3.198198      7.051979      7.051979     14.103958
     -3.188188      7.245302      7.245302     14.490605
     -3.178178      8.430857      8.430857     16.861713
     -3.168168     10.162194     10.162194     20.324387
     -3.158158     12.054669     12.054669     24.109339
     -3.148148     13.890164     13.890164     27.780329
     -3.138138     15.684607     15.684607     31.369213
     -3.128128     17.675577     17.675577     35.351153
     -3.118118     20.209819     20.209819     40.419637
     -3.108108     23.560659     23.560659     47.121318
     -3.098098     27.751475     27.751475     55.502949
     -3.088088     32.469946     32.469946     64.939893
     -3.078078     37.118618     37.118618     74.237235
     -3.068068     40.981416     40.981416     81.962832
     -3.058058     43.431407     43.431407     86.862813
     -3.048048     44.092320     44.092320     88.184639
     -3.038038     42.899222     42.899222     85.798444
     -3.028028     40.059203     40.059203     80.118407
     -3.018018     35.957551     35.957551     71.915101
     -3.008008     31.065754     31.065754     62.131507
     -2.997998     25.885489     25.885489     51.770978
     -2.987988     20.928073     20.928073     41.856145
     -2.977978     16.705435     16.705435     33.410869
     -2.967968     13.706955     13.706955     27.413911
     -2.957958     12.350161     12.350161     24.700322
     -2.947948     12.909293     12.909293     25.818587
     -2.937938     15.436992     15.436992     30.873983
     -2.927928     19.701919     19.701919     39.403839
     -2.917918     25.170968     25.170968     50.341936
     -2.907908     31.063586     31.063586     62.127171
     -2.897898     36.489120     36.489120     72.978240
     -2.887888     40.644556     40.644556     81.289112
     -2.877878     43.013267     43.013267     86.026535
     -2.867868     43.488436     43.488436     86.976872
     -2.857858     42.364507     42.364507     84.729014
     -2.847848     40.193176     40.193176     80.386351
     -2.837838     37.562391     37.562391     75.124782
     -2.827828     34.894388     34.894388     69.788775
     -2.817818     32.349428     32.349428     64.698856
     -2.807808     29.868260     29.868260     59.736520
     -2.797798     27.315793     27.315793     54.631587
     -2.787788     24.639212     24.639212     49.278424
     -2.777778     21.952441     21.952441     43.904883
     -2.767768     19.505846     19.505846     39.011692
     -2.757758     17.568201     17.568201     35.136401
     -2.747748     16.298190     16.298190     32.596379
     -2.737738     15.685661     15.685661     31.371322
     -2.727728     15.596545     15.596545     31.193090
     -2.717718     15.887502     15.887502     31.775003
     -2.707708     16.509636     16.509636     33.019271
     -2.697698     17.526784     17.526784     35.053569
     -2.687688     19.031736     19.031736     38.063472
     -2.677678     21.016777     21.016777     42.033554
     -2.667668     23.292931     23.292931     46.585862
     -2.657658     25.525537     25.525537     51.051075
     -2.647648     27.376716     27.376716     54.753432
     -2.637638     28.669735     28.669735     57.339471
     -2.627628     29.470735     29.470735     58.941469
     -2.617618     30.035713     30.035713     60.071427
     -2.607608     30.658464     30.658464     61.316928
     -2.597598     31.514639     31.514639     63.029279
     -2.587588     32.587327     32.587327     65.174654
     -2.577578     33.693928     33.693928     67.387855
     -2.567568     34.568485     34.568485     69.136970
     -2.557558     34.937734     34.937734     69.875467
     -2.547548     34.565651     34.565651     69.131302
     -2.537538     33.287510     33.287510     66.575019
     -2.527528     31.064078     31.064078     62.128156
     -2.517518     28.052487     28.052487     56.104974
     -2.507508     24.647838     24.647838     49.295676
     -2.497497     21.441924     21.441924     42.883848
     -2.487487     19.084146     19.084146     38.168291
     -2.477477     18.087928     18.087928     36.175856
     -2.467467     18.663696     18.663696     37.327392
     -2.457457     20.654050     20.654050     41.308101
     -2.447447     23.603104     23.603104     47.206208
     -2.437437     26.932899     26.932899     53.865799
     -2.427427     30.151825     30.151825     60.303650
     -2.417417     33.003749     33.003749     66.007498
     -2.407407     35.491078     35.491078     70.982155
     -2.397397     37.762359     37.762359     75.524717
     -2.387387     39.920955     39.920955     79.841911
     -2.377377     41.854180     41.854180     83.708361
     -2.367367     43.178706     43.178706     86.357413
     -2.357357     43.345499     43.345499     86.690999
     -2.347347     41.868040     41.868040     83.736081
     -2.337337     38.570582     38.570582     77.141164
     -2.327327     33.736572     33.736572     67.473144
     -2.317317     28.083944     28.083944     56.167889
     -2.307307     22.578720     22.578720     45.157440
     -2.297297     18.171852     18.171852     36.343703
     -2.287287     15.566156     15.566156     31.132311
     -2.277277     15.086841     15.086841     30.173682
     -2.267267     16.671028     16.671028     33.342056
     -2.257257     19.945673     19.945673     39.891345
     -2.247247     24.346712     24.346712     48.693424
     -2.237237     29.238717     29.238717     58.477434
     -2.227227     34.009257     34.009257     68.018514
     -2.217217     38.127011     38.127011     76.254023
     -2.207207     41.166896     41.166896     82.333791
     -2.197197     42.818687     42.818687     85.637374
     -2.187187     42.901651     42.901651     85.803302
     -2.177177     41.398150     41.398150     82.796300
     -2.167167     38.494178     38.494178     76.988355
     -2.157157     34.589500     34.589500     69.179001
     -2.147147     30.238081     30.238081     60.476162
     -2.137137     26.012369     26.012369     52.024738
     -2.127127     22.336822     22.336822     44.673644
     -2.117117     19.369312     19.369312     38.738624
     -2.107107     16.993925     16.993925     33.987850
     -2.097097     14.929550     14.929550     29.859099
     -2.087087     12.894172     12.894172     25.788345
     -2.077077     10.738526     10.738526     21.477051
     -2.067067      8.489583      8.489583     16.979167
     -2.057057      6.301761      6.301761     12.603522
     -2.047047      4.361509      4.361509      8.723017
     -2.037037      2.802768      2.802768      5.605536
     -2.027027      1.668557      1.668557      3.337114
     -2.017017      0.920358      0.920358      1.840716
     -2.007007      0.474453      0.474453      0.948906
     -1.996997      0.241137      0.241137      0.482273
     -1.986987      0.152694      0.152694      0.305388
     -1.976977      0.178078      0.178078      0.356156
     -1.966967      0.328689      0.328689      0.657379
     -1.956957      0.659143      0.659143      1.318286
     -1.946947      1.262315      1.262315      2.524630
     -1.936937      2.253881      2.253881      4.507761
     -1.926927      3.741960      3.741960      7.483919
     -1.916917      5.784191      5.784191     11.568382
     -1.906907      8.344994      8.344994     16.689988
     -1.896897     11.273350     11.273350     22.546701
     -1.886887     14.318885     14.318885     28.637771
     -1.876877     17.189520     17.189520     34.379040
     -1.866867     19.634020     19.634020     39.268041
     -1.856857     21.518285     21.518285     43.036570
     -1.846847     22.862838     22.862838     45.725677
     -1.836837     23.821050     23.821050     47.642099
     -1.826827     24.598709     24.598709     49.197417
     -1.816817     25.340595     25.340595     50.681189
     -1.806807     26.031032     26.031032     52.062063
     -1.796797     26.460785     26.460785     52.921570
     -1.786787     26.290367     26.290367     52.580734
     -1.776777     25.192853     25.192853     50.385705
     -1.766767     23.012074     23.012074     46.024148
     -1.756757     19.857105     19.857105     39.714209
     -1.746747     16.085674     16.085674     32.171347
     -1.736737     12.189198     12.189198     24.378396
     -1.726727      8.641689      8.641689     17.283377
     -1.716717      5.784230      5.784230     11.568460
     -1.706707      3.785671      3.785671      7.571342
     -1.696697      2.673561      2.673561      5.347122
     -1.686687      2.396053      2.396053      4.792106
     -1.676677      2.870068      2.870068      5.740136
     -1.666667      3.990101      3.990101      7.980203
     -1.656657      5.601861      5.601861     11.203722
     -1.646647      7.470010      7.470010     14.940020
     -1.636637      9.277342      9.277342     18.554684
     -1.626627     10.678503     10.678503     21.357006
