# EIG2DOS: Utility for SIESTA to obtain the electronic density of states
#  E. Artacho, Apr 1999, A. Garcia, Apr 2012
#  Nick R. Papior, Feb 2017
# ------------------------------------------
# Eigenvalues calculated from a non-polarized calculation
# Eigenvalues read from siesta.EIG
# Kpoint weights read from siesta.KP
# Using smearing parameter:   0.0500
# Using 1000 points in the energy range
# Selected bands: 1 to: 2981
# Emin, Emax in file for selected band(s):    -27.1945984    218.3476350
# Nbands, Nspin, Nk   =   2981     1     1
# E_F                 =    -4.2582 eV --> (shifted to ZERO)
# Broadening          =     0.0500 eV
#
#        E            N(up)  (=)   N(down)         Ntot
     -5.000000     36.392850     36.392850     72.785700
     -4.989990     39.608757     39.608757     79.217514
     -4.979980     41.982972     41.982972     83.965943
     -4.969970     43.161779     43.161779     86.323559
     -4.959960     42.978384     42.978384     85.956767
     -4.949950     41.493721     41.493721     82.987443
     -4.939940     38.990464     38.990464     77.980929
     -4.929930     35.934692     35.934692     71.869385
     -4.919920     32.925419     32.925419     65.850837
     -4.909910     30.638288     30.638288     61.276576
     -4.899900     29.747095     29.747095     59.494191
     -4.889890     30.797231     30.797231     61.594462
     -4.879880     34.028239     34.028239     68.056479
     -4.869870     39.195561     39.195561     78.391121
     -4.859860     45.489721     45.489721     90.979441
     -4.849850     51.647290     51.647290    103.294580
     -4.839840     56.270723     56.270723    112.541446
     -4.829830     58.257456     58.257456    116.514912
     -4.819820     57.157040     57.157040    114.314080
     -4.809810     53.291651     53.291651    106.583303
     -4.799800     47.589765     47.589765     95.179530
     -4.789790     41.225768     41.225768     82.451536
     -4.779780     35.240748     35.240748     70.481496
     -4.769770     30.298037     30.298037     60.596074
     -4.759760     26.630643     26.630643     53.261286
     -4.749750     24.137898     24.137898     48.275795
     -4.739740     22.541221     22.541221     45.082442
     -4.729730     21.520534     21.520534     43.041067
     -4.719720     20.793588     20.793588     41.587176
     -4.709710     20.139096     20.139096     40.278192
     -4.699700     19.388245     19.388245     38.776490
     -4.689690     18.417717     18.417717     36.835434
     -4.679680     17.170516     17.170516     34.341032
     -4.669670     15.708871     15.708871     31.417742
     -4.659660     14.275079     14.275079     28.550158
     -4.649650     13.318172     13.318172     26.636344
     -4.639640     13.448788     13.448788     26.897576
     -4.629630     15.309291     15.309291     30.618581
     -4.619620     19.379141     19.379141     38.758283
     -4.609610     25.766148     25.766148     51.532296
     -4.599600     34.055804     34.055804     68.111608
     -4.589590     43.293915     43.293915     86.587830
     -4.579580     52.148988     52.148988    104.297977
     -4.569570     59.237173     59.237173    118.474347
     -4.559560     63.515278     63.515278    127.030556
     -4.549550     64.598057     64.598057    129.196114
     -4.539540     62.869474     62.869474    125.738947
     -4.529530     59.335436     59.335436    118.670872
     -4.519520     55.271699     55.271699    110.543398
     -4.509510     51.803522     51.803522    103.607043
     -4.499499     49.575153     49.575153     99.150306
     -4.489489     48.620604     48.620604     97.241209
     -4.479479     48.457826     48.457826     96.915653
     -4.469469     48.339614     48.339614     96.679228
     -4.459459     47.545651     47.545651     95.091303
     -4.449449     45.607514     45.607514     91.215028
     -4.439439     42.409182     42.409182     84.818364
     -4.429429     38.167735     38.167735     76.335470
     -4.419419     33.340396     33.340396     66.680791
     -4.409409     28.510005     28.510005     57.020011
     -4.399399     24.278850     24.278850     48.557701
     -4.389389     21.173809     21.173809     42.347618
     -4.379379     19.556388     19.556388     39.112776
     -4.369369     19.544780     19.544780     39.089560
     -4.359359     20.975883     20.975883     41.951766
     -4.349349     23.439431     23.439431     46.878862
     -4.339339     26.392231     26.392231     52.784462
     -4.329329     29.319971     29.319971     58.639942
     -4.319319     31.884525     31.884525     63.769051
     -4.309309     33.997647     33.997647     67.995294
     -4.299299     35.795917     35.795917     71.591835
     -4.289289     37.534165     37.534165     75.068330
     -4.279279     39.441173     39.441173     78.882346
     -4.269269     41.585717     41.585717     83.171433
     -4.259259     43.793893     43.793893     87.587785
     -4.249249     45.650878     45.650878     91.301756
     -4.239239     46.606331     46.606331     93.212663
     -4.229229     46.168961     46.168961     92.337921
     -4.219219     44.125010     44.125010     88.250020
     -4.209209     40.678857     40.678857     81.357713
     -4.199199     36.430279     36.430279     72.860558
     -4.189189     32.179364     32.179364     64.358729
     -4.179179     28.644880     28.644880     57.289761
     -4.169169     26.232538     26.232538     52.465077
     -4.159159     24.961210     24.961210     49.922420
     -4.149149     24.567560     24.567560     49.135119
     -4.139139     24.717953     24.717953     49.435906
     -4.129129     25.210000     25.210000     50.420001
     -4.119119     26.060353     26.060353     52.120707
     -4.109109     27.435845     27.435845     54.871691
     -4.099099     29.464090     29.464090     58.928180
     -4.089089     32.026326     32.026326     64.052652
     -4.079079     34.658063     34.658063     69.316126
     -4.069069     36.640113     36.640113     73.280226
     -4.059059     37.263115     37.263115     74.526230
     -4.049049     36.143298     36.143298     72.286595
     -4.039039     33.424146     33.424146     66.848293
     -4.029029     29.753987     29.753987     59.507975
     -4.019019     26.053288     26.053288     52.106576
     -4.009009     23.198195     23.198195     46.396391
     -3.998999     21.777001     21.777001     43.554002
     -3.988989     22.012056     22.012056     44.024112
     -3.978979     23.833220     23.833220     47.666439
     -3.968969     27.013593     27.013593     54.027186
     -3.958959     31.275728     31.275728     62.551457
     -3.948949     36.332387     36.332387     72.664774
     -3.938939     41.887888     41.887888     83.775776
     -3.928929     47.646648     47.646648     95.293296
     -3.918919     53.346825     53.346825    106.693651
     -3.908909     58.792343     58.792343    117.584686
     -3.898899     63.839500     63.839500    127.679000
     -3.888889     68.322341     68.322341    136.644682
     -3.878879     71.952976     71.952976    143.905951
     -3.868869     74.268552     74.268552    148.537103
     -3.858859     74.686596     74.686596    149.373192
     -3.848849     72.676919     72.676919    145.353838
     -3.838839     67.990973     67.990973    135.981946
     -3.828829     60.847116     60.847116    121.694233
     -3.818819     51.978128     51.978128    103.956257
     -3.808809     42.503409     42.503409     85.006819
     -3.798799     33.664026     33.664026     67.328052
     -3.788789     26.515114     26.515114     53.030228
     -3.778779     21.681235     21.681235     43.362470
     -3.768769     19.246912     19.246912     38.493824
     -3.758759     18.800090     18.800090     37.600179
     -3.748749     19.598094     19.598094     39.196187
     -3.738739     20.799132     20.799132     41.598265
     -3.728729     21.697130     21.697130     43.394261
     -3.718719     21.905335     21.905335     43.810671
     -3.708709     21.447666     21.447666     42.895331
     -3.698699     20.734418     20.734418     41.468835
     -3.688689     20.422478     20.422478     40.844955
     -3.678679     21.190138     21.190138     42.380275
     -3.668669     23.487860     23.487860     46.975720
     -3.658659     27.346374     27.346374     54.692748
     -3.648649     32.316655     32.316655     64.633309
     -3.638639     37.574646     37.574646     75.149291
     -3.628629     42.158000     42.158000     84.316001
     -3.618619     45.243877     45.243877     90.487755
     -3.608609     46.360500     46.360500     92.720999
     -3.598599     45.463032     45.463032     90.926064
     -3.588589     42.872672     42.872672     85.745344
     -3.578579     39.132985     39.132985     78.265971
     -3.568569     34.849862     34.849862     69.699723
     -3.558559     30.557880     30.557880     61.115760
     -3.548549     26.627792     26.627792     53.255585
     -3.538539     23.220448     23.220448     46.440896
     -3.528529     20.296466     20.296466     40.592931
     -3.518519     17.686406     17.686406     35.372812
     -3.508509     15.203318     15.203318     30.406637
     -3.498498     12.753453     12.753453     25.506907
     -3.488488     10.396259     10.396259     20.792518
     -3.478478      8.329437      8.329437     16.658874
     -3.468468      6.811971      6.811971     13.623941
     -3.458458      6.062636      6.062636     12.125272
     -3.448448      6.172736      6.172736     12.345472
     -3.438438      7.058559      7.058559     14.117118
     -3.428428      8.465912      8.465912     16.931825
     -3.418418     10.030207     10.030207     20.060415
     -3.408408     11.383945     11.383945     22.767890
     -3.398398     12.284257     12.284257     24.568513
     -3.388388     12.714720     12.714720     25.429439
     -3.378378     12.914961     12.914961     25.829921
     -3.368368     13.317123     13.317123     26.634246
     -3.358358     14.408751     14.408751     28.817502
     -3.348348     16.572194     16.572194     33.144388
     -3.338338     19.953078     19.953078     39.906156
     -3.328328     24.388735     24.388735     48.777471
     -3.318318     29.403323     29.403323     58.806646
     -3.308308     34.268108     34.268108     68.536215
     -3.298298     38.129406     38.129406     76.258812
     -3.288288     40.201167     40.201167     80.402335
     -3.278278     39.988873     39.988873     79.977745
     -3.268268     37.470557     37.470557     74.941115
     -3.258258     33.146885     33.146885     66.293770
     -3.248248     27.912588     27.912588     55.825176
     -3.238238     22.782889     22.782889     45.565777
     -3.228228     18.582156     18.582156     37.164311
     -3.218218     15.721718     15.721718     31.443436
     -3.208208     14.149662     14.149662     28.299323
     -3.198198     13.476492     13.476492     26.952985
     -3.188188     13.208964     13.208964     26.417928
     -3.178178     12.989642     12.989642     25.979284
     -3.168168     12.749342     12.749342     25.498684
     -3.158158     12.723046     12.723046     25.446092
     -3.148148     13.336639     13.336639     26.673277
     -3.138138     15.018610     15.018610     30.037220
     -3.128128     18.010949     18.010949     36.021898
     -3.118118     22.243588     22.243588     44.487175
     -3.108108     27.307330     27.307330     54.614660
     -3.098098     32.527053     32.527053     65.054107
     -3.088088     37.111273     37.111273     74.222547
     -3.078078     40.338162     40.338162     80.676323
     -3.068068     41.729010     41.729010     83.458020
     -3.058058     41.158133     41.158133     82.316267
     -3.048048     38.860205     38.860205     77.720410
     -3.038038     35.328393     35.328393     70.656785
     -3.028028     31.142678     31.142678     62.285357
     -3.018018     26.803295     26.803295     53.606590
     -3.008008     22.642556     22.642556     45.285112
     -2.997998     18.844332     18.844332     37.688665
     -2.987988     15.539902     15.539902     31.079804
     -2.977978     12.910831     12.910831     25.821663
     -2.967968     11.235174     11.235174     22.470349
     -2.957958     10.851620     10.851620     21.703241
     -2.947948     12.058010     12.058010     24.116020
     -2.937938     14.984618     14.984618     29.969237
     -2.927928     19.487452     19.487452     38.974904
     -2.917918     25.101732     25.101732     50.203464
     -2.907908     31.084675     31.084675     62.169349
     -2.897898     36.555014     36.555014     73.110029
     -2.887888     40.701987     40.701987     81.403973
     -2.877878     42.999545     42.999545     85.999090
     -2.867868     43.344151     43.344151     86.688301
     -2.857858     42.054213     42.054213     84.108426
     -2.847848     39.724233     39.724233     79.448465
     -2.837838     36.992397     36.992397     73.984795
     -2.827828     34.322091     34.322091     68.644181
     -2.817818     31.890894     31.890894     63.781788
     -2.807808     29.626271     29.626271     59.252543
     -2.797798     27.353053     27.353053     54.706107
     -2.787788     24.963865     24.963865     49.927730
     -2.777778     22.519075     22.519075     45.038150
     -2.767768     20.229476     20.229476     40.458952
     -2.757758     18.345467     18.345467     36.690934
     -2.747748     17.029882     17.029882     34.059765
     -2.737738     16.296283     16.296283     32.592567
     -2.727728     16.047800     16.047800     32.095600
     -2.717718     16.182765     16.182765     32.365529
     -2.707708     16.687178     16.687178     33.374357
     -2.697698     17.642551     17.642551     35.285103
     -2.687688     19.137531     19.137531     38.275062
     -2.677678     21.143492     21.143492     42.286984
     -2.667668     23.447220     23.447220     46.894439
     -2.657658     25.701303     25.701303     51.402605
     -2.647648     27.573659     27.573659     55.147318
     -2.637638     28.906113     28.906113     57.812225
     -2.627628     29.780517     29.780517     59.561033
     -2.617618     30.450223     30.450223     60.900447
     -2.607608     31.182975     31.182975     62.365950
     -2.597598     32.114125     32.114125     64.228249
     -2.587588     33.189957     33.189957     66.379913
     -2.577578     34.210085     34.210085     68.420171
     -2.567568     34.914996     34.914996     69.829993
     -2.557558     35.057035     35.057035     70.114071
     -2.547548     34.436281     34.436281     68.872562
     -2.537538     32.928712     32.928712     65.857423
     -2.527528     30.537770     30.537770     61.075539
     -2.517518     27.460936     27.460936     54.921873
     -2.507508     24.121088     24.121088     48.242175
     -2.497497     21.110781     21.110781     42.221562
     -2.487487     19.042457     19.042457     38.084915
     -2.477477     18.356636     18.356636     36.713273
     -2.467467     19.172638     19.172638     38.345275
     -2.457457     21.252595     21.252595     42.505191
     -2.447447     24.099297     24.099297     48.198594
     -2.437437     27.148291     27.148291     54.296582
     -2.427427     29.972263     29.972263     59.944526
     -2.417417     32.408796     32.408796     64.817592
     -2.407407     34.554731     34.554731     69.109462
     -2.397397     36.628969     36.628969     73.257937
     -2.387387     38.766627     38.766627     77.533255
     -2.377377     40.844427     40.844427     81.688854
     -2.367367     42.431239     42.431239     84.862477
     -2.357357     42.906053     42.906053     85.812106
     -2.347347     41.705939     41.705939     83.411878
     -2.337337     38.596142     38.596142     77.192283
     -2.327327     33.834233     33.834233     67.668465
     -2.317317     28.148071     28.148071     56.296141
     -2.307307     22.538900     22.538900     45.077800
     -2.297297     18.001628     18.001628     36.003255
     -2.287287     15.277964     15.277964     30.555928
     -2.277277     14.720316     14.720316     29.440633
     -2.267267     16.280350     16.280350     32.560699
     -2.257257     19.587913     19.587913     39.175825
     -2.247247     24.071380     24.071380     48.142760
     -2.237237     29.079571     29.079571     58.159143
     -2.227227     33.980424     33.980424     67.960848
     -2.217217     38.224337     38.224337     76.448675
     -2.207207     41.372949     41.372949     82.745898
     -2.197197     43.108458     43.108458     86.216916
     -2.187187     43.247016     43.247016     86.494033
     -2.177177     41.771176     41.771176     83.542351
     -2.167167     38.870035     38.870035     77.740071
     -2.157157     34.948710     34.948710     69.897421
     -2.147147     30.566718     30.566718     61.133436
     -2.137137     26.299618     26.299618     52.599236
     -2.127127     22.571490     22.571490     45.142979
     -2.117117     19.538404     19.538404     39.076809
     -2.107107     17.085342     17.085342     34.170684
     -2.097097     14.937874     14.937874     29.875747
     -2.087087     12.825879     12.825879     25.651757
     -2.077077     10.612881     10.612881     21.225762
     -2.067067      8.334135      8.334135     16.668270
     -2.057057      6.144595      6.144595     12.289190
     -2.047047      4.224101      4.224101      8.448202
     -2.037037      2.696387      2.696387      5.392774
     -2.027027      1.594884      1.594884      3.189767
     -2.017017      0.874962      0.874962      1.749924
     -2.007007      0.451135      0.451135      0.902271
     -1.996997      0.235766      0.235766      0.471531
     -1.986987      0.166199      0.166199      0.332399
     -1.976977      0.218822      0.218822      0.437644
     -1.966967      0.414096      0.414096      0.828191
     -1.956957      0.815440      0.815440      1.630881
     -1.946947      1.520308      1.520308      3.040616
     -1.936937      2.638929      2.638929      5.277858
     -1.926927      4.258773      4.258773      8.517545
     -1.916917      6.401209      6.401209     12.802417
     -1.906907      8.986747      8.986747     17.973493
     -1.896897     11.828810     11.828810     23.657621
     -1.886887     14.667704     14.667704     29.335408
     -1.876877     17.238512     17.238512     34.477025
     -1.866867     19.349348     19.349348     38.698696
     -1.856857     20.939747     20.939747     41.879495
     -1.846847     22.095297     22.095297     44.190593
     -1.836837     23.008117     23.008117     46.016234
     -1.826827     23.888817     23.888817     47.777634
     -1.816817     24.854052     24.854052     49.708103
     -1.806807     25.833322     25.833322     51.666643
     -1.796797     26.546809     26.546809     53.093619
     -1.786787     26.585680     26.585680     53.171360
     -1.776777     25.575926     25.575926     51.151851
     -1.766767     23.353331     23.353331     46.706661
     -1.756757     20.060320     20.060320     40.120639
     -1.746747     16.113876     16.113876     32.227751
     -1.736737     12.064732     12.064732     24.129464
     -1.726727      8.423960      8.423960     16.847920
     -1.716717      5.539212      5.539212     11.078424
     -1.706707      3.562165      3.562165      7.124330
     -1.696697      2.493877      2.493877      4.987754
     -1.686687      2.259782      2.259782      4.519563
     -1.676677      2.764524      2.764524      5.529047
     -1.666667      3.900983      3.900983      7.801966
     -1.656657      5.520367      5.520367     11.040734
     -1.646647      7.395320      7.395320     14.790640
     -1.636637      9.214954      9.214954     18.429908
     -1.626627     10.635623     10.635623     21.271247
