# EIG2DOS: Utility for SIESTA to obtain the electronic density of states
#  E. Artacho, Apr 1999, A. Garcia, Apr 2012
#  Nick R. Papior, Feb 2017
# ------------------------------------------
# Eigenvalues calculated from a non-polarized calculation
# Eigenvalues read from siesta.EIG
# Kpoint weights read from siesta.KP
# Using smearing parameter:   0.0500
# Using 1000 points in the energy range
# Selected bands: 1 to: 2981
# Emin, Emax in file for selected band(s):    -27.3674284    218.3959320
# Nbands, Nspin, Nk   =   2981     1     1
# E_F                 =    -4.2032 eV --> (shifted to ZERO)
# Broadening          =     0.0500 eV
#
#        E            N(up)  (=)   N(down)         Ntot
     -5.000000     30.721685     30.721685     61.443371
     -4.989990     35.673221     35.673221     71.346442
     -4.979980     40.515039     40.515039     81.030077
     -4.969970     44.445438     44.445438     88.890876
     -4.959960     46.726004     46.726004     93.452009
     -4.949950     46.924596     46.924596     93.849192
     -4.939940     45.067442     45.067442     90.134884
     -4.929930     41.648714     41.648714     83.297428
     -4.919920     37.512691     37.512691     75.025382
     -4.909910     33.666951     33.666951     67.333902
     -4.899900     31.083368     31.083368     62.166736
     -4.889890     30.513399     30.513399     61.026798
     -4.879880     32.323794     32.323794     64.647587
     -4.869870     36.371868     36.371868     72.743735
     -4.859860     41.970399     41.970399     83.940798
     -4.849850     47.999742     47.999742     95.999484
     -4.839840     53.180646     53.180646    106.361291
     -4.829830     56.440048     56.440048    112.880096
     -4.819820     57.234452     57.234452    114.468903
     -4.809810     55.691999     55.691999    111.383999
     -4.799800     52.507576     52.507576    105.015152
     -4.789790     48.638829     48.638829     97.277659
     -4.779780     44.942005     44.942005     89.884010
     -4.769770     41.905046     41.905046     83.810092
     -4.759760     39.574909     39.574909     79.149819
     -4.749750     37.674599     37.674599     75.349197
     -4.739740     35.819966     35.819966     71.639933
     -4.729730     33.717941     33.717941     67.435883
     -4.719720     31.261969     31.261969     62.523937
     -4.709710     28.509887     28.509887     57.019773
     -4.699700     25.593658     25.593658     51.187317
     -4.689690     22.636968     22.636968     45.273935
     -4.679680     19.736490     19.736490     39.472979
     -4.669670     17.012616     17.012616     34.025232
     -4.659660     14.687708     14.687708     29.375415
     -4.649650     13.131532     13.131532     26.263064
     -4.639640     12.829858     12.829858     25.659716
     -4.629630     14.268344     14.268344     28.536688
     -4.619620     17.760247     17.760247     35.520494
     -4.609610     23.272639     23.272639     46.545279
     -4.599600     30.318971     30.318971     60.637943
     -4.589590     37.980554     37.980554     75.961108
     -4.579580     45.086559     45.086559     90.173118
     -4.569570     50.521162     50.521162    101.042324
     -4.559560     53.559708     53.559708    107.119416
     -4.549550     54.101374     54.101374    108.202748
     -4.539540     52.692480     52.692480    105.384960
     -4.529530     50.317537     50.317537    100.635074
     -4.519520     48.035495     48.035495     96.070990
     -4.509510     46.606268     46.606268     93.212535
     -4.499499     46.254671     46.254671     92.509342
     -4.489489     46.655818     46.655818     93.311636
     -4.479479     47.129005     47.129005     94.258011
     -4.469469     46.941740     46.941740     93.883480
     -4.459459     45.590074     45.590074     91.180147
     -4.449449     42.948718     42.948718     85.897436
     -4.439439     39.256655     39.256655     78.513310
     -4.429429     34.982101     34.982101     69.964202
     -4.419419     30.655070     30.655070     61.310139
     -4.409409     26.746789     26.746789     53.493578
     -4.399399     23.624499     23.624499     47.248998
     -4.389389     21.554080     21.554080     43.108161
     -4.379379     20.699742     20.699742     41.399484
     -4.369369     21.092760     21.092760     42.185520
     -4.359359     22.587971     22.587971     45.175942
     -4.349349     24.857369     24.857369     49.714738
     -4.339339     27.458479     27.458479     54.916957
     -4.329329     29.969048     29.969048     59.938097
     -4.319319     32.132812     32.132812     64.265623
     -4.309309     33.945590     33.945590     67.891180
     -4.299299     35.634609     35.634609     71.269219
     -4.289289     37.530124     37.530124     75.060249
     -4.279279     39.873983     39.873983     79.747966
     -4.269269     42.639250     42.639250     85.278501
     -4.259259     45.441411     45.441411     90.882822
     -4.249249     47.599220     47.599220     95.198439
     -4.239239     48.349051     48.349051     96.698102
     -4.229229     47.143489     47.143489     94.286977
     -4.219219     43.907957     43.907957     87.815913
     -4.209209     39.129366     39.129366     78.258733
     -4.199199     33.721639     33.721639     67.443278
     -4.189189     28.721497     28.721497     57.442994
     -4.179179     24.951516     24.951516     49.903033
     -4.169169     22.797217     22.797217     45.594434
     -4.159159     22.179512     22.179512     44.359023
     -4.149149     22.706064     22.706064     45.412128
     -4.139139     23.908792     23.908792     47.817584
     -4.129129     25.451086     25.451086     50.902171
     -4.119119     27.216386     27.216386     54.432773
     -4.109109     29.249465     29.249465     58.498930
     -4.099099     31.589694     31.589694     63.179388
     -4.089089     34.089352     34.089352     68.178703
     -4.079079     36.326385     36.326385     72.652771
     -4.069069     37.682967     37.682967     75.365935
     -4.059059     37.575904     37.575904     75.151808
     -4.049049     35.734101     35.734101     71.468201
     -4.039039     32.379140     32.379140     64.758280
     -4.029029     28.209043     28.209043     56.418086
     -4.019019     24.189083     24.189083     48.378167
     -4.009009     21.252196     21.252196     42.504392
     -3.998999     20.045463     20.045463     40.090927
     -3.988989     20.815826     20.815826     41.631652
     -3.978979     23.444720     23.444720     46.889441
     -3.968969     27.573117     27.573117     55.146234
     -3.958959     32.740065     32.740065     65.480129
     -3.948949     38.485805     38.485805     76.971611
     -3.938939     44.412749     44.412749     88.825498
     -3.928929     50.220089     50.220089    100.440178
     -3.918919     55.719842     55.719842    111.439683
     -3.908909     60.821599     60.821599    121.643198
     -3.898899     65.469315     65.469315    130.938630
     -3.888889     69.538584     69.538584    139.077168
     -3.878879     72.740652     72.740652    145.481304
     -3.868869     74.597679     74.597679    149.195358
     -3.858859     74.531585     74.531585    149.063170
     -3.848849     72.053716     72.053716    144.107432
     -3.838839     66.985412     66.985412    133.970825
     -3.828829     59.613529     59.613529    119.227057
     -3.818819     50.705481     50.705481    101.410962
     -3.808809     41.365251     41.365251     82.730503
     -3.798799     32.776263     32.776263     65.552526
     -3.788789     25.918702     25.918702     51.837403
     -3.778779     21.351698     21.351698     42.703397
     -3.768769     19.119842     19.119842     38.239684
     -3.758759     18.798106     18.798106     37.596211
     -3.748749     19.649506     19.649506     39.299013
     -3.738739     20.846223     20.846223     41.692445
     -3.728729     21.697450     21.697450     43.394899
     -3.718719     21.830942     21.830942     43.661884
     -3.708709     21.285882     21.285882     42.571764
     -3.698699     20.491259     20.491259     40.982517
     -3.688689     20.127290     20.127290     40.254580
     -3.678679     20.897551     20.897551     41.795103
     -3.668669     23.271927     23.271927     46.543854
     -3.658659     27.283474     27.283474     54.566948
     -3.648649     32.459310     32.459310     64.918620
     -3.638639     37.925605     37.925605     75.851210
     -3.628629     42.657947     42.657947     85.315894
     -3.618619     45.782393     45.782393     91.564786
     -3.608609     46.809005     46.809005     93.618010
     -3.598599     45.716469     45.716469     91.432939
     -3.588589     42.881625     42.881625     85.763249
     -3.578579     38.913212     38.913212     77.826423
     -3.568569     34.468309     34.468309     68.936619
     -3.558559     30.105285     30.105285     60.210570
     -3.548549     26.191772     26.191772     52.383544
     -3.538539     22.869126     22.869126     45.738251
     -3.528529     20.075649     20.075649     40.151298
     -3.518519     17.628516     17.628516     35.257032
     -3.508509     15.345459     15.345459     30.690918
     -3.498498     13.162882     13.162882     26.325764
     -3.488488     11.200120     11.200120     22.400241
     -3.478478      9.740209      9.740209     19.480417
     -3.468468      9.133230      9.133230     18.266460
     -3.458458      9.657478      9.657478     19.314957
     -3.448448     11.385513     11.385513     22.771025
     -3.438438     14.100691     14.100691     28.201381
     -3.428428     17.301031     17.301031     34.602061
     -3.418418     20.308272     20.308272     40.616544
     -3.408408     22.464757     22.464757     44.929514
     -3.398398     23.356423     23.356423     46.712845
     -3.388388     22.972361     22.972361     45.944723
     -3.378378     21.726469     21.726469     43.452938
     -3.368368     20.325893     20.325893     40.651787
     -3.358358     19.542095     19.542095     39.084190
     -3.348348     19.979040     19.979040     39.958081
     -3.338338     21.917476     21.917476     43.834952
     -3.328328     25.262294     25.262294     50.524588
     -3.318318     29.573741     29.573741     59.147482
     -3.308308     34.153051     34.153051     68.306102
     -3.298298     38.171877     38.171877     76.343753
     -3.288288     40.846685     40.846685     81.693370
     -3.278278     41.636828     41.636828     83.273656
     -3.268268     40.401792     40.401792     80.803583
     -3.258258     37.436244     37.436244     74.872489
     -3.248248     33.345718     33.345718     66.691436
     -3.238238     28.812713     28.812713     57.625427
     -3.228228     24.369761     24.369761     48.739522
     -3.218218     20.288642     20.288642     40.577284
     -3.208208     16.618042     16.618042     33.236085
     -3.198198     13.313834     13.313834     26.627668
     -3.188188     10.368494     10.368494     20.736987
     -3.178178      7.874253      7.874253     15.748505
     -3.168168      6.013589      6.013589     12.027178
     -3.158158      5.011926      5.011926     10.023851
     -3.148148      5.088170      5.088170     10.176340
     -3.138138      6.412669      6.412669     12.825338
     -3.128128      9.060101      9.060101     18.120202
     -3.118118     12.947781     12.947781     25.895561
     -3.108108     17.774876     17.774876     35.549753
     -3.098098     23.003037     23.003037     46.006073
     -3.088088     27.919294     27.919294     55.838588
     -3.078078     31.788605     31.788605     63.577210
     -3.068068     34.051074     34.051074     68.102148
     -3.058058     34.480722     34.480722     68.961443
     -3.048048     33.228734     33.228734     66.457467
     -3.038038     30.728530     30.728530     61.457060
     -3.028028     27.513173     27.513173     55.026345
     -3.018018     24.041186     24.041186     48.082372
     -3.008008     20.614545     20.614545     41.229089
     -2.997998     17.411380     17.411380     34.822759
     -2.987988     14.587884     14.587884     29.175768
     -2.977978     12.371966     12.371966     24.743932
     -2.967968     11.088464     11.088464     22.176928
     -2.957958     11.101236     11.101236     22.202472
     -2.947948     12.698711     12.698711     25.397422
     -2.937938     15.968519     15.968519     31.937039
     -2.927928     20.706317     20.706317     41.412633
     -2.917918     26.394359     26.394359     52.788717
     -2.907908     32.270358     32.270358     64.540715
     -2.897898     37.483108     37.483108     74.966216
     -2.887888     41.298437     41.298437     82.596873
     -2.877878     43.289227     43.289227     86.578453
     -2.867868     43.435853     43.435853     86.871706
     -2.857858     42.090813     42.090813     84.181626
     -2.847848     39.817013     39.817013     79.634027
     -2.837838     37.167488     37.167488     74.334976
     -2.827828     34.503500     34.503500     69.006999
     -2.817818     31.929214     31.929214     63.858427
     -2.807808     29.361484     29.361484     58.722969
     -2.797798     26.683943     26.683943     53.367886
     -2.787788     23.893731     23.893731     47.787462
     -2.777778     21.159624     21.159624     42.319248
     -2.767768     18.765429     18.765429     37.530859
     -2.757758     16.980297     16.980297     33.960594
     -2.747748     15.938496     15.938496     31.876992
     -2.737738     15.601463     15.601463     31.202926
     -2.727728     15.820287     15.820287     31.640574
     -2.717718     16.450748     16.450748     32.901497
     -2.707708     17.438179     17.438179     34.876358
     -2.697698     18.810685     18.810685     37.621369
     -2.687688     20.585350     20.585350     41.170699
     -2.677678     22.658852     22.658852     45.317704
     -2.667668     24.772560     24.772560     49.545121
     -2.657658     26.594835     26.594835     53.189670
     -2.647648     27.879864     27.879864     55.759728
     -2.637638     28.602503     28.602503     57.205005
     -2.627628     28.977932     28.977932     57.955863
     -2.617618     29.348911     29.348911     58.697822
     -2.607608     30.008618     30.008618     60.017237
     -2.597598     31.062022     31.062022     62.124045
     -2.587588     32.392047     32.392047     64.784095
     -2.577578     33.722549     33.722549     67.445097
     -2.567568     34.717715     34.717715     69.435430
     -2.557558     35.061683     35.061683     70.123367
     -2.547548     34.506819     34.506819     69.013638
     -2.537538     32.916492     32.916492     65.832984
     -2.527528     30.323794     30.323794     60.647588
     -2.517518     26.989826     26.989826     53.979652
     -2.507508     23.413665     23.413665     46.827330
     -2.497497     20.253703     20.253703     40.507406
     -2.487487     18.164734     18.164734     36.329468
     -2.477477     17.605529     17.605529     35.211058
     -2.467467     18.694987     18.694987     37.389974
     -2.457457     21.179400     21.179400     42.358799
     -2.447447     24.528745     24.528745     49.057490
     -2.437437     28.126641     28.126641     56.253282
     -2.427427     31.477519     31.477519     62.955037
     -2.417417     34.343305     34.343305     68.686610
     -2.407407     36.749066     36.749066     73.498132
     -2.397397     38.855564     38.855564     77.711129
     -2.387387     40.762103     40.762103     81.524206
     -2.377377     42.342959     42.342959     84.685918
     -2.367367     43.211356     43.211356     86.422712
     -2.357357     42.845256     42.845256     85.690511
     -2.347347     40.825562     40.825562     81.651123
     -2.337337     37.073643     37.073643     74.147286
     -2.327327     31.969651     31.969651     63.939302
     -2.317317     26.292206     26.292206     52.584411
     -2.307307     21.009423     21.009423     42.018845
     -2.297297     17.017416     17.017416     34.034831
     -2.287287     14.930328     14.930328     29.860655
     -2.277277     14.981869     14.981869     29.963738
     -2.267267     17.038970     17.038970     34.077939
     -2.257257     20.688858     20.688858     41.377715
     -2.247247     25.352958     25.352958     50.705916
     -2.237237     30.393453     30.393453     60.786907
     -2.227227     35.195205     35.195205     70.390409
     -2.217217     39.219097     39.219097     78.438193
     -2.207207     42.032989     42.032989     84.065979
     -2.197197     43.333966     43.333966     86.667933
     -2.187187     42.976458     42.976458     85.952916
     -2.177177     41.009582     41.009582     82.019163
     -2.167167     37.705767     37.705767     75.411533
     -2.157157     33.546008     33.546008     67.092016
     -2.147147     29.134355     29.134355     58.268710
     -2.137137     25.050989     25.050989     50.101977
     -2.127127     21.699012     21.699012     43.398023
     -2.117117     19.218931     19.218931     38.437862
     -2.107107     17.514696     17.514696     35.029392
     -2.097097     16.370762     16.370762     32.741524
     -2.087087     15.585271     15.585271     31.170541
     -2.077077     15.040288     15.040288     30.080577
     -2.067067     14.679743     14.679743     29.359487
     -2.057057     14.432539     14.432539     28.865078
     -2.047047     14.153672     14.153672     28.307345
     -2.037037     13.636536     13.636536     27.273071
     -2.027027     12.693039     12.693039     25.386079
     -2.017017     11.248326     11.248326     22.496653
     -2.007007      9.388450      9.388450     18.776900
     -1.996997      7.333765      7.333765     14.667530
     -1.986987      5.358884      5.358884     10.717768
     -1.976977      3.707837      3.707837      7.415674
     -1.966967      2.546336      2.546336      5.092672
     -1.956957      1.962955      1.962955      3.925910
     -1.946947      2.000760      2.000760      4.001520
     -1.936937      2.687698      2.687698      5.375396
     -1.926927      4.041186      4.041186      8.082372
     -1.916917      6.042023      6.042023     12.084046
     -1.906907      8.593349      8.593349     17.186699
     -1.896897     11.491559     11.491559     22.983118
     -1.886887     14.432539     14.432539     28.865079
     -1.876877     17.060423     17.060423     34.120847
     -1.866867     19.046226     19.046226     38.092452
     -1.856857     20.170680     20.170680     40.341360
     -1.846847     20.383794     20.383794     40.767589
     -1.836837     19.820225     19.820225     39.640449
     -1.826827     18.760099     18.760099     37.520198
     -1.816817     17.539588     17.539588     35.079177
     -1.806807     16.435461     16.435461     32.870922
     -1.796797     15.566949     15.566949     31.133897
     -1.786787     14.861400     14.861400     29.722799
     -1.776777     14.106071     14.106071     28.212141
     -1.766767     13.064667     13.064667     26.129333
     -1.756757     11.600614     11.600614     23.201228
     -1.746747      9.745776      9.745776     19.491553
     -1.736737      7.686935      7.686935     15.373869
     -1.726727      5.689642      5.689642     11.379284
     -1.716717      4.008535      4.008535      8.017071
     -1.706707      2.828764      2.828764      5.657528
     -1.696697      2.253622      2.253622      4.507243
     -1.686687      2.321836      2.321836      4.643671
     -1.676677      3.024007      3.024007      6.048013
     -1.666667      4.296872      4.296872      8.593744
     -1.656657      5.997826      5.997826     11.995652
     -1.646647      7.884796      7.884796     15.769592
     -1.636637      9.633288      9.633288     19.266576
     -1.626627     10.906725     10.906725     21.813450
