# EIG2DOS: Utility for SIESTA to obtain the electronic density of states
#  E. Artacho, Apr 1999, A. Garcia, Apr 2012
#  Nick R. Papior, Feb 2017
# ------------------------------------------
# Eigenvalues calculated from a non-polarized calculation
# Eigenvalues read from siesta.EIG
# Kpoint weights read from siesta.KP
# Using smearing parameter:   0.0500
# Using 1000 points in the energy range
# Selected bands: 1 to: 2981
# Emin, Emax in file for selected band(s):    -27.1659531    218.3423840
# Nbands, Nspin, Nk   =   2981     1     1
# E_F                 =    -4.2620 eV --> (shifted to ZERO)
# Broadening          =     0.0500 eV
#
#        E            N(up)  (=)   N(down)         Ntot
     -5.000000     35.560545     35.560545     71.121090
     -4.989990     38.602400     38.602400     77.204800
     -4.979980     41.244251     41.244251     82.488502
     -4.969970     42.986645     42.986645     85.973290
     -4.959960     43.473015     43.473015     86.946029
     -4.949950     42.583985     42.583985     85.167971
     -4.939940     40.471301     40.471301     80.942602
     -4.929930     37.534215     37.534215     75.068431
     -4.919920     34.360262     34.360262     68.720523
     -4.909910     31.650956     31.650956     63.301912
     -4.899900     30.133073     30.133073     60.266146
     -4.889890     30.436698     30.436698     60.873397
     -4.879880     32.927801     32.927801     65.855602
     -4.869870     37.524846     37.524846     75.049692
     -4.859860     43.582193     43.582193     87.164386
     -4.849850     49.940126     49.940126     99.880251
     -4.839840     55.187953     55.187953    110.375905
     -4.829830     58.077280     58.077280    116.154560
     -4.819820     57.922511     57.922511    115.845021
     -4.809810     54.807751     54.807751    109.615503
     -4.799800     49.507096     49.507096     99.014191
     -4.789790     43.168781     43.168781     86.337563
     -4.779780     36.922839     36.922839     73.845678
     -4.769770     31.582605     31.582605     63.165209
     -4.759760     27.530086     27.530086     55.060172
     -4.749750     24.768730     24.768730     49.537461
     -4.739740     23.061802     23.061802     46.123605
     -4.729730     22.072675     22.072675     44.145350
     -4.719720     21.461047     21.461047     42.922094
     -4.709710     20.930014     20.930014     41.860028
     -4.699700     20.243098     20.243098     40.486196
     -4.689690     19.236736     19.236736     38.473471
     -4.679680     17.846702     17.846702     35.693403
     -4.669670     16.150013     16.150013     32.300027
     -4.659660     14.403678     14.403678     28.807356
     -4.649650     13.049751     13.049751     26.099502
     -4.639640     12.661114     12.661114     25.322228
     -4.629630     13.822156     13.822156     27.644311
     -4.619620     16.963727     16.963727     33.927454
     -4.609610     22.194217     22.194217     44.388433
     -4.599600     29.183931     29.183931     58.367863
     -4.589590     37.161245     37.161245     74.322490
     -4.579580     45.055049     45.055049     90.110098
     -4.569570     51.764969     51.764969    103.529938
     -4.559560     56.476139     56.476139    112.952277
     -4.549550     58.896239     58.896239    117.792478
     -4.539540     59.311210     59.311210    118.622421
     -4.529530     58.432154     58.432154    116.864308
     -4.519520     57.100511     57.100511    114.201022
     -4.509510     55.978995     55.978995    111.957991
     -4.499499     55.350744     55.350744    110.701489
     -4.489489     55.087859     55.087859    110.175718
     -4.479479     54.771785     54.771785    109.543571
     -4.469469     53.892486     53.892486    107.784973
     -4.459459     52.040625     52.040625    104.081251
     -4.449449     49.031087     49.031087     98.062175
     -4.439439     44.937142     44.937142     89.874284
     -4.429429     40.051880     40.051880     80.103759
     -4.419419     34.813497     34.813497     69.626994
     -4.409409     29.728469     29.728469     59.456939
     -4.399399     25.306824     25.306824     50.613648
     -4.389389     22.001870     22.001870     44.003739
     -4.379379     20.140696     20.140696     40.281392
     -4.369369     19.848199     19.848199     39.696398
     -4.359359     20.993468     20.993468     41.986936
     -4.349349     23.198799     23.198799     46.397598
     -4.339339     25.932480     25.932480     51.864961
     -4.329329     28.664599     28.664599     57.329198
     -4.319319     31.027449     31.027449     62.054898
     -4.309309     32.914309     32.914309     65.828618
     -4.299299     34.477029     34.477029     68.954059
     -4.289289     36.025871     36.025871     72.051741
     -4.279279     37.869982     37.869982     75.739964
     -4.269269     40.152383     40.152383     80.304766
     -4.259259     42.733971     42.733971     85.467942
     -4.249249     45.173733     45.173733     90.347466
     -4.239239     46.832798     46.832798     93.665597
     -4.229229     47.088602     47.088602     94.177204
     -4.219219     45.588123     45.588123     91.176246
     -4.209209     42.428017     42.428017     84.856033
     -4.199199     38.163481     38.163481     76.326962
     -4.189189     33.625429     33.625429     67.250857
     -4.179179     29.626724     29.626724     59.253447
     -4.169169     26.698175     26.698175     53.396350
     -4.159159     24.974227     24.974227     49.948454
     -4.149149     24.262788     24.262788     48.525575
     -4.139139     24.239226     24.239226     48.478452
     -4.129129     24.653180     24.653180     49.306359
     -4.119119     25.445085     25.445085     50.890171
     -4.109109     26.721301     26.721301     53.442602
     -4.099099     28.605500     28.605500     57.211001
     -4.089089     31.045547     31.045547     62.091094
     -4.079079     33.686451     33.686451     67.372901
     -4.069069     35.900057     35.900057     71.800115
     -4.059059     36.987153     36.987153     73.974306
     -4.049049     36.468980     36.468980     72.937960
     -4.039039     34.321892     34.321892     68.643783
     -4.029029     31.028508     31.028508     62.057016
     -4.019019     27.416620     27.416620     54.833239
     -4.009009     24.372587     24.372587     48.745173
     -3.998999     22.574795     22.574795     45.149590
     -3.988989     22.361214     22.361214     44.722427
     -3.978979     23.752709     23.752709     47.505418
     -3.968969     26.567411     26.567411     53.134821
     -3.958959     30.534903     30.534903     61.069806
     -3.948949     35.357124     35.357124     70.714247
     -3.938939     40.724141     40.724141     81.448281
     -3.928929     46.326396     46.326396     92.652793
     -3.918919     51.889381     51.889381    103.778761
     -3.908909     57.213982     57.213982    114.427963
     -3.898899     62.178656     62.178656    124.357311
     -3.888889     66.675075     66.675075    133.350151
     -3.878879     70.497935     70.497935    140.995871
     -3.868869     73.256052     73.256052    146.512103
     -3.858859     74.380367     74.380367    148.760733
     -3.848849     73.263663     73.263663    146.527327
     -3.838839     69.495876     69.495876    138.991752
     -3.828829     63.096839     63.096839    126.193678
     -3.818819     54.632581     54.632581    109.265163
     -3.808809     45.145367     45.145367     90.290734
     -3.798799     35.910474     35.910474     71.820949
     -3.788789     28.109305     28.109305     56.218610
     -3.778779     22.538626     22.538626     45.077252
     -3.768769     19.449683     19.449683     38.899367
     -3.758759     18.551479     18.551479     37.102958
     -3.748749     19.154623     19.154623     38.309246
     -3.738739     20.398640     20.398640     40.797280
     -3.728729     21.497944     21.497944     42.995887
     -3.718719     21.949077     21.949077     43.898153
     -3.708709     21.654360     21.654360     43.308721
     -3.698699     20.932476     20.932476     41.864953
     -3.688689     20.407560     20.407560     40.815120
     -3.678679     20.797426     20.797426     41.594851
     -3.668669     22.655124     22.655124     45.310248
     -3.658659     26.144792     26.144792     52.289584
     -3.648649     30.935866     30.935866     61.871732
     -3.638639     36.266392     36.266392     72.532784
     -3.628629     41.161042     41.161042     82.322084
     -3.618619     44.720779     44.720779     89.441558
     -3.608609     46.368698     46.368698     92.737397
     -3.598599     45.963249     45.963249     91.926498
     -3.588589     43.760253     43.760253     87.520506
     -3.578579     40.272962     40.272962     80.545925
     -3.568569     36.104487     36.104487     72.208973
     -3.558559     31.806269     31.806269     63.612539
     -3.548549     27.781298     27.781298     55.562596
     -3.538539     24.233269     24.233269     48.466537
     -3.528529     21.166025     21.166025     42.332050
     -3.518519     18.439429     18.439429     36.878858
     -3.508509     15.871276     15.871276     31.742552
     -3.498498     13.348387     13.348387     26.696774
     -3.488488     10.898481     10.898481     21.796962
     -3.478478      8.692108      8.692108     17.384217
     -3.468468      6.979415      6.979415     13.958829
     -3.458458      5.994672      5.994672     11.989344
     -3.448448      5.867001      5.867001     11.734002
     -3.438438      6.564025      6.564025     13.128051
     -3.428428      7.881721      7.881721     15.763441
     -3.418418      9.485966      9.485966     18.971933
     -3.408408     11.003244     11.003244     22.006488
     -3.398398     12.141461     12.141461     24.282923
     -3.388388     12.801097     12.801097     25.602193
     -3.378378     13.128482     13.128482     26.256965
     -3.368368     13.480955     13.480955     26.961911
     -3.358358     14.312620     14.312620     28.625239
     -3.348348     16.025473     16.025473     32.050947
     -3.338338     18.839585     18.839585     37.679169
     -3.328328     22.714934     22.714934     45.429867
     -3.318318     27.328200     27.328200     54.656401
     -3.308308     32.096417     32.096417     64.192834
     -3.298298     36.250863     36.250863     72.501727
     -3.288288     38.975509     38.975509     77.951019
     -3.278278     39.606510     39.606510     79.213019
     -3.268268     37.842791     37.842791     75.685581
     -3.258258     33.879456     33.879456     67.758911
     -3.248248     28.388006     28.388006     56.776011
     -3.238238     22.335432     22.335432     44.670865
     -3.228228     16.714952     16.714952     33.429905
     -3.218218     12.298479     12.298479     24.596959
     -3.208208      9.493809      9.493809     18.987618
     -3.198198      8.326587      8.326587     16.653174
     -3.188188      8.516629      8.516629     17.033258
     -3.178178      9.605738      9.605738     19.211476
     -3.168168     11.107521     11.107521     22.215042
     -3.158158     12.659152     12.659152     25.318305
     -3.148148     14.145310     14.145310     28.290620
     -3.138138     15.748053     15.748053     31.496107
     -3.128128     17.879873     17.879873     35.759746
     -3.118118     20.995362     20.995362     41.990723
     -3.108108     25.337806     25.337806     50.675612
     -3.098098     30.726865     30.726865     61.453729
     -3.088088     36.497703     36.497703     72.995406
     -3.078078     41.646731     41.646731     83.293462
     -3.068068     45.143559     45.143559     90.287117
     -3.058058     46.280327     46.280327     92.560655
     -3.048048     44.900914     44.900914     89.801828
     -3.038038     41.408146     41.408146     82.816291
     -3.028028     36.561149     36.561149     73.122299
     -3.018018     31.180658     31.180658     62.361316
     -3.008008     25.913316     25.913316     51.826632
     -2.997998     21.150792     21.150792     42.301585
     -2.987988     17.098771     17.098771     34.197542
     -2.977978     13.912201     13.912201     27.824403
     -2.967968     11.798364     11.798364     23.596728
     -2.957958     11.030692     11.030692     22.061384
     -2.947948     11.874244     11.874244     23.748487
     -2.937938     14.463505     14.463505     28.927009
     -2.927928     18.685820     18.685820     37.371640
     -2.917918     24.118846     24.118846     48.237691
     -2.907908     30.056519     30.056519     60.113039
     -2.897898     35.634341     35.634341     71.268682
     -2.887888     40.029511     40.029511     80.059021
     -2.877878     42.674159     42.674159     85.348319
     -2.867868     43.401124     43.401124     86.802247
     -2.857858     42.458887     42.458887     84.917773
     -2.847848     40.384304     40.384304     80.768609
     -2.837838     37.785283     37.785283     75.570565
     -2.827828     35.127587     35.127587     70.255174
     -2.817818     32.616816     32.616816     65.233633
     -2.807808     30.218230     30.218230     60.436460
     -2.797798     27.788020     27.788020     55.576040
     -2.787788     25.235845     25.235845     50.471690
     -2.777778     22.628374     22.628374     45.256748
     -2.767768     20.182197     20.182197     40.364394
     -2.757758     18.160172     18.160172     36.320344
     -2.747748     16.740865     16.740865     33.481729
     -2.737738     15.943973     15.943973     31.887946
     -2.727728     15.656949     15.656949     31.313899
     -2.717718     15.741595     15.741595     31.483189
     -2.707708     16.145602     16.145602     32.291203
     -2.697698     16.938846     16.938846     33.877692
     -2.687688     18.243813     18.243813     36.487626
     -2.677678     20.103448     20.103448     40.206897
     -2.667668     22.378255     22.378255     44.756511
     -2.657658     24.751897     24.751897     49.503795
     -2.647648     26.855250     26.855250     53.710501
     -2.637638     28.438032     28.438032     56.876064
     -2.627628     29.481410     29.481410     58.962820
     -2.617618     30.181669     30.181669     60.363338
     -2.607608     30.819362     30.819362     61.638725
     -2.597598     31.599677     31.599677     63.199354
     -2.587588     32.557202     32.557202     65.114403
     -2.577578     33.561570     33.561570     67.123140
     -2.567568     34.389096     34.389096     68.778193
     -2.557558     34.796589     34.796589     69.593178
     -2.547548     34.562732     34.562732     69.125464
     -2.537538     33.513420     33.513420     67.026841
     -2.527528     31.567957     31.567957     63.135914
     -2.517518     28.813848     28.813848     57.627696
     -2.507508     25.568832     25.568832     51.137663
     -2.497497     22.368436     22.368436     44.736873
     -2.487487     19.848648     19.848648     39.697296
     -2.477477     18.555311     18.555311     37.110623
     -2.467467     18.761050     18.761050     37.522100
     -2.457457     20.375254     20.375254     40.750507
     -2.447447     22.991901     22.991901     45.983802
     -2.437437     26.056666     26.056666     52.113331
     -2.427427     29.079546     29.079546     58.159093
     -2.417417     31.797093     31.797093     63.594186
     -2.407407     34.210103     34.210103     68.420207
     -2.397397     36.480631     36.480631     72.961262
     -2.387387     38.740542     38.740542     77.481085
     -2.377377     40.909890     40.909890     81.819779
     -2.367367     42.623386     42.623386     85.246773
     -2.357357     43.314941     43.314941     86.629882
     -2.347347     42.434324     42.434324     84.868649
     -2.337337     39.702418     39.702418     79.404836
     -2.327327     35.287327     35.287327     70.574653
     -2.317317     29.818263     29.818263     59.636526
     -2.307307     24.230639     24.230639     48.461277
     -2.297297     19.511650     19.511650     39.023300
     -2.287287     16.449726     16.449726     32.899452
     -2.277277     15.471476     15.471476     30.942952
     -2.267267     16.598119     16.598119     33.196238
     -2.257257     19.504483     19.504483     39.008966
     -2.247247     23.638442     23.638442     47.276884
     -2.237237     28.356071     28.356071     56.712143
     -2.227227     33.036537     33.036537     66.073075
     -2.217217     37.153924     37.153924     74.307848
     -2.207207     40.301245     40.301245     80.602490
     -2.197197     42.183361     42.183361     84.366722
     -2.187187     42.610522     42.610522     85.221043
     -2.177177     41.519196     41.519196     83.038393
     -2.167167     39.018393     39.018393     78.036786
     -2.157157     35.424387     35.424387     70.848773
     -2.147147     31.233519     31.233519     62.467038
     -2.137137     27.009870     27.009870     54.019740
     -2.127127     23.220170     23.220170     46.440340
     -2.117117     20.093424     20.093424     40.186847
     -2.107107     17.580563     17.580563     35.161125
     -2.097097     15.436242     15.436242     30.872484
     -2.087087     13.375528     13.375528     26.751056
     -2.077077     11.219797     11.219797     22.439593
     -2.067067      8.962054      8.962054     17.924107
     -2.057057      6.736131      6.736131     13.472262
     -2.047047      4.727409      4.727409      9.454819
     -2.037037      3.083087      3.083087      6.166174
     -2.027027      1.863625      1.863625      3.727250
     -2.017017      1.043738      1.043738      2.087475
     -2.007007      0.545325      0.545325      1.090650
     -1.996997      0.277676      0.277676      0.555351
     -1.986987      0.168379      0.168379      0.336759
     -1.976977      0.180682      0.180682      0.361364
     -1.966967      0.320745      0.320745      0.641490
     -1.956957      0.638841      0.638841      1.277682
     -1.946947      1.224370      1.224370      2.448739
     -1.936937      2.190356      2.190356      4.380713
     -1.926927      3.643074      3.643074      7.286148
     -1.916917      5.638635      5.638635     11.277269
     -1.906907      8.138535      8.138535     16.277069
     -1.896897     10.983732     10.983732     21.967465
     -1.886887     13.905005     13.905005     27.810010
     -1.876877     16.574529     16.574529     33.149059
     -1.866867     18.686460     18.686460     37.372920
     -1.856857     20.042479     20.042479     40.084957
     -1.846847     20.616530     20.616530     41.233060
     -1.836837     20.577706     20.577706     41.155412
     -1.826827     20.256699     20.256699     40.513398
     -1.816817     20.051220     20.051220     40.102439
     -1.806807     20.285703     20.285703     40.571407
     -1.796797     21.069140     21.069140     42.138279
     -1.786787     22.214894     22.214894     44.429788
     -1.776777     23.275319     23.275319     46.550639
     -1.766767     23.695491     23.695491     47.390982
     -1.756757     23.027404     23.027404     46.054808
     -1.746747     21.108415     21.108415     42.216829
     -1.736737     18.123161     18.123161     36.246323
     -1.726727     14.529147     14.529147     29.058294
     -1.716717     10.894473     10.894473     21.788945
     -1.706707      7.730563      7.730563     15.461126
     -1.696697      5.387314      5.387314     10.774629
     -1.686687      4.030142      4.030142      8.060285
     -1.676677      3.671972      3.671972      7.343944
     -1.666667      4.214993      4.214993      8.429986
     -1.656657      5.471762      5.471762     10.943524
     -1.646647      7.167317      7.167317     14.334635
     -1.636637      8.949653      8.949653     17.899307
     -1.626627     10.437600     10.437600     20.875201
