# EIG2DOS: Utility for SIESTA to obtain the electronic density of states
#  E. Artacho, Apr 1999, A. Garcia, Apr 2012
#  Nick R. Papior, Feb 2017
# ------------------------------------------
# Eigenvalues calculated from a non-polarized calculation
# Eigenvalues read from siesta.EIG
# Kpoint weights read from siesta.KP
# Using smearing parameter:   0.0500
# Using 1000 points in the energy range
# Selected bands: 1 to: 2981
# Emin, Emax in file for selected band(s):    -27.2806675    218.3736810
# Nbands, Nspin, Nk   =   2981     1     1
# E_F                 =    -4.2342 eV --> (shifted to ZERO)
# Broadening          =     0.0500 eV
#
#        E            N(up)  (=)   N(down)         Ntot
     -5.000000     36.155088     36.155088     72.310175
     -4.989990     39.860347     39.860347     79.720694
     -4.979980     42.644529     42.644529     85.289057
     -4.969970     44.086214     44.086214     88.172428
     -4.959960     43.973879     43.973879     87.947758
     -4.949950     42.374416     42.374416     84.748832
     -4.939940     39.627500     39.627500     79.254999
     -4.929930     36.285164     36.285164     72.570329
     -4.919920     33.030543     33.030543     66.061086
     -4.909910     30.595248     30.595248     61.190496
     -4.899900     29.666135     29.666135     59.332270
     -4.889890     30.757632     30.757632     61.515264
     -4.879880     34.047186     34.047186     68.094372
     -4.869870     39.222383     39.222383     78.444766
     -4.859860     45.431020     45.431020     90.862040
     -4.849850     51.414872     51.414872    102.829744
     -4.839840     55.830525     55.830525    111.661049
     -4.829830     57.654187     57.654187    115.308375
     -4.819820     56.501327     56.501327    113.002654
     -4.809810     52.717581     52.717581    105.435162
     -4.799800     47.206815     47.206815     94.413629
     -4.789790     41.089650     41.089650     82.179299
     -4.779780     35.354077     35.354077     70.708155
     -4.769770     30.635075     30.635075     61.270151
     -4.759760     27.171634     27.171634     54.343269
     -4.749750     24.900397     24.900397     49.800793
     -4.739740     23.602643     23.602643     47.205287
     -4.729730     23.030621     23.030621     46.061242
     -4.719720     22.974759     22.974759     45.949518
     -4.709710     23.269349     23.269349     46.538697
     -4.699700     23.760174     23.760174     47.520348
     -4.689690     24.271912     24.271912     48.543825
     -4.679680     24.612713     24.612713     49.225426
     -4.669670     24.634076     24.634076     49.268153
     -4.659660     24.329931     24.329931     48.659861
     -4.649650     23.925098     23.925098     47.850195
     -4.639640     23.889817     23.889817     47.779635
     -4.629630     24.836276     24.836276     49.672551
     -4.619620     27.303196     27.303196     54.606393
     -4.609610     31.497211     31.497211     62.994421
     -4.599600     37.104190     37.104190     74.208379
     -4.589590     43.279197     43.279197     86.558395
     -4.579580     48.858539     48.858539     97.717077
     -4.569570     52.734499     52.734499    105.468997
     -4.559560     54.245302     54.245302    108.490604
     -4.549550     53.412162     53.412162    106.824324
     -4.539540     50.919002     50.919002    101.838004
     -4.529530     47.845798     47.845798     95.691596
     -4.519520     45.272285     45.272285     90.544569
     -4.509510     43.913824     43.913824     87.827648
     -4.499499     43.922068     43.922068     87.844135
     -4.489489     44.903274     44.903274     89.806548
     -4.479479     46.118114     46.118114     92.236229
     -4.469469     46.765466     46.765466     93.530931
     -4.459459     46.238612     46.238612     92.477224
     -4.449449     44.273653     44.273653     88.547307
     -4.439439     40.967098     40.967098     81.934195
     -4.429429     36.694365     36.694365     73.388730
     -4.419419     31.988680     31.988680     63.977360
     -4.409409     27.431504     27.431504     54.863009
     -4.399399     23.572887     23.572887     47.145774
     -4.389389     20.868973     20.868973     41.737945
     -4.379379     19.617557     19.617557     39.235114
     -4.369369     19.893743     19.893743     39.787486
     -4.359359     21.515708     21.515708     43.031416
     -4.349349     24.077410     24.077410     48.154821
     -4.339339     27.059162     27.059162     54.118325
     -4.329329     29.983533     29.983533     59.967066
     -4.319319     32.553644     32.553644     65.107288
     -4.309309     34.715271     34.715271     69.430541
     -4.299299     36.619814     36.619814     73.239628
     -4.289289     38.508185     38.508185     77.016371
     -4.279279     40.562536     40.562536     81.125073
     -4.269269     42.777803     42.777803     85.555605
     -4.259259     44.897723     44.897723     89.795446
     -4.249249     46.447625     46.447625     92.895249
     -4.239239     46.873245     46.873245     93.746491
     -4.229229     45.753550     45.753550     91.507101
     -4.219219     43.007209     43.007209     86.014418
     -4.209209     38.990816     38.990816     77.981633
     -4.199199     34.422019     34.422019     68.844039
     -4.189189     30.145527     30.145527     60.291054
     -4.179179     26.845992     26.845992     53.691984
     -4.169169     24.842744     24.842744     49.685488
     -4.159159     24.056699     24.056699     48.113398
     -4.149149     24.148735     24.148735     48.297471
     -4.139139     24.745360     24.745360     49.490720
     -4.129129     25.632910     25.632910     51.265820
     -4.119119     26.824826     26.824826     53.649652
     -4.109109     28.471452     28.471452     56.942905
     -4.099099     30.660935     30.660935     61.321871
     -4.089089     33.221741     33.221741     66.443482
     -4.079079     35.650212     35.650212     71.300425
     -4.069069     37.232227     37.232227     74.464455
     -4.059059     37.323119     37.323119     74.646239
     -4.049049     35.651231     35.651231     71.302463
     -4.039039     32.483514     32.483514     64.967027
     -4.029029     28.561746     28.561746     57.123491
     -4.019019     24.844260     24.844260     49.688520
     -4.009009     22.189324     22.189324     44.378647
     -3.998999     21.130474     21.130474     42.260947
     -3.988989     21.821305     21.821305     43.642610
     -3.978979     24.124203     24.124203     48.248406
     -3.968969     27.752371     27.752371     55.504742
     -3.958959     32.379415     32.379415     64.758831
     -3.948949     37.686089     37.686089     75.372179
     -3.938939     43.369161     43.369161     86.738322
     -3.928929     49.152018     49.152018     98.304037
     -3.918919     54.808446     54.808446    109.616891
     -3.908909     60.173841     60.173841    120.347683
     -3.898899     65.110429     65.110429    130.220859
     -3.888889     69.424795     69.424795    138.849589
     -3.878879     72.782225     72.782225    145.564451
     -3.868869     74.684839     74.684839    149.369678
     -3.858859     74.558694     74.558694    149.117388
     -3.848849     71.939281     71.939281    143.878563
     -3.838839     66.686881     66.686881    133.373762
     -3.828829     59.136012     59.136012    118.272023
     -3.818819     50.102438     50.102438    100.204876
     -3.808809     40.728341     40.728341     81.456683
     -3.798799     32.213367     32.213367     64.426734
     -3.788789     25.523982     25.523982     51.047964
     -3.778779     21.176863     21.176863     42.353727
     -3.768769     19.157627     19.157627     38.315253
     -3.758759     18.985442     18.985442     37.970883
     -3.748749     19.890456     19.890456     39.780912
     -3.738739     21.047129     21.047129     42.094257
     -3.728729     21.802148     21.802148     43.604297
     -3.718719     21.843576     21.843576     43.687153
     -3.708709     21.272309     21.272309     42.544618
     -3.698699     20.556286     20.556286     41.112571
     -3.688689     20.373044     20.373044     40.746087
     -3.678679     21.376666     21.376666     42.753333
     -3.668669     23.954640     23.954640     47.909280
     -3.658659     28.055704     28.055704     56.111407
     -3.648649     33.157064     33.157064     66.314129
     -3.638639     38.393300     38.393300     76.786601
     -3.628629     42.804229     42.804229     85.608459
     -3.618619     45.606936     45.606936     91.213872
     -3.608609     46.389427     46.389427     92.778853
     -3.598599     45.166548     45.166548     90.333095
     -3.588589     42.305715     42.305715     84.611431
     -3.578579     38.378651     38.378651     76.757301
     -3.568569     34.001920     34.001920     68.003840
     -3.558559     29.704798     29.704798     59.409597
     -3.548549     25.838453     25.838453     51.676906
     -3.538539     22.534187     22.534187     45.068373
     -3.528529     19.721524     19.721524     39.443049
     -3.518519     17.208482     17.208482     34.416965
     -3.508509     14.800738     14.800738     29.601476
     -3.498498     12.411759     12.411759     24.823517
     -3.488488     10.115681     10.115681     20.231362
     -3.478478      8.123068      8.123068     16.246135
     -3.468468      6.697128      6.697128     13.394255
     -3.458458      6.050129      6.050129     12.100259
     -3.448448      6.258329      6.258329     12.516659
     -3.438438      7.219541      7.219541     14.439082
     -3.428428      8.664597      8.664597     17.329194
     -3.418418     10.225100     10.225100     20.450199
     -3.408408     11.547486     11.547486     23.094973
     -3.398398     12.423809     12.423809     24.847619
     -3.388388     12.892365     12.892365     25.784731
     -3.378378     13.262760     13.262760     26.525520
     -3.368368     14.046321     14.046321     28.092643
     -3.358358     15.810767     15.810767     31.621534
     -3.348348     19.004429     19.004429     38.008858
     -3.338338     23.797175     23.797175     47.594351
     -3.328328     29.970977     29.970977     59.941954
     -3.318318     36.882747     36.882747     73.765493
     -3.308308     43.523658     43.523658     87.047317
     -3.298298     48.696773     48.696773     97.393547
     -3.288288     51.303809     51.303809    102.607617
     -3.278278     50.671202     50.671202    101.342404
     -3.268268     46.792706     46.792706     93.585412
     -3.258258     40.371463     40.371463     80.742927
     -3.248248     32.624759     32.624759     65.249517
     -3.238238     24.926526     24.926526     49.853052
     -3.228228     18.434228     18.434228     36.868456
     -3.218218     13.835401     13.835401     27.670802
     -3.208208     11.274026     11.274026     22.548052
     -3.198198     10.435681     10.435681     20.871363
     -3.188188     10.728408     10.728408     21.456817
     -3.178178     11.496216     11.496216     22.992431
     -3.168168     12.217560     12.217560     24.435121
     -3.158158     12.649906     12.649906     25.299811
     -3.148148     12.884883     12.884883     25.769766
     -3.138138     13.291890     13.291890     26.583780
     -3.128128     14.358834     14.358834     28.717668
     -3.118118     16.477578     16.477578     32.955157
     -3.108108     19.749115     19.749115     39.498230
     -3.098098     23.884372     23.884372     47.768744
     -3.088088     28.246967     28.246967     56.493934
     -3.078078     32.031745     32.031745     64.063489
     -3.068068     34.515453     34.515453     69.030905
     -3.058058     35.279091     35.279091     70.558182
     -3.048048     34.308927     34.308927     68.617853
     -3.038038     31.939444     31.939444     63.878887
     -3.028028     28.680545     28.680545     57.361090
     -3.018018     25.027062     25.027062     50.054124
     -3.008008     21.345904     21.345904     42.691808
     -2.997998     17.878382     17.878382     35.756765
     -2.987988     14.823175     14.823175     29.646350
     -2.977978     12.425635     12.425635     24.851270
     -2.967968     11.009716     11.009716     22.019433
     -2.957958     10.931241     10.931241     21.862483
     -2.947948     12.472868     12.472868     24.945736
     -2.937938     15.722374     15.722374     31.444747
     -2.927928     20.478411     20.478411     40.956823
     -2.917918     26.221499     26.221499     52.442999
     -2.907908     32.175482     32.175482     64.350964
     -2.897898     37.461214     37.461214     74.922429
     -2.887888     41.309095     41.309095     82.618190
     -2.877878     43.262894     43.262894     86.525787
     -2.867868     43.295492     43.295492     86.590985
     -2.857858     41.782639     41.782639     83.565278
     -2.847848     39.338470     39.338470     78.676941
     -2.837838     36.580027     36.580027     73.160054
     -2.827828     33.923075     33.923075     67.846150
     -2.817818     31.496413     31.496413     62.992827
     -2.807808     29.201640     29.201640     58.403280
     -2.797798     26.871441     26.871441     53.742881
     -2.787788     24.432332     24.432332     48.864665
     -2.777778     21.983467     21.983467     43.966933
     -2.767768     19.757481     19.757481     39.514963
     -2.757758     18.000230     18.000230     36.000460
     -2.747748     16.851676     16.851676     33.703352
     -2.737738     16.303285     16.303285     32.606571
     -2.727728     16.252563     16.252563     32.505125
     -2.717718     16.608014     16.608014     33.216028
     -2.707708     17.362748     17.362748     34.725496
     -2.697698     18.577658     18.577658     37.155316
     -2.687688     20.282417     20.282417     40.564835
     -2.677678     22.368015     22.368015     44.736029
     -2.667668     24.559626     24.559626     49.119251
     -2.657658     26.507860     26.507860     53.015720
     -2.647648     27.952521     27.952521     55.905042
     -2.637638     28.856016     28.856016     57.712033
     -2.627628     29.417277     29.417277     58.834555
     -2.617618     29.954150     29.954150     59.908299
     -2.607608     30.727336     30.727336     61.454672
     -2.597598     31.810361     31.810361     63.620722
     -2.587588     33.068206     33.068206     66.136412
     -2.577578     34.229787     34.229787     68.459574
     -2.567568     34.988305     34.988305     69.976611
     -2.557558     35.072957     35.072957     70.145915
     -2.547548     34.285420     34.285420     68.570841
     -2.537538     32.532965     32.532965     65.065931
     -2.527528     29.881937     29.881937     59.763873
     -2.517518     26.612718     26.612718     53.225435
     -2.507508     23.224474     23.224474     46.448949
     -2.497497     20.348956     20.348956     40.697912
     -2.487487     18.582559     18.582559     37.165118
     -2.477477     18.298761     18.298761     36.597522
     -2.467467     19.523416     19.523416     39.046831
     -2.457457     21.932009     21.932009     43.864017
     -2.447447     24.975178     24.975178     49.950357
     -2.437437     28.082619     28.082619     56.165238
     -2.427427     30.860309     30.860309     61.720618
     -2.417417     33.196654     33.196654     66.393309
     -2.407407     35.230511     35.230511     70.461023
     -2.397397     37.194195     37.194195     74.388389
     -2.387387     39.202969     39.202969     78.405937
     -2.377377     41.093614     41.093614     82.187228
     -2.367367     42.401169     42.401169     84.802339
     -2.357357     42.504281     42.504281     85.008563
     -2.347347     40.887135     40.887135     81.774269
     -2.337337     37.400309     37.400309     74.800618
     -2.327327     32.394689     32.394689     64.789377
     -2.317317     26.662909     26.662909     53.325817
     -2.307307     21.218542     21.218542     42.437083
     -2.297297     17.016122     17.016122     34.032244
     -2.287287     14.724694     14.724694     29.449388
     -2.277277     14.619449     14.619449     29.238898
     -2.267267     16.591401     16.591401     33.182801
     -2.257257     20.233853     20.233853     40.467706
     -2.247247     24.958150     24.958150     49.916301
     -2.237237     30.105333     30.105333     60.210667
     -2.227227     35.036155     35.036155     70.072309
     -2.217217     39.192540     39.192540     78.385080
     -2.207207     42.132611     42.132611     84.265221
     -2.197197     43.551188     43.551188     87.102377
     -2.187187     43.302404     43.302404     86.604807
     -2.177177     41.431768     41.431768     82.863535
     -2.167167     38.202425     38.202425     76.404850
     -2.157157     34.080509     34.080509     68.161019
     -2.147147     29.649710     29.649710     59.299420
     -2.137137     25.462228     25.462228     50.924456
     -2.127127     21.881213     21.881213     43.762426
     -2.117117     18.991310     18.991310     37.982620
     -2.107107     16.626154     16.626154     33.252309
     -2.097097     14.498333     14.498333     28.996667
     -2.087087     12.360803     12.360803     24.721607
     -2.077077     10.117296     10.117296     20.234593
     -2.067067      7.837428      7.837428     15.674855
     -2.057057      5.690129      5.690129     11.380258
     -2.047047      3.847866      3.847866      7.695731
     -2.037037      2.414818      2.414818      4.829635
     -2.027027      1.404372      1.404372      2.808745
     -2.017017      0.759415      0.759415      1.518830
     -2.007007      0.392198      0.392198      0.784395
     -1.996997      0.222451      0.222451      0.444902
     -1.986987      0.204122      0.204122      0.408244
     -1.976977      0.341677      0.341677      0.683354
     -1.966967      0.700121      0.700121      1.400243
     -1.956957      1.408662      1.408662      2.817324
     -1.946947      2.650533      2.650533      5.301066
     -1.936937      4.627338      4.627338      9.254676
     -1.926927      7.491563      7.491563     14.983125
     -1.916917     11.257789     11.257789     22.515578
     -1.906907     15.725027     15.725027     31.450054
     -1.896897     20.454545     20.454545     40.909089
     -1.886887     24.835167     24.835167     49.670334
     -1.876877     28.230619     28.230619     56.461238
     -1.866867     30.159920     30.159920     60.319839
     -1.856857     30.439624     30.439624     60.879249
     -1.846847     29.230801     29.230801     58.461603
     -1.836837     26.974815     26.974815     53.949631
     -1.826827     24.245730     24.245730     48.491459
     -1.816817     21.573657     21.573657     43.147314
     -1.806807     19.298269     19.298269     38.596537
     -1.796797     17.499410     17.499410     34.998820
     -1.786787     16.025890     16.025890     32.051779
     -1.776777     14.607332     14.607332     29.214665
     -1.766767     12.999035     12.999035     25.998071
     -1.756757     11.095263     11.095263     22.190526
     -1.746747      8.964887      8.964887     17.929774
     -1.736737      6.806175      6.806175     13.612350
     -1.726727      4.858392      4.858392      9.716784
     -1.716717      3.321951      3.321951      6.643901
     -1.706707      2.321390      2.321390      4.642779
     -1.696697      1.912462      1.912462      3.824923
     -1.686687      2.108412      2.108412      4.216825
     -1.676677      2.894742      2.894742      5.789484
     -1.666667      4.215974      4.215974      8.431948
     -1.656657      5.942105      5.942105     11.884210
     -1.646647      7.842682      7.842682     15.685363
     -1.636637      9.600700      9.600700     19.201400
     -1.626627     10.881701     10.881701     21.763402
