# EIG2DOS: Utility for SIESTA to obtain the electronic density of states
#  E. Artacho, Apr 1999, A. Garcia, Apr 2012
#  Nick R. Papior, Feb 2017
# ------------------------------------------
# Eigenvalues calculated from a non-polarized calculation
# Eigenvalues read from siesta.EIG
# Kpoint weights read from siesta.KP
# Using smearing parameter:   0.0500
# Using 1000 points in the energy range
# Selected bands: 1 to: 2981
# Emin, Emax in file for selected band(s):    -27.0456382    218.3069540
# Nbands, Nspin, Nk   =   2981     1     1
# E_F                 =    -4.3050 eV --> (shifted to ZERO)
# Broadening          =     0.0500 eV
#
#        E            N(up)  (=)   N(down)         Ntot
     -5.000000     46.012389     46.012389     92.024779
     -4.989990     49.566733     49.566733     99.133465
     -4.979980     51.462405     51.462405    102.924809
     -4.969970     51.542471     51.542471    103.084942
     -4.959960     49.930531     49.930531     99.861062
     -4.949950     46.976973     46.976973     93.953945
     -4.939940     43.168680     43.168680     86.337359
     -4.929930     39.051054     39.051054     78.102108
     -4.919920     35.191056     35.191056     70.382112
     -4.909910     32.172659     32.172659     64.345318
     -4.899900     30.583442     30.583442     61.166884
     -4.889890     30.942365     30.942365     61.884730
     -4.879880     33.546426     33.546426     67.092851
     -4.869870     38.274091     38.274091     76.548183
     -4.859860     44.446257     44.446257     88.892514
     -4.849850     50.862721     50.862721    101.725442
     -4.839840     56.070228     56.070228    112.140456
     -4.829830     58.795200     58.795200    117.590399
     -4.819820     58.363123     58.363123    116.726246
     -4.809810     54.908077     54.908077    109.816154
     -4.799800     49.274879     49.274879     98.549759
     -4.789790     42.674652     42.674652     85.349303
     -4.779780     36.270492     36.270492     72.540983
     -4.769770     30.874765     30.874765     61.749531
     -4.759760     26.846263     26.846263     53.692526
     -4.749750     24.159831     24.159831     48.319663
     -4.739740     22.556082     22.556082     45.112164
     -4.729730     21.684048     21.684048     43.368096
     -4.719720     21.194262     21.194262     42.388523
     -4.709710     20.782219     20.782219     41.564438
     -4.699700     20.203538     20.203538     40.407076
     -4.689690     19.285314     19.285314     38.570627
     -4.679680     17.950870     17.950870     35.901740
     -4.669670     16.260324     16.260324     32.520649
     -4.659660     14.451130     14.451130     28.902261
     -4.649650     12.950317     12.950317     25.900635
     -4.639640     12.331916     12.331916     24.663833
     -4.629630     13.208474     13.208474     26.416948
     -4.619620     16.067294     16.067294     32.134588
     -4.609610     21.084731     21.084731     42.169462
     -4.599600     27.973839     27.973839     55.947678
     -4.589590     35.934984     35.934984     71.869967
     -4.579580     43.768568     43.768568     87.537136
     -4.569570     50.159043     50.159043    100.318085
     -4.559560     54.059388     54.059388    108.118776
     -4.549550     55.036011     55.036011    110.072022
     -4.539540     53.424263     53.424263    106.848526
     -4.529530     50.213818     50.213818    100.427637
     -4.519520     46.700744     46.700744     93.401488
     -4.509510     44.046567     44.046567     88.093134
     -4.499499     42.919426     42.919426     85.838852
     -4.489489     43.344965     43.344965     86.689930
     -4.479479     44.796261     44.796261     89.592522
     -4.469469     46.455157     46.455157     92.910313
     -4.459459     47.524444     47.524444     95.048887
     -4.449449     47.474838     47.474838     94.949677
     -4.439439     46.157925     46.157925     92.315850
     -4.429429     43.777954     43.777954     87.555909
     -4.419419     40.765637     40.765637     81.531274
     -4.409409     37.620514     37.620514     75.241028
     -4.399399     34.781710     34.781710     69.563419
     -4.389389     32.557682     32.557682     65.115364
     -4.379379     31.110704     31.110704     62.221408
     -4.369369     30.470290     30.470290     60.940581
     -4.359359     30.551940     30.551940     61.103879
     -4.349349     31.176899     31.176899     62.353798
     -4.339339     32.105766     32.105766     64.211531
     -4.329329     33.096859     33.096859     66.193719
     -4.319319     33.980208     33.980208     67.960415
     -4.309309     34.717645     34.717645     69.435290
     -4.299299     35.417415     35.417415     70.834829
     -4.289289     36.289860     36.289860     72.579720
     -4.279279     37.555131     37.555131     75.110261
     -4.269269     39.330152     39.330152     78.660305
     -4.259259     41.529237     41.529237     83.058474
     -4.249249     43.816858     43.816858     87.633715
     -4.239239     45.649732     45.649732     91.299464
     -4.229229     46.423826     46.423826     92.847652
     -4.219219     45.692754     45.692754     91.385508
     -4.209209     43.368686     43.368686     86.737371
     -4.199199     39.799206     39.799206     79.598412
     -4.189189     35.662971     35.662971     71.325942
     -4.179179     31.723441     31.723441     63.446882
     -4.169169     28.561548     28.561548     57.123096
     -4.159159     26.418355     26.418355     52.836709
     -4.149149     25.212167     25.212167     50.424333
     -4.139139     24.697665     24.697665     49.395329
     -4.129129     24.666313     24.666313     49.332625
     -4.119119     25.077915     25.077915     50.155831
     -4.109109     26.056342     26.056342     52.112684
     -4.099099     27.752589     27.752589     55.505178
     -4.089089     30.147730     30.147730     60.295459
     -4.079079     32.909343     32.909343     65.818687
     -4.069069     35.402443     35.402443     70.804886
     -4.059059     36.882547     36.882547     73.765093
     -4.049049     36.794555     36.794555     73.589110
     -4.039039     35.028175     35.028175     70.056350
     -4.029029     31.992711     31.992711     63.985422
     -4.019019     28.471602     28.471602     56.943204
     -4.009009     25.339391     25.339391     50.678782
     -3.998999     23.290536     23.290536     46.581071
     -3.988989     22.700642     22.700642     45.401283
     -3.978979     23.644708     23.644708     47.289417
     -3.968969     26.005394     26.005394     52.010787
     -3.958959     29.576514     29.576514     59.153028
     -3.948949     34.108915     34.108915     68.217831
     -3.938939     39.312557     39.312557     78.625113
     -3.928929     44.864234     44.864234     89.728468
     -3.918919     50.451757     50.451757    100.903514
     -3.908909     55.835765     55.835765    111.671530
     -3.898899     60.876009     60.876009    121.752019
     -3.888889     65.480811     65.480811    130.961621
     -3.878879     69.490507     69.490507    138.981014
     -3.868869     72.562067     72.562067    145.124133
     -3.858859     74.142722     74.142722    148.285443
     -3.848849     73.586515     73.586515    147.173030
     -3.838839     70.392380     70.392380    140.784759
     -3.828829     64.466247     64.466247    128.932494
     -3.818819     56.278870     56.278870    112.557740
     -3.808809     46.829047     46.829047     93.658094
     -3.798799     37.410924     37.410924     74.821848
     -3.788789     29.273926     29.273926     58.547852
     -3.778779     23.305229     23.305229     46.610457
     -3.768769     19.841727     19.841727     39.683454
     -3.758759     18.654686     18.654686     37.309371
     -3.748749     19.085630     19.085630     38.171259
     -3.738739     20.273939     20.273939     40.547879
     -3.728729     21.408073     21.408073     42.816146
     -3.718719     21.941000     21.941000     43.881999
     -3.708709     21.724270     21.724270     43.448540
     -3.698699     21.030601     21.030601     42.061203
     -3.688689     20.454888     20.454888     40.909775
     -3.678679     20.711371     20.711371     41.422743
     -3.668669     22.377842     22.377842     44.755684
     -3.658659     25.665593     25.665593     51.331187
     -3.648649     30.299803     30.299803     60.599606
     -3.638639     35.565286     35.565286     71.130572
     -3.628629     40.509916     40.509916     81.019832
     -3.618619     44.228587     44.228587     88.457173
     -3.608609     46.113887     46.113887     92.227774
     -3.598599     45.981061     45.981061     91.962122
     -3.588589     44.042369     44.042369     88.084738
     -3.578579     40.775480     40.775480     81.550959
     -3.568569     36.759635     36.759635     73.519269
     -3.558559     32.535396     32.535396     65.070793
     -3.548549     28.508254     28.508254     57.016508
     -3.538539     24.896750     24.896750     49.793499
     -3.528529     21.728020     21.728020     43.456041
     -3.518519     18.887061     18.887061     37.774122
     -3.508509     16.211762     16.211762     32.423523
     -3.498498     13.599955     13.599955     27.199910
     -3.488488     11.081496     11.081496     22.162993
     -3.478478      8.823547      8.823547     17.647095
     -3.468468      7.071346      7.071346     14.142691
     -3.458458      6.055336      6.055336     12.110673
     -3.448448      5.902512      5.902512     11.805023
     -3.438438      6.579310      6.579310     13.158620
     -3.428428      7.880296      7.880296     15.760592
     -3.418418      9.468807      9.468807     18.937613
     -3.408408     10.967346     10.967346     21.934693
     -3.398398     12.078905     12.078905     24.157809
     -3.388388     12.699450     12.699450     25.398899
     -3.378378     12.973114     12.973114     25.946229
     -3.368368     13.258972     13.258972     26.517944
     -3.358358     14.017104     14.017104     28.034209
     -3.348348     15.658329     15.658329     31.316658
     -3.338338     18.412199     18.412199     36.824398
     -3.328328     22.247716     22.247716     44.495433
     -3.318318     26.850991     26.850991     53.701981
     -3.308308     31.650235     31.650235     63.300470
     -3.298298     35.888018     35.888018     71.776036
     -3.288288     38.752773     38.752773     77.505547
     -3.278278     39.568050     39.568050     79.136100
     -3.268268     37.995397     37.995397     75.990795
     -3.258258     34.167830     34.167830     68.335660
     -3.248248     28.677826     28.677826     57.355652
     -3.238238     22.406925     22.406925     44.813851
     -3.228228     16.265484     16.265484     32.530969
     -3.218218     10.954930     10.954930     21.909860
     -3.208208      6.842999      6.842999     13.685999
     -3.198198      3.975743      3.975743      7.951486
     -3.188188      2.185933      2.185933      4.371865
     -3.178178      1.231123      1.231123      2.462246
     -3.168168      0.907872      0.907872      1.815743
     -3.158158      1.118939      1.118939      2.237878
     -3.148148      1.893829      1.893829      3.787657
     -3.138138      3.370433      3.370433      6.740867
     -3.128128      5.742923      5.742923     11.485846
     -3.118118      9.180363      9.180363     18.360727
     -3.108108     13.729354     13.729354     27.458708
     -3.098098     19.229216     19.229216     38.458432
     -3.088088     25.277647     25.277647     50.555294
     -3.078078     31.275262     31.275262     62.550524
     -3.068068     36.546369     36.546369     73.092737
     -3.058058     40.494999     40.494999     80.989998
     -3.048048     42.734362     42.734362     85.468723
     -3.038038     43.142007     43.142007     86.284015
     -3.028028     41.835925     41.835925     83.671849
     -3.018018     39.109395     39.109395     78.218790
     -3.008008     35.373908     35.373908     70.747816
     -2.997998     31.132925     31.132925     62.265850
     -2.987988     26.968631     26.968631     53.937262
     -2.977978     23.503645     23.503645     47.007291
     -2.967968     21.316086     21.316086     42.632173
     -2.957958     20.824299     20.824299     41.648597
     -2.947948     22.185568     22.185568     44.371136
     -2.937938     25.250566     25.250566     50.501133
     -2.927928     29.587533     29.587533     59.175065
     -2.917918     34.561046     34.561046     69.122092
     -2.907908     39.439531     39.439531     78.879063
     -2.897898     43.513431     43.513431     87.026863
     -2.887888     46.215394     46.215394     92.430788
     -2.877878     47.229427     47.229427     94.458855
     -2.867868     46.560239     46.560239     93.120477
     -2.857858     44.526109     44.526109     89.052218
     -2.847848     41.656683     41.656683     83.313367
     -2.837838     38.519044     38.519044     77.038088
     -2.827828     35.537415     35.537415     71.074829
     -2.817818     32.884403     32.884403     65.768807
     -2.807808     30.491652     30.491652     60.983304
     -2.797798     28.168700     28.168700     56.337401
     -2.787788     25.763429     25.763429     51.526858
     -2.777778     23.277497     23.277497     46.554994
     -2.767768     20.878027     20.878027     41.756055
     -2.757758     18.807413     18.807413     37.614826
     -2.747748     17.252105     17.252105     34.504210
     -2.737738     16.253825     16.253825     32.507649
     -2.727728     15.718232     15.718232     31.436463
     -2.717718     15.512710     15.512710     31.025419
     -2.707708     15.585562     15.585562     31.171124
     -2.697698     16.022366     16.022366     32.044732
     -2.687688     16.994434     16.994434     33.988868
     -2.677678     18.626107     18.626107     37.252214
     -2.667668     20.865502     20.865502     41.731005
     -2.657658     23.447678     23.447678     46.895355
     -2.647648     25.983666     25.983666     51.967332
     -2.637638     28.127824     28.127824     56.255648
     -2.627628     29.723433     29.723433     59.446867
     -2.617618     30.840016     30.840016     61.680031
     -2.607608     31.687452     31.687452     63.374905
     -2.597598     32.470747     32.470747     64.941494
     -2.587588     33.278192     33.278192     66.556385
     -2.577578     34.056984     34.056984     68.113967
     -2.567568     34.660448     34.660448     69.320895
     -2.557558     34.909369     34.909369     69.818738
     -2.547548     34.626431     34.626431     69.252862
     -2.537538     33.652785     33.652785     67.305569
     -2.527528     31.885416     31.885416     63.770832
     -2.517518     29.352485     29.352485     58.704971
     -2.507508     26.291912     26.291912     52.583823
     -2.497497     23.167036     23.167036     46.334073
     -2.487487     20.575311     20.575311     41.150621
     -2.477477     19.068663     19.068663     38.137325
     -2.467467     18.962655     18.962655     37.925309
     -2.457457     20.226489     20.226489     40.452979
     -2.447447     22.509591     22.509591     45.019181
     -2.437437     25.295057     25.295057     50.590113
     -2.427427     28.109800     28.109800     56.219600
     -2.417417     30.693930     30.693930     61.387860
     -2.407407     33.050192     33.050192     66.100384
     -2.397397     35.350517     35.350517     70.701035
     -2.387387     37.745827     37.745827     75.491653
     -2.377377     40.174952     40.174952     80.349904
     -2.367367     42.274326     42.274326     84.548652
     -2.357357     43.447017     43.447017     86.894035
     -2.347347     43.075206     43.075206     86.150412
     -2.337337     40.788225     40.788225     81.576451
     -2.327327     36.665373     36.665373     73.330746
     -2.317317     31.279054     31.279054     62.558109
     -2.307307     25.558002     25.558002     51.116004
     -2.297297     20.531848     20.531848     41.063695
     -2.287287     17.062411     17.062411     34.124823
     -2.277277     15.655186     15.655186     31.310373
     -2.267267     16.394302     16.394302     32.788605
     -2.257257     18.991245     18.991245     37.982491
     -2.247247     22.906416     22.906416     45.812833
     -2.237237     27.495097     27.495097     54.990194
     -2.227227     32.135079     32.135079     64.270159
     -2.217217     36.305751     36.305751     72.611502
     -2.207207     39.609049     39.609049     79.218098
     -2.197197     41.750063     41.750063     83.500127
     -2.187187     42.516576     42.516576     85.033151
     -2.177177     41.794426     41.794426     83.588853
     -2.167167     39.623366     39.623366     79.246732
     -2.157157     36.254185     36.254185     72.508370
     -2.147147     32.146497     32.146497     64.292994
     -2.137137     27.871089     27.871089     55.742178
     -2.127127     23.941068     23.941068     47.882137
     -2.117117     20.650711     20.650711     41.301422
     -2.107107     18.007715     18.007715     36.015430
     -2.097097     15.794478     15.794478     31.588956
     -2.087087     13.720184     13.720184     27.440367
     -2.077077     11.577860     11.577860     23.155720
     -2.067067      9.328332      9.328332     18.656664
     -2.057057      7.084901      7.084901     14.169803
     -2.047047      5.029776      5.029776     10.059553
     -2.037037      3.320400      3.320400      6.640800
     -2.027027      2.032312      2.032312      4.064623
     -2.017017      1.152573      1.152573      2.305147
     -2.007007      0.609207      0.609207      1.218414
     -1.996997      0.311819      0.311819      0.623637
     -1.986987      0.184896      0.184896      0.369793
     -1.976977      0.187571      0.187571      0.375143
     -1.966967      0.322305      0.322305      0.644609
     -1.956957      0.636455      0.636455      1.272910
     -1.946947      1.217017      1.217017      2.434035
     -1.936937      2.174651      2.174651      4.349301
     -1.926927      3.613057      3.613057      7.226114
     -1.916917      5.585865      5.585865     11.171730
     -1.906907      8.053163      8.053163     16.106326
     -1.896897     10.856967     10.856967     21.713935
     -1.886887     13.732344     13.732344     27.464687
     -1.876877     16.357329     16.357329     32.714657
     -1.866867     18.427624     18.427624     36.855248
     -1.856857     19.731664     19.731664     39.463329
     -1.846847     20.202862     20.202862     40.405724
     -1.836837     19.934170     19.934170     39.868340
     -1.826827     19.148765     19.148765     38.297531
     -1.816817     18.129301     18.129301     36.258602
     -1.806807     17.121652     17.121652     34.243303
     -1.796797     16.246419     16.246419     32.492838
     -1.786787     15.459808     15.459808     30.919616
     -1.776777     14.589993     14.589993     29.179986
     -1.766767     13.437187     13.437187     26.874374
     -1.756757     11.888258     11.888258     23.776516
     -1.746747      9.987722      9.987722     19.975445
     -1.736737      7.934519      7.934519     15.869038
     -1.726727      6.018322      6.018322     12.036644
     -1.716717      4.538768      4.538768      9.077535
     -1.706707      3.747694      3.747694      7.495388
     -1.696697      3.825822      3.825822      7.651645
     -1.686687      4.875622      4.875622      9.751244
     -1.676677      6.903163      6.903163     13.806327
     -1.666667      9.778696      9.778696     19.557392
     -1.656657     13.195458     13.195458     26.390916
     -1.646647     16.666827     16.666827     33.333653
     -1.636637     19.595911     19.595911     39.191822
     -1.626627     21.417792     21.417792     42.835585
