# EIG2DOS: Utility for SIESTA to obtain the electronic density of states
#  E. Artacho, Apr 1999, A. Garcia, Apr 2012
#  Nick R. Papior, Feb 2017
# ------------------------------------------
# Eigenvalues calculated from a non-polarized calculation
# Eigenvalues read from siesta.EIG
# Kpoint weights read from siesta.KP
# Using smearing parameter:   0.0500
# Using 1000 points in the energy range
# Selected bands: 1 to: 2981
# Emin, Emax in file for selected band(s):    -27.0493148    218.3121580
# Nbands, Nspin, Nk   =   2981     1     1
# E_F                 =    -4.2965 eV --> (shifted to ZERO)
# Broadening          =     0.0500 eV
#
#        E            N(up)  (=)   N(down)         Ntot
     -5.000000     45.107965     45.107965     90.215930
     -4.989990     49.248984     49.248984     98.497969
     -4.979980     51.802572     51.802572    103.605143
     -4.969970     52.464103     52.464103    104.928206
     -4.959960     51.238637     51.238637    102.477274
     -4.949950     48.425515     48.425515     96.851030
     -4.939940     44.534365     44.534365     89.068730
     -4.929930     40.183444     40.183444     80.366888
     -4.919920     36.026012     36.026012     72.052023
     -4.909910     32.715386     32.715386     65.430772
     -4.899900     30.878072     30.878072     61.756144
     -4.889890     31.044436     31.044436     62.088873
     -4.879880     33.507164     33.507164     67.014328
     -4.869870     38.137002     38.137002     76.274005
     -4.859860     44.251006     44.251006     88.502012
     -4.849850     50.649553     50.649553    101.299106
     -4.839840     55.879867     55.879867    111.759734
     -4.829830     58.663103     58.663103    117.326206
     -4.819820     58.311195     58.311195    116.622390
     -4.809810     54.939043     54.939043    109.878086
     -4.799800     49.373151     49.373151     98.746301
     -4.789790     42.813595     42.813595     85.627191
     -4.779780     36.422395     36.422395     72.844790
     -4.769770     31.018813     31.018813     62.037625
     -4.759760     26.971786     26.971786     53.943572
     -4.749750     24.265059     24.265059     48.530117
     -4.739740     22.644501     22.644501     45.289001
     -4.729730     21.760601     21.760601     43.521202
     -4.719720     21.262635     21.262635     42.525270
     -4.709710     20.843565     20.843565     41.687130
     -4.699700     20.256548     20.256548     40.513096
     -4.689690     19.327405     19.327405     38.654810
     -4.679680     17.980017     17.980017     35.960033
     -4.669670     16.276747     16.276747     32.553493
     -4.659660     14.457929     14.457929     28.915859
     -4.649650     12.952443     12.952443     25.904886
     -4.639640     12.333532     12.333532     24.667064
     -4.629630     13.209639     13.209639     26.419278
     -4.619620     16.061575     16.061575     32.123150
     -4.609610     21.059538     21.059538     42.119077
     -4.599600     27.914546     27.914546     55.829092
     -4.589590     35.832150     35.832150     71.664299
     -4.579580     43.625486     43.625486     87.250972
     -4.569570     49.995697     49.995697     99.991394
     -4.559560     53.909984     53.909984    107.819968
     -4.549550     54.940321     54.940321    109.880643
     -4.539540     53.416289     53.416289    106.832578
     -4.529530     50.312404     50.312404    100.624808
     -4.519520     46.905054     46.905054     93.810107
     -4.509510     44.336317     44.336317     88.672634
     -4.499499     43.258003     43.258003     86.516006
     -4.489489     43.684251     43.684251     87.368502
     -4.479479     45.083897     45.083897     90.167795
     -4.469469     46.645515     46.645515     93.291030
     -4.459459     47.592290     47.592290     95.184581
     -4.449449     47.426828     47.426828     94.853657
     -4.439439     46.034972     46.034972     92.069945
     -4.429429     43.643987     43.643987     87.287975
     -4.419419     40.684976     40.684976     81.369952
     -4.409409     37.633237     37.633237     75.266473
     -4.399399     34.888877     34.888877     69.777754
     -4.389389     32.723743     32.723743     65.447485
     -4.379379     31.281184     31.281184     62.562368
     -4.369369     30.594857     30.594857     61.189714
     -4.359359     30.601178     30.601178     61.202356
     -4.349349     31.146267     31.146267     62.292534
     -4.339339     32.008188     32.008188     64.016376
     -4.329329     32.951075     32.951075     65.902150
     -4.319319     33.802525     33.802525     67.605049
     -4.309309     34.521012     34.521012     69.042024
     -4.299299     35.216548     35.216548     70.433096
     -4.289289     36.107276     36.107276     72.214553
     -4.279279     37.422048     37.422048     74.844096
     -4.269269     39.278905     39.278905     78.557809
     -4.259259     41.579171     41.579171     83.158343
     -4.249249     43.960899     43.960899     87.921798
     -4.239239     45.850256     45.850256     91.700511
     -4.229229     46.622306     46.622306     93.244612
     -4.219219     45.829847     45.829847     91.659694
     -4.209209     43.405053     43.405053     86.810105
     -4.199199     39.726964     39.726964     79.453927
     -4.189189     35.503392     35.503392     71.006784
     -4.179179     31.514320     31.514320     63.028641
     -4.169169     28.342223     28.342223     56.684446
     -4.159159     26.219449     26.219449     52.438898
     -4.149149     25.052427     25.052427     50.104853
     -4.139139     24.585668     24.585668     49.171336
     -4.129129     24.603165     24.603165     49.206331
     -4.119119     25.058523     25.058523     50.117046
     -4.109109     26.069512     26.069512     52.139025
     -4.099099     27.781845     27.781845     55.563690
     -4.089089     30.174274     30.174274     60.348547
     -4.079079     32.916726     32.916726     65.833452
     -4.069069     35.380761     35.380761     70.761523
     -4.059059     36.829901     36.829901     73.659801
     -4.049049     36.715184     36.715184     73.430367
     -4.039039     34.929021     34.929021     69.858041
     -4.029029     31.881210     31.881210     63.762420
     -4.019019     28.356345     28.356345     56.712691
     -4.009009     25.232681     25.232681     50.465362
     -3.998999     23.209882     23.209882     46.419764
     -3.988989     22.666624     22.666624     45.333247
     -3.978979     23.675197     23.675197     47.350395
     -3.968969     26.108930     26.108930     52.217860
     -3.958959     29.748527     29.748527     59.497054
     -3.948949     34.332845     34.332845     68.665691
     -3.938939     39.565126     39.565126     79.130251
     -3.928929     45.122109     45.122109     90.244219
     -3.918919     50.696696     50.696696    101.393392
     -3.908909     56.056624     56.056624    112.113249
     -3.898899     61.067615     61.067615    122.135231
     -3.888889     65.640850     65.640850    131.281700
     -3.878879     69.616110     69.616110    139.232220
     -3.868869     72.647733     72.647733    145.295465
     -3.858859     74.180686     74.180686    148.361371
     -3.848849     73.569549     73.569549    147.139098
     -3.838839     70.317765     70.317765    140.635530
     -3.828829     64.338884     64.338884    128.677767
     -3.818819     56.111798     56.111798    112.223596
     -3.808809     46.640917     46.640917     93.281834
     -3.798799     37.221502     37.221502     74.443004
     -3.788789     29.099619     29.099619     58.199238
     -3.778779     23.156399     23.156399     46.312798
     -3.768769     19.722474     19.722474     39.444949
     -3.758759     18.564499     18.564499     37.128998
     -3.748749     19.021599     19.021599     38.043198
     -3.738739     20.232354     20.232354     40.464708
     -3.728729     21.384940     21.384940     42.769880
     -3.718719     21.931833     21.931833     43.863667
     -3.708709     21.723914     21.723914     43.447828
     -3.698699     21.033742     21.033742     42.067483
     -3.688689     20.457409     20.457409     40.914818
     -3.678679     20.712043     20.712043     41.424085
     -3.668669     22.379366     22.379366     44.758731
     -3.658659     25.674104     25.674104     51.348208
     -3.648649     30.322540     30.322540     60.645079
     -3.638639     35.607191     35.607191     71.214382
     -3.628629     40.570684     40.570684     81.141369
     -3.618619     44.301670     44.301670     88.603341
     -3.608609     46.188044     46.188044     92.376088
     -3.598599     46.043763     46.043763     92.087526
     -3.588589     44.083547     44.083547     88.167093
     -3.578579     40.790127     40.790127     81.580254
     -3.568569     36.748539     36.748539     73.497078
     -3.558559     32.504131     32.504131     65.008262
     -3.548549     28.465127     28.465127     56.930254
     -3.538539     24.850504     24.850504     49.701009
     -3.528529     21.685921     21.685921     43.371842
     -3.518519     18.853722     18.853722     37.707444
     -3.508509     16.188830     16.188830     32.377660
     -3.498498     13.586517     13.586517     27.173035
     -3.488488     11.074940     11.074940     22.149880
     -3.478478      8.820553      8.820553     17.641107
     -3.468468      7.068764      7.068764     14.137529
     -3.458458      6.050836      6.050836     12.101672
     -3.448448      5.895002      5.895002     11.790005
     -3.438438      6.569175      6.569175     13.138349
     -3.428428      7.869400      7.869400     15.738799
     -3.418418      9.460201      9.460201     18.920401
     -3.408408     10.964584     10.964584     21.929169
     -3.398398     12.084965     12.084965     24.169930
     -3.388388     12.715384     12.715384     25.430768
     -3.378378     12.996648     12.996648     25.993295
     -3.368368     13.283439     13.283439     26.566878
     -3.358358     14.031342     14.031342     28.062683
     -3.348348     15.648303     15.648303     31.296606
     -3.338338     18.364854     18.364854     36.729707
     -3.328328     22.156515     22.156515     44.313030
     -3.318318     26.721147     26.721147     53.442293
     -3.308308     31.500694     31.500694     63.001389
     -3.298298     35.747963     35.747963     71.495926
     -3.288288     38.652951     38.652951     77.305902
     -3.278278     39.530286     39.530286     79.060571
     -3.268268     38.025149     38.025149     76.050297
     -3.258258     34.253289     34.253289     68.506578
     -3.248248     28.795637     28.795637     57.591274
     -3.238238     22.531245     22.531245     45.062490
     -3.228228     16.376001     16.376001     32.752002
     -3.218218     11.040875     11.040875     22.081750
     -3.208208      6.902844      6.902844     13.805688
     -3.198198      4.014344      4.014344      8.028687
     -3.188188      2.211480      2.211480      4.422961
     -3.178178      1.253624      1.253624      2.507248
     -3.168168      0.939896      0.939896      1.879791
     -3.158158      1.178703      1.178703      2.357405
     -3.148148      2.010405      2.010405      4.020810
     -3.138138      3.590609      3.590609      7.181217
     -3.128128      6.138278      6.138278     12.276556
     -3.118118      9.851066      9.851066     19.702133
     -3.108108     14.798273     14.798273     29.596546
     -3.098098     20.818344     20.818344     41.636689
     -3.088088     27.462130     27.462130     54.924260
     -3.078078     34.021404     34.021404     68.042807
     -3.068068     39.656794     39.656794     79.313588
     -3.058058     43.596835     43.596835     87.193670
     -3.048048     45.341107     45.341107     90.682213
     -3.038038     44.790027     44.790027     89.580054
     -3.028028     42.252904     42.252904     84.505809
     -3.018018     38.340834     38.340834     76.681668
     -3.008008     33.799464     33.799464     67.598928
     -2.997998     29.350124     29.350124     58.700248
     -2.987988     25.583683     25.583683     51.167365
     -2.977978     22.913715     22.913715     45.827430
     -2.967968     21.572028     21.572028     43.144056
     -2.957958     21.627929     21.627929     43.255858
     -2.947948     23.019039     23.019039     46.038078
     -2.937938     25.581457     25.581457     51.162915
     -2.927928     29.063963     29.063963     58.127925
     -2.917918     33.119503     33.119503     66.239007
     -2.907908     37.291498     37.291498     74.582996
     -2.897898     41.033705     41.033705     82.067410
     -2.887888     43.794983     43.794983     87.589965
     -2.877878     45.159107     45.159107     90.318214
     -2.867868     44.981157     44.981157     89.962313
     -2.857858     43.444156     43.444156     86.888312
     -2.847848     40.991567     40.991567     81.983134
     -2.837838     38.156251     38.156251     76.312502
     -2.827828     35.364467     35.364467     70.728934
     -2.817818     32.808518     32.808518     65.617036
     -2.807808     30.444886     30.444886     60.889773
     -2.797798     28.107593     28.107593     56.215186
     -2.787788     25.666869     25.666869     51.333738
     -2.777778     23.143398     23.143398     46.286796
     -2.767768     20.718369     20.718369     41.436739
     -2.757758     18.641955     18.641955     37.283909
     -2.747748     17.102108     17.102108     34.204217
     -2.737738     16.137368     16.137368     32.274736
     -2.727728     15.647910     15.647910     31.295819
     -2.717718     15.495336     15.495336     30.990672
     -2.707708     15.622682     15.622682     31.245364
     -2.697698     16.110373     16.110373     32.220745
     -2.687688     17.123892     17.123892     34.247785
     -2.677678     18.780958     18.780958     37.561915
     -2.667668     21.023558     21.023558     42.047117
     -2.657658     23.583533     23.583533     47.167067
     -2.647648     26.073869     26.073869     52.147738
     -2.637638     28.156599     28.156599     56.313199
     -2.627628     29.686549     29.686549     59.373098
     -2.617618     30.745182     30.745182     61.490364
     -2.607608     31.551415     31.551415     63.102830
     -2.597598     32.314693     32.314693     64.629385
     -2.587588     33.123283     33.123283     66.246567
     -2.577578     33.920954     33.920954     67.841908
     -2.567568     34.555286     34.555286     69.110571
     -2.557558     34.839915     34.839915     69.679830
     -2.547548     34.590068     34.590068     69.180137
     -2.537538     33.640564     33.640564     67.281127
     -2.527528     31.884556     31.884556     63.769113
     -2.517518     29.349610     29.349610     58.699220
     -2.507508     26.276134     26.276134     52.552268
     -2.497497     23.132342     23.132342     46.264684
     -2.487487     20.522107     20.522107     41.044213
     -2.477477     19.004450     19.004450     38.008901
     -2.467467     18.901517     18.901517     37.803033
     -2.457457     20.186949     20.186949     40.373899
     -2.447447     22.510845     22.510845     45.021690
     -2.437437     25.352442     25.352442     50.704884
     -2.427427     28.230939     28.230939     56.461878
     -2.417417     30.876665     30.876665     61.753331
     -2.407407     33.282406     33.282406     66.564811
     -2.397397     35.611130     35.611130     71.222259
     -2.387387     38.006497     38.006497     76.012993
     -2.377377     40.402947     40.402947     80.805894
     -2.367367     42.437542     42.437542     84.875083
     -2.357357     43.521176     43.521176     87.042353
     -2.347347     43.051276     43.051276     86.102553
     -2.337337     40.676684     40.676684     81.353368
     -2.327327     36.494648     36.494648     72.989296
     -2.317317     31.088163     31.088163     62.176326
     -2.307307     25.386321     25.386321     50.772643
     -2.297297     20.410092     20.410092     40.820184
     -2.287287     17.007704     17.007704     34.015409
     -2.277277     15.670697     15.670697     31.341393
     -2.267267     16.472002     16.472002     32.944003
     -2.257257     19.115790     19.115790     38.231580
     -2.247247     23.058707     23.058707     46.117413
     -2.237237     27.654905     27.654905     55.309811
     -2.227227     32.282771     32.282771     64.565543
     -2.217217     36.423466     36.423466     72.846932
     -2.207207     39.681868     39.681868     79.363735
     -2.197197     41.767576     41.767576     83.535152
     -2.187187     42.474807     42.474807     84.949614
     -2.177177     41.697435     41.697435     83.394870
     -2.167167     39.483455     39.483455     78.966911
     -2.157157     36.089950     36.089950     72.179900
     -2.147147     31.978824     31.978824     63.957648
     -2.137137     27.718291     27.718291     55.436583
     -2.127127     23.814903     23.814903     47.629807
     -2.117117     20.554747     20.554747     41.109494
     -2.107107     17.938471     17.938471     35.876941
     -2.097097     15.744546     15.744546     31.489092
     -2.087087     13.681797     13.681797     27.363594
     -2.077077     11.545441     11.545441     23.090883
     -2.067067      9.299331      9.299331     18.598662
     -2.057057      7.059143      7.059143     14.118286
     -2.047047      5.008131      5.008131     10.016261
     -2.037037      3.303603      3.303603      6.607205
     -2.027027      2.020378      2.020378      4.040756
     -2.017017      1.144792      1.144792      2.289585
     -2.007007      0.604437      0.604437      1.208873
     -1.996997      0.308772      0.308772      0.617545
     -1.986987      0.182242      0.182242      0.364485
     -1.976977      0.183824      0.183824      0.367648
     -1.966967      0.315609      0.315609      0.631218
     -1.956957      0.624459      0.624459      1.248919
     -1.946947      1.197077      1.197077      2.394155
     -1.936937      2.144570      2.144570      4.289140
     -1.926927      3.572346      3.572346      7.144693
     -1.916917      5.537127      5.537127     11.074254
     -1.906907      8.002815      8.002815     16.005631
     -1.896897     10.814469     10.814469     21.628937
     -1.886887     13.707584     13.707584     27.415169
     -1.876877     16.356855     16.356855     32.713711
     -1.866867     18.451269     18.451269     36.902538
     -1.856857     19.771334     19.771334     39.542669
     -1.846847     20.244426     20.244426     40.488853
     -1.836837     19.961947     19.961947     39.923895
     -1.826827     19.150912     19.150912     38.301825
     -1.816817     18.102031     18.102031     36.204061
     -1.806807     17.070749     17.070749     34.141499
     -1.796797     16.185593     16.185593     32.371185
     -1.786787     15.406565     15.406565     30.813131
     -1.776777     14.560714     14.560714     29.121427
     -1.766767     13.443614     13.443614     26.887229
     -1.756757     11.937510     11.937510     23.875020
     -1.746747     10.086896     10.086896     20.173791
     -1.736737      8.099064      8.099064     16.198128
     -1.726727      6.280983      6.280983     12.561966
     -1.716717      4.953680      4.953680      9.907361
     -1.706707      4.383334      4.383334      8.766667
     -1.696697      4.742581      4.742581      9.485163
     -1.686687      6.090189      6.090189     12.180378
     -1.676677      8.351594      8.351594     16.703188
     -1.666667     11.298088     11.298088     22.596175
     -1.656657     14.542999     14.542999     29.085999
     -1.646647     17.580461     17.580461     35.160922
     -1.636637     19.878003     19.878003     39.756007
     -1.626627     21.005890     21.005890     42.011780
