# EIG2DOS: Utility for SIESTA to obtain the electronic density of states
#  E. Artacho, Apr 1999, A. Garcia, Apr 2012
#  Nick R. Papior, Feb 2017
# ------------------------------------------
# Eigenvalues calculated from a non-polarized calculation
# Eigenvalues read from siesta.EIG
# Kpoint weights read from siesta.KP
# Using smearing parameter:   0.0500
# Using 1000 points in the energy range
# Selected bands: 1 to: 2981
# Emin, Emax in file for selected band(s):    -27.0336509    218.3244360
# Nbands, Nspin, Nk   =   2981     1     1
# E_F                 =    -4.2827 eV --> (shifted to ZERO)
# Broadening          =     0.0500 eV
#
#        E            N(up)  (=)   N(down)         Ntot
     -5.000000     43.630693     43.630693     87.261385
     -4.989990     45.322088     45.322088     90.644176
     -4.979980     46.242389     46.242389     92.484779
     -4.969970     46.296800     46.296800     92.593600
     -4.959960     45.397158     45.397158     90.794317
     -4.949950     43.534341     43.534341     87.068682
     -4.939940     40.842931     40.842931     81.685861
     -4.929930     37.632404     37.632404     75.264809
     -4.919920     34.380722     34.380722     68.761444
     -4.909910     31.695884     31.695884     63.391769
     -4.899900     30.242622     30.242622     60.485243
     -4.889890     30.619359     30.619359     61.238718
     -4.879880     33.180039     33.180039     66.360078
     -4.869870     37.837316     37.837316     75.674633
     -4.859860     43.935937     43.935937     87.871874
     -4.849850     50.300406     50.300406    100.600811
     -4.839840     55.504093     55.504093    111.008186
     -4.829830     58.292936     58.292936    116.585871
     -4.819820     57.993628     57.993628    115.987257
     -4.809810     54.719472     54.719472    109.438945
     -4.799800     49.280295     49.280295     98.560589
     -4.789790     42.852519     42.852519     85.705038
     -4.779780     36.576897     36.576897     73.153794
     -4.769770     31.259114     31.259114     62.518228
     -4.759760     27.262262     27.262262     54.524524
     -4.749750     24.569450     24.569450     49.138900
     -4.739740     22.929284     22.929284     45.858568
     -4.729730     21.998126     21.998126     43.996252
     -4.719720     21.434278     21.434278     42.868556
     -4.709710     20.941664     20.941664     41.883328
     -4.699700     20.284039     20.284039     40.568077
     -4.689690     19.295588     19.295588     38.591176
     -4.679680     17.906157     17.906157     35.812314
     -4.669670     16.182934     16.182934     32.365867
     -4.659660     14.371132     14.371132     28.742265
     -4.649650     12.904196     12.904196     25.808391
     -4.639640     12.357232     12.357232     24.714464
     -4.629630     13.334224     13.334224     26.668448
     -4.619620     16.302022     16.302022     32.604043
     -4.609610     21.406832     21.406832     42.813665
     -4.599600     28.329797     28.329797     56.659594
     -4.589590     36.250030     36.250030     72.500060
     -4.579580     43.969678     43.969678     87.939356
     -4.569570     50.203514     50.203514    100.407028
     -4.559560     53.957282     53.957282    107.914564
     -4.549550     54.855297     54.855297    109.710593
     -4.539540     53.274443     53.274443    106.548885
     -4.529530     50.213681     50.213681    100.427361
     -4.519520     46.943392     46.943392     93.886783
     -4.509510     44.576536     44.576536     89.153071
     -4.499499     43.732464     43.732464     87.464928
     -4.489489     44.412844     44.412844     88.825688
     -4.479479     46.108425     46.108425     92.216850
     -4.469469     48.057846     48.057846     96.115691
     -4.459459     49.530370     49.530370     99.060741
     -4.449449     50.020388     50.020388    100.040775
     -4.439439     49.306586     49.306586     98.613172
     -4.429429     47.404317     47.404317     94.808634
     -4.419419     44.484366     44.484366     88.968733
     -4.409409     40.822905     40.822905     81.645811
     -4.399399     36.796462     36.796462     73.592923
     -4.389389     32.881491     32.881491     65.762981
     -4.379379     29.603032     29.603032     59.206064
     -4.369369     27.414493     27.414493     54.828987
     -4.359359     26.552563     26.552563     53.105126
     -4.349349     26.948145     26.948145     53.896290
     -4.339339     28.254689     28.254689     56.509378
     -4.329329     29.991158     29.991158     59.982316
     -4.319319     31.732631     31.732631     63.465261
     -4.309309     33.258934     33.258934     66.517869
     -4.299299     34.599875     34.599875     69.199749
     -4.289289     35.969336     35.969336     71.938673
     -4.279279     37.625175     37.625175     75.250351
     -4.269269     39.710208     39.710208     79.420416
     -4.259259     42.128364     42.128364     84.256729
     -4.249249     44.502317     44.502317     89.004635
     -4.239239     46.244591     46.244591     92.489182
     -4.229229     46.741020     46.741020     93.482039
     -4.219219     45.591500     45.591500     91.183000
     -4.209209     42.804584     42.804584     85.609168
     -4.199199     38.841378     38.841378     77.682756
     -4.189189     34.469474     34.469474     68.938948
     -4.179179     30.488350     30.488350     60.976699
     -4.169169     27.459461     27.459461     54.918921
     -4.159159     25.568624     25.568624     51.137248
     -4.149149     24.670807     24.670807     49.341613
     -4.139139     24.470179     24.470179     48.940358
     -4.129129     24.727441     24.727441     49.454882
     -4.119119     25.385982     25.385982     50.771963
     -4.109109     26.557063     26.557063     53.114126
     -4.099099     28.375148     28.375148     56.750296
     -4.089089     30.800996     30.800996     61.601993
     -4.079079     33.486294     33.486294     66.972589
     -4.069069     35.796126     35.796126     71.592251
     -4.059059     37.009801     37.009801     74.019603
     -4.049049     36.618290     36.618290     73.236580
     -4.039039     34.568845     34.568845     69.137691
     -4.029029     31.324809     31.324809     62.649618
     -4.019019     27.707777     27.707777     55.415555
     -4.009009     24.608659     24.608659     49.217318
     -3.998999     22.716335     22.716335     45.432670
     -3.988989     22.381609     22.381609     44.763219
     -3.978979     23.639460     23.639460     47.278920
     -3.968969     26.323425     26.323425     52.646850
     -3.958959     30.178465     30.178465     60.356931
     -3.948949     34.918175     34.918175     69.836351
     -3.938939     40.236125     40.236125     80.472250
     -3.928929     45.816229     45.816229     91.632458
     -3.918919     51.370862     51.370862    102.741723
     -3.908909     56.689785     56.689785    113.379570
     -3.898899     61.651993     61.651993    123.303987
     -3.888889     66.165858     66.165858    132.331716
     -3.878879     70.053523     70.053523    140.107046
     -3.868869     72.947463     72.947463    145.894926
     -3.858859     74.282000     74.282000    148.564001
     -3.848849     73.424469     73.424469    146.848938
     -3.838839     69.916021     69.916021    139.832042
     -3.828829     63.721854     63.721854    127.443707
     -3.818819     55.367817     55.367817    110.735633
     -3.808809     45.883438     45.883438     91.766876
     -3.798799     36.559326     36.559326     73.118652
     -3.788789     28.610665     28.610665     57.221330
     -3.778779     22.873093     22.873093     45.746185
     -3.768769     19.630896     19.630896     39.261791
     -3.758759     18.614647     18.614647     37.229294
     -3.748749     19.144137     19.144137     38.288275
     -3.738739     20.357317     20.357317     40.714633
     -3.728729     21.458670     21.458670     42.917340
     -3.718719     21.929033     21.929033     43.858066
     -3.708709     21.652334     21.652334     43.304668
     -3.698699     20.930195     20.930195     41.860390
     -3.688689     20.375682     20.375682     40.751365
     -3.678679     20.705587     20.705587     41.411173
     -3.668669     22.483614     22.483614     44.967229
     -3.658659     25.894007     25.894007     51.788013
     -3.648649     30.629643     30.629643     61.259285
     -3.638639     35.947366     35.947366     71.894733
     -3.628629     40.879510     40.879510     81.759019
     -3.618619     44.521544     44.521544     89.043087
     -3.608609     46.281055     46.281055     92.562110
     -3.598599     45.997110     45.997110     91.994220
     -3.588589     43.907964     43.907964     87.815929
     -3.578579     40.514005     40.514005     81.028010
     -3.568569     36.410348     36.410348     72.820696
     -3.558559     32.144543     32.144543     64.289085
     -3.548549     28.119568     28.119568     56.239136
     -3.538539     24.543321     24.543321     49.086641
     -3.528529     21.427819     21.427819     42.855639
     -3.518519     18.643485     18.643485     37.286969
     -3.508509     16.018459     16.018459     32.036919
     -3.498498     13.447300     13.447300     26.894600
     -3.488488     10.961696     10.961696     21.923391
     -3.478478      8.732679      8.732679     17.465359
     -3.468468      7.008515      7.008515     14.017031
     -3.458458      6.020380      6.020380     12.040761
     -3.448448      5.893821      5.893821     11.787642
     -3.438438      6.592753      6.592753     13.185507
     -3.428428      7.909599      7.909599     15.819198
     -3.418418      9.507315      9.507315     19.014631
     -3.408408     11.010713     11.010713     22.021426
     -3.398398     12.127730     12.127730     24.255460
     -3.388388     12.760558     12.760558     25.521116
     -3.378378     13.058361     13.058361     26.116723
     -3.368368     13.381542     13.381542     26.763084
     -3.358358     14.186653     14.186653     28.373305
     -3.348348     15.877073     15.877073     31.754147
     -3.338338     18.673414     18.673414     37.346828
     -3.328328     22.536361     22.536361     45.072722
     -3.318318     27.144864     27.144864     54.289728
     -3.308308     31.920523     31.920523     63.841045
     -3.298298     36.100180     36.100180     72.200360
     -3.288288     38.870405     38.870405     77.740809
     -3.278278     39.561325     39.561325     79.122650
     -3.268268     37.852039     37.852039     75.704077
     -3.258258     33.901049     33.901049     67.802099
     -3.248248     28.325784     28.325784     56.651567
     -3.238238     22.022552     22.022552     44.045104
     -3.228228     15.901073     15.901073     31.802145
     -3.218218     10.648663     10.648663     21.297326
     -3.208208      6.612886      6.612886     13.225772
     -3.198198      3.822006      3.822006      7.644012
     -3.188188      2.099003      2.099003      4.198007
     -3.178178      1.201093      1.201093      2.402185
     -3.168168      0.932156      0.932156      1.864313
     -3.158158      1.206389      1.206389      2.412778
     -3.148148      2.064100      2.064100      4.128200
     -3.138138      3.647184      3.647184      7.294367
     -3.128128      6.139482      6.139482     12.278965
     -3.118118      9.678619      9.678619     19.357239
     -3.108108     14.257241     14.257241     28.514483
     -3.098098     19.647955     19.647955     39.295910
     -3.088088     25.392884     25.392884     50.785769
     -3.078078     30.881800     30.881800     61.763601
     -3.068068     35.502078     35.502078     71.004155
     -3.058058     38.799859     38.799859     77.599717
     -3.048048     40.576339     40.576339     81.152677
     -3.038038     40.875353     40.875353     81.750705
     -3.028028     39.884285     39.884285     79.768569
     -3.018018     37.825353     37.825353     75.650706
     -3.008008     34.915496     34.915496     69.830992
     -2.997998     31.415789     31.415789     62.831578
     -2.987988     27.717579     27.717579     55.435158
     -2.977978     24.378558     24.378558     48.757116
     -2.967968     22.052586     22.052586     44.105171
     -2.957958     21.326870     21.326870     42.653741
     -2.947948     22.537852     22.537852     45.075704
     -2.937938     25.647443     25.647443     51.294885
     -2.927928     30.226880     30.226880     60.453760
     -2.917918     35.546415     35.546415     71.092830
     -2.907908     40.734888     40.734888     81.469775
     -2.897898     44.963615     44.963615     89.927230
     -2.887888     47.614700     47.614700     95.229400
     -2.877878     48.401138     48.401138     96.802276
     -2.867868     47.410764     47.410764     94.821528
     -2.857858     45.055530     45.055530     90.111060
     -2.847848     41.930790     41.930790     83.861579
     -2.837838     38.623813     38.623813     77.247626
     -2.827828     35.539555     35.539555     71.079111
     -2.817818     32.813250     32.813250     65.626500
     -2.807808     30.344840     30.344840     60.689680
     -2.797798     27.933103     27.933103     55.866207
     -2.787788     25.437721     25.437721     50.875443
     -2.777778     22.884565     22.884565     45.769130
     -2.767768     20.462548     20.462548     40.925096
     -2.757758     18.422431     18.422431     36.844861
     -2.747748     16.943927     16.943927     33.887855
     -2.737738     16.054185     16.054185     32.108371
     -2.727728     15.646845     15.646845     31.293690
     -2.717718     15.585703     15.585703     31.171406
     -2.707708     15.820676     15.820676     31.641352
     -2.697698     16.433489     16.433489     32.866978
     -2.687688     17.575545     17.575545     35.151091
     -2.677678     19.333636     19.333636     38.667273
     -2.667668     21.612500     21.612500     43.225000
     -2.657658     24.118890     24.118890     48.237779
     -2.647648     26.468978     26.468978     52.937955
     -2.637638     28.359446     28.359446     56.718891
     -2.627628     29.698151     29.698151     59.396303
     -2.617618     30.615496     30.615496     61.230992
     -2.607608     31.356136     31.356136     62.712271
     -2.597598     32.126204     32.126204     64.252407
     -2.587588     32.989415     32.989415     65.978830
     -2.577578     33.857318     33.857318     67.714636
     -2.567568     34.548088     34.548088     69.096175
     -2.557558     34.853212     34.853212     69.706425
     -2.547548     34.574785     34.574785     69.149570
     -2.537538     33.546658     33.546658     67.093317
     -2.527528     31.677225     31.677225     63.354450
     -2.517518     29.025479     29.025479     58.050959
     -2.507508     25.871375     25.871375     51.742750
     -2.497497     22.716297     22.716297     45.432595
     -2.487487     20.177110     20.177110     40.354220
     -2.477477     18.800079     18.800079     37.600159
     -2.467467     18.874404     18.874404     37.748808
     -2.457457     20.334052     20.334052     40.668105
     -2.447447     22.797279     22.797279     45.594558
     -2.437437     25.728505     25.728505     51.457009
     -2.427427     28.649725     28.649725     57.299451
     -2.417417     31.304582     31.304582     62.609164
     -2.407407     33.699080     33.699080     67.398159
     -2.397397     36.000628     36.000628     72.001256
     -2.387387     38.345907     38.345907     76.691814
     -2.377377     40.655493     40.655493     81.310986
     -2.367367     42.555198     42.555198     85.110396
     -2.357357     43.457296     43.457296     86.914591
     -2.347347     42.778810     42.778810     85.557620
     -2.337337     40.204189     40.204189     80.408379
     -2.327327     35.872172     35.872172     71.744344
     -2.317317     30.398974     30.398974     60.797949
     -2.307307     24.726840     24.726840     49.453680
     -2.297297     19.865890     19.865890     39.731780
     -2.287287     16.634972     16.634972     33.269945
     -2.277277     15.489375     15.489375     30.978751
     -2.267267     16.471034     16.471034     32.942067
     -2.257257     19.265809     19.265809     38.531618
     -2.247247     23.325153     23.325153     46.650307
     -2.237237     28.005531     28.005531     56.011061
     -2.227227     32.687096     32.687096     65.374191
     -2.217217     36.846502     36.846502     73.693004
     -2.207207     40.078125     40.078125     80.156250
     -2.197197     42.081854     42.081854     84.163708
     -2.187187     42.652694     42.652694     85.305387
     -2.177177     41.702357     41.702357     83.404713
     -2.167167     39.312068     39.312068     78.624135
     -2.157157     35.776975     35.776975     71.553951
     -2.147147     31.587082     31.587082     63.174164
     -2.137137     27.317286     27.317286     54.634572
     -2.127127     23.457585     23.457585     46.915171
     -2.117117     20.263154     20.263154     40.526307
     -2.107107     17.704094     17.704094     35.408189
     -2.097097     15.541415     15.541415     31.082829
     -2.087087     13.484076     13.484076     26.968153
     -2.077077     11.340377     11.340377     22.680754
     -2.067067      9.090466      9.090466     18.180932
     -2.057057      6.860814      6.860814     13.721628
     -2.047047      4.836349      4.836349      9.672699
     -2.037037      3.168739      3.168739      6.337477
     -2.027027      1.924434      1.924434      3.848868
     -2.017017      1.082886      1.082886      2.165771
     -2.007007      0.568302      0.568302      1.136604
     -1.996997      0.290127      0.290127      0.580255
     -1.986987      0.174913      0.174913      0.349827
     -1.976977      0.184596      0.184596      0.369193
     -1.966967      0.324278      0.324278      0.648556
     -1.956957      0.643494      0.643494      1.286989
     -1.946947      1.230981      1.230981      2.461963
     -1.936937      2.198773      2.198773      4.397546
     -1.926927      3.651507      3.651507      7.303014
     -1.916917      5.643043      5.643043     11.286085
     -1.906907      8.132554      8.132554     16.265108
     -1.896897     10.959514     10.959514     21.919028
     -1.886887     13.854528     13.854528     27.709055
     -1.876877     16.489606     16.489606     32.979212
     -1.866867     18.554242     18.554242     37.108484
     -1.856857     19.832845     19.832845     39.665690
     -1.846847     20.259518     20.259518     40.519037
     -1.836837     19.933845     19.933845     39.867691
     -1.826827     19.090300     19.090300     38.180599
     -1.816817     18.023821     18.023821     36.047643
     -1.806807     16.989150     16.989150     33.978300
     -1.796797     16.109510     16.109510     32.219019
     -1.786787     15.337787     15.337787     30.675574
     -1.776777     14.496161     14.496161     28.992323
     -1.766767     13.380961     13.380961     26.761921
     -1.756757     11.881933     11.881933     23.763865
     -1.746747     10.056646     10.056646     20.113292
     -1.736737      8.128386      8.128386     16.256772
     -1.726727      6.419428      6.419428     12.838857
     -1.716717      5.260250      5.260250     10.520501
     -1.706707      4.913168      4.913168      9.826336
     -1.696697      5.525383      5.525383     11.050765
     -1.686687      7.104570      7.104570     14.209139
     -1.676677      9.506171      9.506171     19.012342
     -1.666667     12.433207     12.433207     24.866415
     -1.656657     15.461456     15.461456     30.922911
     -1.646647     18.101752     18.101752     36.203504
     -1.636637     19.895957     19.895957     39.791913
     -1.626627     20.524243     20.524243     41.048487
