# EIG2DOS: Utility for SIESTA to obtain the electronic density of states
#  E. Artacho, Apr 1999, A. Garcia, Apr 2012
#  Nick R. Papior, Feb 2017
# ------------------------------------------
# Eigenvalues calculated from a non-polarized calculation
# Eigenvalues read from siesta.EIG
# Kpoint weights read from siesta.KP
# Using smearing parameter:   0.0500
# Using 1000 points in the energy range
# Selected bands: 1 to: 2981
# Emin, Emax in file for selected band(s):    -27.3025799    218.3944440
# Nbands, Nspin, Nk   =   2981     1     1
# E_F                 =    -4.2072 eV --> (shifted to ZERO)
# Broadening          =     0.0500 eV
#
#        E            N(up)  (=)   N(down)         Ntot
     -5.000000     31.151165     31.151165     62.302329
     -4.989990     35.989268     35.989268     71.978537
     -4.979980     40.646131     40.646131     81.292261
     -4.969970     44.354525     44.354525     88.709049
     -4.959960     46.424176     46.424176     92.848353
     -4.949950     46.468590     46.468590     92.937179
     -4.939940     44.541141     44.541141     89.082281
     -4.929930     41.136346     41.136346     82.272691
     -4.919920     37.075199     37.075199     74.150398
     -4.909910     33.330952     33.330952     66.661904
     -4.899900     30.845525     30.845525     61.691050
     -4.889890     30.355503     30.355503     60.711005
     -4.879880     32.228819     32.228819     64.457638
     -4.869870     36.330715     36.330715     72.661430
     -4.859860     41.973011     41.973011     83.946023
     -4.849850     48.011049     48.011049     96.022097
     -4.839840     53.108607     53.108607    106.217214
     -4.829830     56.107338     56.107338    112.214675
     -4.819820     56.366574     56.366574    112.733148
     -4.809810     53.934197     53.934197    107.868394
     -4.799800     49.481304     49.481304     98.962608
     -4.789790     44.042800     44.042800     88.085599
     -4.779780     38.687600     38.687600     77.375199
     -4.769770     34.251044     34.251044     68.502088
     -4.759760     31.203000     31.203000     62.406000
     -4.749750     29.644902     29.644902     59.289805
     -4.739740     29.379239     29.379239     58.758477
     -4.729730     29.995983     29.995983     59.991966
     -4.719720     30.953956     30.953956     61.907912
     -4.709710     31.666199     31.666199     63.332399
     -4.699700     31.604201     31.604201     63.208401
     -4.689690     30.417326     30.417326     60.834651
     -4.679680     28.039295     28.039295     56.078591
     -4.669670     24.742745     24.742745     49.485490
     -4.659660     21.114338     21.114338     42.228677
     -4.649650     17.949556     17.949556     35.899112
     -4.639640     16.091300     16.091300     32.182601
     -4.629630     16.246747     16.246747     32.493493
     -4.619620     18.813964     18.813964     37.627928
     -4.609610     23.747165     23.747165     47.494331
     -4.599600     30.496030     30.496030     60.992059
     -4.589590     38.060989     38.060989     76.121978
     -4.579580     45.190383     45.190383     90.380766
     -4.569570     50.695284     50.695284    101.390568
     -4.559560     53.791830     53.791830    107.583660
     -4.549550     54.340948     54.340948    108.681897
     -4.539540     52.876577     52.876577    105.753155
     -4.529530     50.395534     50.395534    100.791068
     -4.519520     47.985837     47.985837     95.971675
     -4.509510     46.441857     46.441857     92.883713
     -4.499499     46.018018     46.018018     92.036036
     -4.489489     46.407867     46.407867     92.815733
     -4.479479     46.935363     46.935363     93.870725
     -4.469469     46.858534     46.858534     93.717068
     -4.459459     45.650884     45.650884     91.301768
     -4.449449     43.154871     43.154871     86.309742
     -4.439439     39.574336     39.574336     79.148671
     -4.429429     35.349132     35.349132     70.698263
     -4.419419     30.996972     30.996972     61.993944
     -4.409409     26.997327     26.997327     53.994654
     -4.399399     23.743130     23.743130     47.486260
     -4.389389     21.533771     21.533771     43.067541
     -4.379379     20.563061     20.563061     41.126122
     -4.369369     20.879409     20.879409     41.758817
     -4.359359     22.339932     22.339932     44.679863
     -4.349349     24.607391     24.607391     49.214782
     -4.339339     27.224590     27.224590     54.449179
     -4.329329     29.754466     29.754466     59.508933
     -4.319319     31.928856     31.928856     63.857712
     -4.309309     33.735578     33.735578     67.471157
     -4.299299     35.398471     35.398471     70.796942
     -4.289289     37.250928     37.250928     74.501856
     -4.279279     39.547100     39.547100     79.094199
     -4.269269     42.282148     42.282148     84.564297
     -4.259259     45.098835     45.098835     90.197670
     -4.249249     47.337923     47.337923     94.675846
     -4.239239     48.240343     48.240343     96.480685
     -4.229229     47.238974     47.238974     94.477948
     -4.219219     44.219222     44.219222     88.438444
     -4.209209     39.621518     39.621518     79.243036
     -4.199199     34.323519     34.323519     68.647039
     -4.189189     29.346821     29.346821     58.693642
     -4.179179     25.520764     25.520764     51.041527
     -4.169169     23.252029     23.252029     46.504058
     -4.159159     22.487017     22.487017     44.974033
     -4.149149     22.855604     22.855604     45.711207
     -4.139139     23.905505     23.905505     47.811009
     -4.129129     25.310126     25.310126     50.620253
     -4.119119     26.959922     26.959922     53.919843
     -4.109109     28.906906     28.906906     57.813812
     -4.099099     31.199861     31.199861     62.399722
     -4.089089     33.701638     33.701638     67.403276
     -4.079079     35.997577     35.997577     71.995153
     -4.069069     37.468261     37.468261     74.936523
     -4.059059     37.516299     37.516299     75.032597
     -4.049049     35.845326     35.845326     71.690652
     -4.039039     32.647223     32.647223     65.294445
     -4.029029     28.594128     28.594128     57.188257
     -4.019019     24.634807     24.634807     49.269614
     -4.009009     21.695922     21.695922     43.391843
     -3.998999     20.426318     20.426318     40.852637
     -3.988989     21.080668     21.080668     42.161336
     -3.978979     23.553917     23.553917     47.107834
     -3.968969     27.506781     27.506781     55.013562
     -3.958959     32.502694     32.502694     65.005387
     -3.948949     38.106008     38.106008     76.212017
     -3.938939     43.936432     43.936432     87.872865
     -3.928929     49.699102     49.699102     99.398204
     -3.918919     55.200882     55.200882    110.401764
     -3.908909     60.340090     60.340090    120.680180
     -3.898899     65.050002     65.050002    130.100004
     -3.888889     69.200689     69.200689    138.401378
     -3.878879     72.503021     72.503021    145.006042
     -3.868869     74.479744     74.479744    148.959487
     -3.858859     74.548772     74.548772    149.097545
     -3.848849     72.209487     72.209487    144.418974
     -3.838839     67.264333     67.264333    134.528665
     -3.828829     59.979602     59.979602    119.959205
     -3.818819     51.107545     51.107545    102.215089
     -3.808809     41.747965     41.747965     83.495931
     -3.798799     33.092832     33.092832     66.185664
     -3.788789     26.140980     26.140980     52.281959
     -3.778779     21.474699     21.474699     42.949398
     -3.768769     19.159894     19.159894     38.319789
     -3.758759     18.785891     18.785891     37.571782
     -3.748749     19.620413     19.620413     39.240826
     -3.738739     20.830827     20.830827     41.661655
     -3.728729     21.714553     21.714553     43.429106
     -3.718719     21.884639     21.884639     43.769278
     -3.708709     21.366799     21.366799     42.733598
     -3.698699     20.580852     20.580852     41.161705
     -3.688689     20.203421     20.203421     40.406842
     -3.678679     20.939711     20.939711     41.879423
     -3.668669     23.265184     23.265184     46.530369
     -3.658659     27.220986     27.220986     54.441973
     -3.648649     32.343621     32.343621     64.687242
     -3.638639     37.768864     37.768864     75.537729
     -3.628629     42.480837     42.480837     84.961674
     -3.618619     45.611347     45.611347     91.222694
     -3.608609     46.671568     46.671568     93.343135
     -3.598599     45.635413     45.635413     91.270826
     -3.588589     42.869380     42.869380     85.738760
     -3.578579     38.968650     38.968650     77.937301
     -3.568569     34.577419     34.577419     69.154837
     -3.558559     30.245688     30.245688     60.491375
     -3.548549     26.339047     26.339047     52.678095
     -3.538539     23.001415     23.001415     46.002830
     -3.528529     20.172856     20.172856     40.345712
     -3.518519     17.663538     17.663538     35.327075
     -3.508509     15.266796     15.266796     30.533592
     -3.498498     12.870487     12.870487     25.740974
     -3.488488     10.519985     10.519985     21.039970
     -3.478478      8.408606      8.408606     16.817213
     -3.468468      6.807319      6.807319     13.614638
     -3.458458      5.970385      5.970385     11.940771
     -3.448448      6.054419      6.054419     12.108837
     -3.438438      7.072991      7.072991     14.145982
     -3.428428      8.893211      8.893211     17.786421
     -3.418418     11.271813     11.271813     22.543626
     -3.408408     13.921582     13.921582     27.843163
     -3.398398     16.589058     16.589058     33.178117
     -3.388388     19.116153     19.116153     38.232306
     -3.378378     21.462588     21.462588     42.925176
     -3.368368     23.685974     23.685974     47.371947
     -3.358358     25.898392     25.898392     51.796785
     -3.348348     28.223283     28.223283     56.446566
     -3.338338     30.759279     30.759279     61.518557
     -3.328328     33.536751     33.536751     67.073501
     -3.318318     36.454635     36.454635     72.909270
     -3.308308     39.216666     39.216666     78.433332
     -3.298298     41.321793     41.321793     82.643586
     -3.288288     42.162956     42.162956     84.325912
     -3.278278     41.234021     41.234021     82.468042
     -3.268268     38.365595     38.365595     76.731189
     -3.258258     33.866024     33.866024     67.732048
     -3.248248     28.475797     28.475797     56.951594
     -3.238238     23.138406     23.138406     46.276813
     -3.228228     18.687782     18.687782     37.375565
     -3.218218     15.591389     15.591389     31.182777
     -3.208208     13.852156     13.852156     27.704312
     -3.198198     13.092217     13.092217     26.184435
     -3.188188     12.764411     12.764411     25.528822
     -3.178178     12.396502     12.396502     24.793004
     -3.168168     11.775599     11.775599     23.551197
     -3.158158     11.015471     11.015471     22.030941
     -3.148148     10.498071     10.498071     20.996142
     -3.138138     10.722497     10.722497     21.444994
     -3.128128     12.116630     12.116630     24.233261
     -3.118118     14.868154     14.868154     29.736308
     -3.108108     18.821304     18.821304     37.642608
     -3.098098     23.471202     23.471202     46.942403
     -3.088088     28.067378     28.067378     56.134756
     -3.078078     31.806779     31.806779     63.613559
     -3.068068     34.058253     34.058253     68.116506
     -3.058058     34.535180     34.535180     69.070360
     -3.048048     33.344271     33.344271     66.688543
     -3.038038     30.891974     30.891974     61.783947
     -3.028028     27.700340     27.700340     55.400681
     -3.018018     24.228590     24.228590     48.457180
     -3.008008     20.785057     20.785057     41.570113
     -2.997998     17.554187     17.554187     35.108374
     -2.987988     14.695198     14.695198     29.390395
     -2.977978     12.435689     12.435689     24.871377
     -2.967968     11.099175     11.099175     22.198350
     -2.957958     11.050101     11.050101     22.100202
     -2.947948     12.581377     12.581377     25.162755
     -2.937938     15.789228     15.789228     31.578456
     -2.927928     20.480352     20.480352     40.960705
     -2.917918     26.147428     26.147428     52.294855
     -2.907908     32.034427     32.034427     64.068854
     -2.897898     37.289541     37.289541     74.579081
     -2.887888     41.170484     41.170484     82.340968
     -2.877878     43.236530     43.236530     86.473060
     -2.867868     43.453120     43.453120     86.906240
     -2.857858     42.161311     42.161311     84.322623
     -2.847848     39.919534     39.919534     79.839068
     -2.837838     37.283859     37.283859     74.567718
     -2.827828     34.623423     34.623423     69.246846
     -2.817818     32.050485     32.050485     64.100970
     -2.807808     29.485993     29.485993     58.971986
     -2.797798     26.812026     26.812026     53.624052
     -2.787788     24.020180     24.020180     48.040361
     -2.777778     21.273442     21.273442     42.546885
     -2.767768     18.853011     18.853011     37.706021
     -2.757758     17.029528     17.029528     34.059055
     -2.747748     15.940805     15.940805     31.881609
     -2.737738     15.550489     15.550489     31.100977
     -2.727728     15.708691     15.708691     31.417382
     -2.717718     16.268893     16.268893     32.537785
     -2.707708     17.178019     17.178019     34.356038
     -2.697698     18.474871     18.474871     36.949742
     -2.687688     20.196886     20.196886     40.393773
     -2.677678     22.264026     22.264026     44.528053
     -2.667668     24.431985     24.431985     48.863969
     -2.657658     26.364055     26.364055     52.728111
     -2.647648     27.788185     27.788185     55.576369
     -2.637638     28.641221     28.641221     57.282442
     -2.627628     29.104590     29.104590     58.209181
     -2.617618     29.505151     29.505151     59.010302
     -2.607608     30.141967     30.141967     60.283934
     -2.597598     31.141315     31.141315     62.282630
     -2.587588     32.411830     32.411830     64.823659
     -2.577578     33.698741     33.698741     67.397481
     -2.567568     34.679907     34.679907     69.359814
     -2.557558     35.045570     35.045570     70.091140
     -2.547548     34.546742     34.546742     69.093483
     -2.537538     33.036844     33.036844     66.073688
     -2.527528     30.530146     30.530146     61.060291
     -2.517518     27.263445     27.263445     54.526891
     -2.507508     23.713351     23.713351     47.426702
     -2.497497     20.525780     20.525780     41.051560
     -2.487487     18.357858     18.357858     36.715716
     -2.477477     17.684660     17.684660     35.369319
     -2.467467     18.649670     18.649670     37.299341
     -2.457457     21.024325     21.024325     42.048651
     -2.447447     24.297510     24.297510     48.595020
     -2.437437     27.861536     27.861536     55.723073
     -2.427427     31.218839     31.218839     62.437679
     -2.417417     34.121380     34.121380     68.242761
     -2.407407     36.581121     36.581121     73.162241
     -2.397397     38.747781     38.747781     77.495561
     -2.387387     40.715230     40.715230     81.430460
     -2.377377     42.358256     42.358256     84.716511
     -2.367367     43.293411     43.293411     86.586821
     -2.357357     42.999798     42.999798     85.999596
     -2.347347     41.053302     41.053302     82.106604
     -2.337337     37.363837     37.363837     74.727674
     -2.327327     32.297636     32.297636     64.595273
     -2.317317     26.622940     26.622940     53.245880
     -2.307307     21.305470     21.305470     42.610940
     -2.297297     17.247366     17.247366     34.494731
     -2.287287     15.073922     15.073922     30.147844
     -2.277277     15.030633     15.030633     30.061267
     -2.267267     16.993895     16.993895     33.987791
     -2.257257     20.557810     20.557810     41.115620
     -2.247247     25.149634     25.149634     50.299267
     -2.237237     30.137899     30.137899     60.275799
     -2.227227     34.914488     34.914488     69.828976
     -2.217217     38.946426     38.946426     77.892852
     -2.207207     41.804265     41.804265     83.608531
     -2.197197     43.181839     43.181839     86.363679
     -2.187187     42.923016     42.923016     85.846031
     -2.177177     41.059625     41.059625     82.119250
     -2.167167     37.842873     37.842873     75.685746
     -2.157157     33.732649     33.732649     67.465298
     -2.147147     29.314888     29.314888     58.629776
     -2.137137     25.153407     25.153407     50.306813
     -2.127127     21.630414     21.630414     43.260828
     -2.117117     18.853371     18.853371     37.706742
     -2.107107     16.680723     16.680723     33.361447
     -2.097097     14.855702     14.855702     29.711405
     -2.087087     13.176370     13.176370     26.352740
     -2.077077     11.611547     11.611547     23.223094
     -2.067067     10.306334     10.306334     20.612668
     -2.057057      9.483173      9.483173     18.966347
     -2.047047      9.296866      9.296866     18.593731
     -2.037037      9.719235      9.719235     19.438471
     -2.027027     10.509111     10.509111     21.018222
     -2.017017     11.280828     11.280828     22.561656
     -2.007007     11.639782     11.639782     23.279564
     -1.996997     11.324961     11.324961     22.649922
     -1.986987     10.297967     10.297967     20.595934
     -1.976977      8.746205      8.746205     17.492409
     -1.966967      7.010014      7.010014     14.020029
     -1.956957      5.475842      5.475842     10.951684
     -1.946947      4.482351      4.482351      8.964701
     -1.936937      4.265107      4.265107      8.530213
     -1.926927      4.936669      4.936669      9.873339
     -1.916917      6.483474      6.483474     12.966949
     -1.906907      8.766131      8.766131     17.532262
     -1.896897     11.525892     11.525892     23.051785
     -1.886887     14.410596     14.410596     28.821192
     -1.876877     17.029055     17.029055     34.058109
     -1.866867     19.027952     19.027952     38.055904
     -1.856857     20.171390     20.171390     40.342780
     -1.846847     20.398398     20.398398     40.796796
     -1.836837     19.837752     19.837752     39.675505
     -1.826827     18.768883     18.768883     37.537767
     -1.816817     17.532139     17.532139     35.064278
     -1.806807     16.411918     16.411918     32.823837
     -1.796797     15.535841     15.535841     31.071681
     -1.786787     14.837041     14.837041     29.674082
     -1.776777     14.103301     14.103301     28.206603
     -1.766767     13.093050     13.093050     26.186100
     -1.756757     11.660709     11.660709     23.321417
     -1.746747      9.829131      9.829131     19.658262
     -1.736737      7.779512      7.779512     15.559024
     -1.726727      5.776683      5.776683     11.553365
     -1.716717      4.078486      4.078486      8.156971
     -1.706707      2.874880      2.874880      5.749760
     -1.696697      2.273426      2.273426      4.546853
     -1.686687      2.315702      2.315702      4.631403
     -1.676677      2.994227      2.994227      5.988454
     -1.666667      4.247807      4.247807      8.495615
     -1.656657      5.936660      5.936660     11.873320
     -1.646647      7.821741      7.821741     15.643482
     -1.636637      9.580195      9.580195     19.160389
     -1.626627     10.873928     10.873928     21.747856
