# EIG2DOS: Utility for SIESTA to obtain the electronic density of states
#  E. Artacho, Apr 1999, A. Garcia, Apr 2012
#  Nick R. Papior, Feb 2017
# ------------------------------------------
# Eigenvalues calculated from a non-polarized calculation
# Eigenvalues read from siesta.EIG
# Kpoint weights read from siesta.KP
# Using smearing parameter:   0.0500
# Using 1000 points in the energy range
# Selected bands: 1 to: 2981
# Emin, Emax in file for selected band(s):    -27.3521714    218.3975710
# Nbands, Nspin, Nk   =   2981     1     1
# E_F                 =    -4.1993 eV --> (shifted to ZERO)
# Broadening          =     0.0500 eV
#
#        E            N(up)  (=)   N(down)         Ntot
     -5.000000     31.736140     31.736140     63.472280
     -4.989990     36.894461     36.894461     73.788922
     -4.979980     41.755746     41.755746     83.511492
     -4.969970     45.469797     45.469797     90.939594
     -4.959960     47.326414     47.326414     94.652828
     -4.949950     46.993240     46.993240     93.986480
     -4.939940     44.630948     44.630948     89.261897
     -4.929930     40.854385     40.854385     81.708771
     -4.919920     36.578827     36.578827     73.157653
     -4.909910     32.821915     32.821915     65.643830
     -4.899900     30.513452     30.513452     61.026904
     -4.889890     30.326803     30.326803     60.653606
     -4.879880     32.529796     32.529796     65.059591
     -4.869870     36.875351     36.875351     73.750703
     -4.859860     42.586420     42.586420     85.172841
     -4.849850     48.491408     48.491408     96.982816
     -4.839840     53.313755     53.313755    106.627510
     -4.829830     56.037043     56.037043    112.074087
     -4.819820     56.208874     56.208874    112.417747
     -4.809810     54.056200     54.056200    108.112401
     -4.799800     50.362590     50.362590    100.725180
     -4.789790     46.162106     46.162106     92.324212
     -4.779780     42.379418     42.379418     84.758837
     -4.769770     39.556315     39.556315     79.112631
     -4.759760     37.753912     37.753912     75.507824
     -4.749750     36.639287     36.639287     73.278573
     -4.739740     35.693285     35.693285     71.386570
     -4.729730     34.439317     34.439317     68.878634
     -4.719720     32.600625     32.600625     65.201250
     -4.709710     30.139409     30.139409     60.278819
     -4.699700     27.194108     27.194108     54.388217
     -4.689690     23.979511     23.979511     47.959022
     -4.679680     20.721215     20.721215     41.442430
     -4.669670     17.658715     17.658715     35.317430
     -4.659660     15.096486     15.096486     30.192972
     -4.649650     13.446253     13.446253     26.892506
     -4.639640     13.205491     13.205491     26.410982
     -4.629630     14.849840     14.849840     29.699680
     -4.619620     18.660027     18.660027     37.320055
     -4.609610     24.541029     24.541029     49.082058
     -4.599600     31.912902     31.912902     63.825804
     -4.589590     39.748026     39.748026     79.496052
     -4.579580     46.786729     46.786729     93.573457
     -4.569570     51.886690     51.886690    103.773380
     -4.559560     54.383801     54.383801    108.767602
     -4.549550     54.311936     54.311936    108.623871
     -4.539540     52.375655     52.375655    104.751311
     -4.529530     49.676419     49.676419     99.352837
     -4.519520     47.303716     47.303716     94.607432
     -4.509510     45.959349     45.959349     91.918698
     -4.499499     45.760133     45.760133     91.520267
     -4.489489     46.278915     46.278915     92.557830
     -4.479479     46.780809     46.780809     93.561618
     -4.469469     46.538008     46.538008     93.076017
     -4.459459     45.090843     45.090843     90.181687
     -4.449449     42.365243     42.365243     84.730485
     -4.439439     38.632109     38.632109     77.264219
     -4.429429     34.364246     34.364246     68.728492
     -4.419419     30.078242     30.078242     60.156485
     -4.409409     26.230233     26.230233     52.460466
     -4.399399     23.181918     23.181918     46.363837
     -4.389389     21.203062     21.203062     42.406124
     -4.379379     20.462426     20.462426     40.924853
     -4.369369     20.987769     20.987769     41.975537
     -4.359359     22.621344     22.621344     45.242688
     -4.349349     25.021416     25.021416     50.042833
     -4.339339     27.741445     27.741445     55.482890
     -4.329329     30.369761     30.369761     60.739522
     -4.319319     32.669175     32.669175     65.338350
     -4.309309     34.647530     34.647530     69.295060
     -4.299299     36.520213     36.520213     73.040426
     -4.289289     38.574033     38.574033     77.148065
     -4.279279     40.984045     40.984045     81.968089
     -4.269269     43.656957     43.656957     87.313914
     -4.259259     46.172764     46.172764     92.345527
     -4.249249     47.868744     47.868744     95.737487
     -4.239239     48.057284     48.057284     96.114569
     -4.229229     46.304266     46.304266     92.608531
     -4.219219     42.649339     42.649339     85.298678
     -4.209209     37.657898     37.657898     75.315796
     -4.199199     32.265353     32.265353     64.530706
     -4.189189     27.474387     27.474387     54.948774
     -4.179179     24.037974     24.037974     48.075947
     -4.169169     22.263354     22.263354     44.526708
     -4.159159     22.007002     22.007002     44.014003
     -4.149149     22.838426     22.838426     45.676851
     -4.139139     24.279738     24.279738     48.559477
     -4.129129     26.006140     26.006140     52.012280
     -4.119119     27.920447     27.920447     55.840894
     -4.109109     30.076261     30.076261     60.152522
     -4.099099     32.496775     32.496775     64.993550
     -4.089089     34.992685     34.992685     69.985370
     -4.079079     37.094257     37.094257     74.188514
     -4.069069     38.162137     38.162137     76.324275
     -4.059059     37.644371     37.644371     75.288741
     -4.049049     35.355710     35.355710     70.711421
     -4.039039     31.629966     31.629966     63.259932
     -4.029029     27.259435     27.259435     54.518869
     -4.019019     23.249724     23.249724     46.499447
     -4.009009     20.510871     20.510871     41.021741
     -3.998999     19.622336     19.622336     39.244672
     -3.988989     20.750610     20.750610     41.501221
     -3.978979     23.711046     23.711046     47.422093
     -3.968969     28.105209     28.105209     56.210419
     -3.958959     33.458242     33.458242     66.916484
     -3.948949     39.315224     39.315224     78.630448
     -3.938939     45.296130     45.296130     90.592260
     -3.928929     51.125356     51.125356    102.250712
     -3.918919     56.639669     56.639669    113.279339
     -3.908909     61.760068     61.760068    123.520136
     -3.898899     66.415772     66.415772    132.831544
     -3.888889     70.438731     70.438731    140.877462
     -3.878879     73.482397     73.482397    146.964794
     -3.868869     75.026706     75.026706    150.053411
     -3.858859     74.497660     74.497660    148.995319
     -3.848849     71.470766     71.470766    142.941531
     -3.838839     65.877800     65.877800    131.755600
     -3.828829     58.125374     58.125374    116.250747
     -3.818819     49.067218     49.067218     98.134435
     -3.808809     39.831437     39.831437     79.662874
     -3.798799     31.559582     31.559582     63.119165
     -3.788789     25.142685     25.142685     50.285370
     -3.778779     21.033182     21.033182     42.066365
     -3.768769     19.180002     19.180002     38.360004
     -3.758759     19.093764     19.093764     38.187528
     -3.748749     20.014788     20.014788     40.029576
     -3.738739     21.135548     21.135548     42.271095
     -3.728729     21.821726     21.821726     43.643451
     -3.718719     21.779356     21.779356     43.558711
     -3.708709     21.127134     21.127134     42.254268
     -3.698699     20.351720     20.351720     40.703440
     -3.688689     20.149529     20.149529     40.299058
     -3.678679     21.189829     21.189829     42.379659
     -3.668669     23.864832     23.864832     47.729665
     -3.658659     28.110431     28.110431     56.220863
     -3.648649     33.370742     33.370742     66.741485
     -3.638639     38.733326     38.733326     77.466652
     -3.628629     43.192774     43.192774     86.385548
     -3.618619     45.941895     45.941895     91.883789
     -3.608609     46.577983     46.577983     93.155966
     -3.598599     45.156957     45.156957     90.313915
     -3.588589     42.102825     42.102825     84.205650
     -3.578579     38.036995     38.036995     76.073990
     -3.568569     33.601733     33.601733     67.203466
     -3.558559     29.323804     29.323804     58.647607
     -3.548549     25.531858     25.531858     51.063716
     -3.538539     22.328538     22.328538     44.657077
     -3.528529     19.620461     19.620461     39.240921
     -3.518519     17.204823     17.204823     34.409647
     -3.508509     14.890909     14.890909     29.781817
     -3.498498     12.612505     12.612505     25.225010
     -3.488488     10.485343     10.485343     20.970686
     -3.478478      8.787612      8.787612     17.575224
     -3.468468      7.874693      7.874693     15.749386
     -3.458458      8.059681      8.059681     16.119362
     -3.448448      9.493463      9.493463     18.986925
     -3.438438     12.073728     12.073728     24.147456
     -3.428428     15.412636     15.412636     30.825273
     -3.418418     18.892415     18.892415     37.784830
     -3.408408     21.819440     21.819440     43.638880
     -3.398398     23.643854     23.643854     47.287708
     -3.388388     24.164285     24.164285     48.328570
     -3.378378     23.623096     23.623096     47.246193
     -3.368368     22.638225     22.638225     45.276449
     -3.358358     21.994353     21.994353     43.988705
     -3.348348     22.380523     22.380523     44.761047
     -3.338338     24.173502     24.173502     48.347004
     -3.328328     27.327526     27.327526     54.655052
     -3.318318     31.379208     31.379208     62.758416
     -3.308308     35.548564     35.548564     71.097128
     -3.298298     38.916593     38.916593     77.833185
     -3.288288     40.658338     40.658338     81.316675
     -3.278278     40.284791     40.284791     80.569583
     -3.268268     37.811090     37.811090     75.622180
     -3.258258     33.764771     33.764771     67.529541
     -3.248248     29.004187     29.004187     58.008374
     -3.238238     24.411570     24.411570     48.823140
     -3.228228     20.596553     20.596553     41.193106
     -3.218218     17.742879     17.742879     35.485758
     -3.208208     15.653360     15.653360     31.306720
     -3.198198     13.946088     13.946088     27.892176
     -3.188188     12.289949     12.289949     24.579898
     -3.178178     10.570462     10.570462     21.140925
     -3.168168      8.933337      8.933337     17.866674
     -3.158158      7.719843      7.719843     15.439686
     -3.148148      7.346038      7.346038     14.692076
     -3.138138      8.175662      8.175662     16.351323
     -3.128128     10.412244     10.412244     20.824488
     -3.118118     14.017897     14.017897     28.035793
     -3.108108     18.668749     18.668749     37.337498
     -3.098098     23.770155     23.770155     47.540309
     -3.088088     28.554833     28.554833     57.109665
     -3.078078     32.259123     32.259123     64.518246
     -3.068068     34.326841     34.326841     68.653682
     -3.058058     34.558546     34.558546     69.117091
     -3.048048     33.136176     33.136176     66.272351
     -3.038038     30.511104     30.511104     61.022207
     -3.028028     27.215285     27.215285     54.430569
     -3.018018     23.693838     23.693838     47.387675
     -3.008008     20.236787     20.236787     40.473575
     -2.997998     17.022566     17.022566     34.045133
     -2.987988     14.220844     14.220844     28.441688
     -2.977978     12.077541     12.077541     24.155082
     -2.967968     10.927977     10.927977     21.855954
     -2.957958     11.130354     11.130354     22.260707
     -2.947948     12.949646     12.949646     25.899293
     -2.937938     16.436987     16.436987     32.873974
     -2.927928     21.347124     21.347124     42.694248
     -2.917918     27.126924     27.126924     54.253847
     -2.907908     32.993271     32.993271     65.986542
     -2.897898     38.094777     38.094777     76.189554
     -2.887888     41.718861     41.718861     83.437723
     -2.877878     43.476859     43.476859     86.953718
     -2.867868     43.394187     43.394187     86.788375
     -2.857858     41.862176     41.862176     83.724352
     -2.847848     39.465485     39.465485     78.930969
     -2.837838     36.757444     36.757444     73.514888
     -2.827828     34.082619     34.082619     68.165237
     -2.817818     31.522960     31.522960     63.045920
     -2.807808     28.980179     28.980179     57.960359
     -2.797798     26.336460     26.336460     52.672919
     -2.787788     23.598021     23.598021     47.196042
     -2.777778     20.942604     20.942604     41.885208
     -2.767768     18.652205     18.652205     37.304409
     -2.757758     16.980552     16.980552     33.961104
     -2.747748     16.040682     16.040682     32.081364
     -2.737738     15.780574     15.780574     31.561148
     -2.727728     16.055152     16.055152     32.110303
     -2.717718     16.738551     16.738551     33.477102
     -2.707708     17.793885     17.793885     35.587769
     -2.697698     19.248672     19.248672     38.497343
     -2.687688     21.094183     21.094183     42.188366
     -2.677678     23.187858     23.187858     46.375716
     -2.667668     25.243734     25.243734     50.487468
     -2.657658     26.937481     26.937481     53.874961
     -2.647648     28.068872     28.068872     56.137744
     -2.637638     28.676441     28.676441     57.352881
     -2.627628     29.024469     29.024469     58.048938
     -2.617618     29.464979     29.464979     58.929957
     -2.607608     30.257202     30.257202     60.514404
     -2.597598     31.446972     31.446972     62.893943
     -2.587588     32.858791     32.858791     65.717582
     -2.577578     34.177519     34.177519     68.355037
     -2.567568     35.053459     35.053459     70.106918
     -2.557558     35.179623     35.179623     70.359247
     -2.547548     34.337648     34.337648     68.675295
     -2.537538     32.440307     32.440307     64.880613
     -2.527528     29.586711     29.586711     59.173422
     -2.517518     26.107570     26.107570     52.215141
     -2.507508     22.553351     22.553351     45.106701
     -2.497497     19.594146     19.594146     39.188293
     -2.487487     17.847257     17.847257     35.694515
     -2.477477     17.693495     17.693495     35.386989
     -2.467467     19.157626     19.157626     38.315252
     -2.457457     21.905783     21.905783     43.811566
     -2.447447     25.365995     25.365995     50.731991
     -2.437437     28.927583     28.927583     57.855166
     -2.427427     32.140171     32.140171     64.280343
     -2.417417     34.828688     34.828688     69.657376
     -2.407407     37.072769     37.072769     74.145539
     -2.397397     39.058650     39.058650     78.117300
     -2.387387     40.874589     40.874589     81.749177
     -2.377377     42.356222     42.356222     84.712444
     -2.367367     43.073044     43.073044     86.146088
     -2.357357     42.481303     42.481303     84.962607
     -2.347347     40.180730     40.180730     80.361459
     -2.337337     36.150860     36.150860     72.301721
     -2.327327     30.846994     30.846994     61.693989
     -2.317317     25.107440     25.107440     50.214880
     -2.307307     19.919532     19.919532     39.839063
     -2.297297     16.153244     16.153244     32.306489
     -2.287287     14.366686     14.366686     28.733371
     -2.277277     14.732686     14.732686     29.465373
     -2.267267     17.073468     17.073468     34.146936
     -2.257257     20.956105     20.956105     41.912211
     -2.247247     25.801429     25.801429     51.602859
     -2.237237     30.977585     30.977585     61.955170
     -2.227227     35.868886     35.868886     71.737773
     -2.217217     39.923230     39.923230     79.846460
     -2.207207     42.687922     42.687922     85.375845
     -2.197197     43.845789     43.845789     87.691579
     -2.187187     43.258796     43.258796     86.517592
     -2.177177     41.012631     41.012631     82.025263
     -2.167167     37.437256     37.437256     74.874511
     -2.157157     33.069604     33.069604     66.139209
     -2.147147     28.540842     28.540842     57.081684
     -2.137137     24.411613     24.411613     48.823227
     -2.127127     21.020779     21.020779     42.041558
     -2.117117     18.422330     18.422330     36.844660
     -2.107107     16.445850     16.445850     32.891700
     -2.097097     14.848027     14.848027     29.696054
     -2.087087     13.470227     13.470227     26.940453
     -2.077077     12.315575     12.315575     24.631149
     -2.067067     11.509216     11.509216     23.018432
     -2.057057     11.174661     11.174661     22.349323
     -2.047047     11.305104     11.305104     22.610207
     -2.037037     11.706862     11.706862     23.413725
     -2.027027     12.047747     12.047747     24.095495
     -2.017017     11.984036     11.984036     23.968073
     -2.007007     11.299200     11.299200     22.598400
     -1.996997      9.986209      9.986209     19.972418
     -1.986987      8.240792      8.240792     16.481584
     -1.976977      6.381905      6.381905     12.763810
     -1.966967      4.748319      4.748319      9.496638
     -1.956957      3.619975      3.619975      7.239951
     -1.946947      3.185409      3.185409      6.370818
     -1.936937      3.544134      3.544134      7.088268
     -1.926927      4.716742      4.716742      9.433483
     -1.916917      6.642629      6.642629     13.285257
     -1.906907      9.166233      9.166233     18.332465
     -1.896897     12.030342     12.030342     24.060684
     -1.886887     14.896922     14.896922     29.793844
     -1.876877     17.401997     17.401997     34.803993
     -1.866867     19.232259     19.232259     38.464519
     -1.856857     20.199345     20.199345     40.398690
     -1.846847     20.287315     20.287315     40.574631
     -1.836837     19.655929     19.655929     39.311859
     -1.826827     18.592354     18.592354     37.184707
     -1.816817     17.418073     17.418073     34.836146
     -1.806807     16.377227     16.377227     32.754453
     -1.796797     15.549972     15.549972     31.099944
     -1.786787     14.834010     14.834010     29.668020
     -1.776777     14.009634     14.009634     28.019268
     -1.766767     12.859692     12.859692     25.719385
     -1.756757     11.283984     11.283984     22.567967
     -1.746747      9.351478      9.351478     18.702957
     -1.736737      7.271785      7.271785     14.543569
     -1.726727      5.313011      5.313011     10.626022
     -1.716717      3.716456      3.716456      7.432913
     -1.706707      2.648006      2.648006      5.296012
     -1.696697      2.194385      2.194385      4.388771
     -1.686687      2.383205      2.383205      4.766409
     -1.676677      3.196395      3.196395      6.392790
     -1.666667      4.559560      4.559560      9.119120
     -1.656657      6.314532      6.314532     12.629064
     -1.646647      8.203061      8.203061     16.406122
     -1.636637      9.892350      9.892350     19.784700
     -1.626627     11.053825     11.053825     22.107650
