# EIG2DOS: Utility for SIESTA to obtain the electronic density of states
#  E. Artacho, Apr 1999, A. Garcia, Apr 2012
#  Nick R. Papior, Feb 2017
# ------------------------------------------
# Eigenvalues calculated from a non-polarized calculation
# Eigenvalues read from siesta.EIG
# Kpoint weights read from siesta.KP
# Using smearing parameter:   0.0500
# Using 1000 points in the energy range
# Selected bands: 1 to: 2981
# Emin, Emax in file for selected band(s):    -27.0410515    218.3121410
# Nbands, Nspin, Nk   =   2981     1     1
# E_F                 =    -4.2995 eV --> (shifted to ZERO)
# Broadening          =     0.0500 eV
#
#        E            N(up)  (=)   N(down)         Ntot
     -5.000000     45.843064     45.843064     91.686129
     -4.989990     48.669494     48.669494     97.338988
     -4.979980     50.016854     50.016854    100.033707
     -4.969970     49.851137     49.851137     99.702274
     -4.959960     48.314475     48.314475     96.628950
     -4.949950     45.676750     45.676750     91.353501
     -4.939940     42.290897     42.290897     84.581794
     -4.929930     38.571528     38.571528     77.143055
     -4.919920     34.997453     34.997453     69.994906
     -4.909910     32.118331     32.118331     64.236663
     -4.899900     30.531160     30.531160     61.062319
     -4.889890     30.791257     30.791257     61.582513
     -4.879880     33.245854     33.245854     66.491707
     -4.869870     37.829350     37.829350     75.658701
     -4.859860     43.916163     43.916163     87.832326
     -4.849850     50.345375     50.345375    100.690750
     -4.839840     55.675543     55.675543    111.351086
     -4.829830     58.610319     58.610319    117.220638
     -4.819820     58.423711     58.423711    116.847423
     -4.809810     55.188327     55.188327    110.376655
     -4.799800     49.700670     49.700670     99.401339
     -4.789790     43.152710     43.152710     86.305420
     -4.779780     36.719404     36.719404     73.438808
     -4.769770     31.245195     31.245195     62.490390
     -4.759760     27.125549     27.125549     54.251099
     -4.749750     24.364058     24.364058     48.728117
     -4.739740     22.716295     22.716295     45.432590
     -4.729730     21.832457     21.832457     43.664913
     -4.719720     21.353783     21.353783     42.707567
     -4.709710     20.960909     20.960909     41.921818
     -4.699700     20.394360     20.394360     40.788720
     -4.689690     19.470463     19.470463     38.940927
     -4.679680     18.108252     18.108252     36.216504
     -4.669670     16.368901     16.368901     32.737803
     -4.659660     14.492678     14.492678     28.985355
     -4.649650     12.907531     12.907531     25.815062
     -4.639640     12.185539     12.185539     24.371078
     -4.629630     12.937513     12.937513     25.875025
     -4.619620     15.655454     15.655454     31.310907
     -4.609610     20.532862     20.532862     41.065725
     -4.599600     27.313671     27.313671     54.627343
     -4.589590     35.236098     35.236098     70.472196
     -4.579580     43.131198     43.131198     86.262397
     -4.569570     49.691011     49.691011     99.382022
     -4.559560     53.844182     53.844182    107.688364
     -4.549550     55.105566     55.105566    110.211131
     -4.539540     53.749538     53.749538    107.499076
     -4.529530     50.717993     50.717993    101.435986
     -4.519520     47.288539     47.288539     94.577078
     -4.509510     44.636065     44.636065     89.272130
     -4.499499     43.464214     43.464214     86.928427
     -4.489489     43.842708     43.842708     87.685415
     -4.479479     45.288136     45.288136     90.576272
     -4.469469     47.022284     47.022284     94.044568
     -4.459459     48.281120     48.281120     96.562240
     -4.449449     48.549824     48.549824     97.099649
     -4.439439     47.653752     47.653752     95.307504
     -4.429429     45.710220     45.710220     91.420440
     -4.419419     43.005085     43.005085     86.010169
     -4.409409     39.875255     39.875255     79.750510
     -4.399399     36.649024     36.649024     73.298048
     -4.389389     33.641504     33.641504     67.283008
     -4.379379     31.159805     31.159805     62.319610
     -4.369369     29.471906     29.471906     58.943813
     -4.359359     28.733766     28.733766     57.467531
     -4.349349     28.917776     28.917776     57.835553
     -4.339339     29.801526     29.801526     59.603053
     -4.329329     31.044194     31.044194     62.088388
     -4.319319     32.322229     32.322229     64.644457
     -4.309309     33.457571     33.457571     66.915141
     -4.299299     34.475829     34.475829     68.951658
     -4.289289     35.570147     35.570147     71.140295
     -4.279279     36.989489     36.989489     73.978979
     -4.269269     38.895078     38.895078     77.790156
     -4.259259     41.234723     41.234723     82.469446
     -4.249249     43.682401     43.682401     87.364802
     -4.239239     45.681387     45.681387     91.362773
     -4.229229     46.601799     46.601799     93.203599
     -4.219219     45.971982     45.971982     91.943964
     -4.209209     43.689084     43.689084     87.378168
     -4.199199     40.099909     40.099909     80.199818
     -4.189189     35.895461     35.895461     71.790922
     -4.179179     31.860388     31.860388     63.720776
     -4.169169     28.599934     28.599934     57.199867
     -4.159159     26.376649     26.376649     52.753298
     -4.149149     25.122219     25.122219     50.244438
     -4.139139     24.593063     24.593063     49.186126
     -4.129129     24.570345     24.570345     49.140689
     -4.119119     24.995496     24.995496     49.990993
     -4.109109     25.974115     25.974115     51.948230
     -4.099099     27.648663     27.648663     55.297326
     -4.089089     30.007520     30.007520     60.015040
     -4.079079     32.739312     32.739312     65.478623
     -4.069069     35.232918     35.232918     70.465835
     -4.059059     36.756139     36.756139     73.512277
     -4.049049     36.745473     36.745473     73.490945
     -4.039039     35.064274     35.064274     70.128548
     -4.029029     32.091238     32.091238     64.182475
     -4.019019     28.591293     28.591293     57.182585
     -4.009009     25.441336     25.441336     50.882672
     -3.998999     23.355184     23.355184     46.710368
     -3.988989     22.731795     22.731795     45.463589
     -3.978979     23.660389     23.660389     47.320778
     -3.968969     26.023354     26.023354     52.046708
     -3.958959     29.603713     29.603713     59.207427
     -3.948949     34.139556     34.139556     68.279111
     -3.938939     39.332757     39.332757     78.665514
     -3.928929     44.858177     44.858177     89.716355
     -3.918919     50.405687     50.405687    100.811373
     -3.908909     55.740078     55.740078    111.480156
     -3.898899     60.727986     60.727986    121.455973
     -3.888889     65.289333     65.289333    130.578666
     -3.878879     69.280751     69.280751    138.561503
     -3.868869     72.375781     72.375781    144.751562
     -3.858859     74.030660     74.030660    148.061319
     -3.848849     73.593705     73.593705    147.187410
     -3.838839     70.541600     70.541600    141.083200
     -3.828829     64.747158     64.747158    129.494317
     -3.818819     56.648199     56.648199    113.296398
     -3.808809     47.222159     47.222159     94.444317
     -3.798799     37.760102     37.760102     75.520204
     -3.788789     29.526410     29.526410     59.052821
     -3.778779     23.435252     23.435252     46.870504
     -3.768769     19.853943     19.853943     39.707885
     -3.758759     18.579460     18.579460     37.158920
     -3.748749     18.968480     18.968480     37.936961
     -3.738739     20.162069     20.162069     40.324138
     -3.728729     21.337099     21.337099     42.674197
     -3.718719     21.924970     21.924970     43.849940
     -3.708709     21.751685     21.751685     43.503369
     -3.698699     21.068083     21.068083     42.136166
     -3.688689     20.458269     20.458269     40.916538
     -3.678679     20.641498     20.641498     41.282997
     -3.668669     22.216128     22.216128     44.432257
     -3.658659     25.423428     25.423428     50.846856
     -3.648649     30.017388     30.017388     60.034776
     -3.638639     35.299549     35.299549     70.599098
     -3.628629     40.316147     40.316147     80.632294
     -3.618619     44.143591     44.143591     88.287181
     -3.608609     46.147518     46.147518     92.295036
     -3.598599     46.118336     46.118336     92.236672
     -3.588589     44.252997     44.252997     88.505995
     -3.578579     41.025003     41.025003     82.050005
     -3.568569     37.017644     37.017644     74.035287
     -3.558559     32.779625     32.779625     65.559251
     -3.548549     28.725781     28.725781     57.451561
     -3.538539     25.083698     25.083698     50.167397
     -3.528529     21.887979     21.887979     43.775959
     -3.518519     19.027824     19.027824     38.055648
     -3.508509     16.340756     16.340756     32.681512
     -3.498498     13.719942     13.719942     27.439883
     -3.488488     11.188470     11.188470     22.376940
     -3.478478      8.907768      8.907768     17.815536
     -3.468468      7.120952      7.120952     14.241904
     -3.458458      6.061062      6.061062     12.122125
     -3.448448      5.861996      5.861996     11.723992
     -3.438438      6.499826      6.499826     12.999651
     -3.428428      7.778965      7.778965     15.557929
     -3.418418      9.369584      9.369584     18.739168
     -3.408408     10.894813     10.894813     21.789625
     -3.398398     12.050227     12.050227     24.100453
     -3.388388     12.717106     12.717106     25.434211
     -3.378378     13.021064     13.021064     26.042129
     -3.368368     13.303762     13.303762     26.607524
     -3.358358     14.013776     14.013776     28.027552
     -3.348348     15.560121     15.560121     31.120242
     -3.338338     18.182965     18.182965     36.365930
     -3.328328     21.875611     21.875611     43.751222
     -3.318318     26.360248     26.360248     52.720495
     -3.308308     31.105552     31.105552     62.211103
     -3.298298     35.385838     35.385838     70.771677
     -3.288288     38.397976     38.397976     76.795952
     -3.278278     39.442248     39.442248     78.884496
     -3.268268     38.129591     38.129591     76.259183
     -3.258258     34.532189     34.532189     69.064377
     -3.248248     29.193663     29.193663     58.387326
     -3.238238     22.974861     22.974861     45.949721
     -3.228228     16.796427     16.796427     33.592853
     -3.218218     11.391112     11.391112     22.782224
     -3.208208      7.163421      7.163421     14.326841
     -3.198198      4.188654      4.188654      8.377308
     -3.188188      2.315610      2.315610      4.631220
     -3.178178      1.305822      1.305822      2.611645
     -3.168168      0.952394      0.952394      1.904787
     -3.158158      1.151573      1.151573      2.303147
     -3.148148      1.925200      1.925200      3.850401
     -3.138138      3.401258      3.401258      6.802515
     -3.128128      5.758446      5.758446     11.516892
     -3.118118      9.141107      9.141107     18.282214
     -3.108108     13.560762     13.560762     27.121524
     -3.098098     18.816650     18.816650     37.633300
     -3.088088     24.476351     24.476351     48.952702
     -3.078078     29.944205     29.944205     59.888410
     -3.068068     34.606831     34.606831     69.213661
     -3.058058     37.999157     37.999157     75.998313
     -3.048048     39.912388     39.912388     79.824775
     -3.038038     40.390886     40.390886     80.781772
     -3.028028     39.630369     39.630369     79.260738
     -3.018018     37.853217     37.853217     75.706434
     -3.008008     35.249752     35.249752     70.499503
     -2.997998     32.022399     32.022399     64.044799
     -2.987988     28.488701     28.488701     56.977403
     -2.977978     25.149835     25.149835     50.299670
     -2.967968     22.650104     22.650104     45.300207
     -2.957958     21.623413     21.623413     43.246826
     -2.947948     22.492826     22.492826     44.985652
     -2.937938     25.314087     25.314087     50.628173
     -2.927928     29.727021     29.727021     59.454043
     -2.917918     35.026936     35.026936     70.053872
     -2.907908     40.324726     40.324726     80.649451
     -2.897898     44.745430     44.745430     89.490859
     -2.887888     47.615923     47.615923     95.231845
     -2.877878     48.600869     48.600869     97.201738
     -2.867868     47.755487     47.755487     95.510974
     -2.857858     45.477625     45.477625     90.955250
     -2.847848     42.366357     42.366357     84.732714
     -2.837838     39.027494     39.027494     78.054988
     -2.827828     35.893428     35.893428     71.786856
     -2.817818     33.126555     33.126555     66.253110
     -2.807808     30.643468     30.643468     61.286937
     -2.797798     28.242372     28.242372     56.484744
     -2.787788     25.766211     25.766211     51.532423
     -2.777778     23.217227     23.217227     46.434453
     -2.767768     20.766573     20.766573     41.533147
     -2.757758     18.661900     18.661900     37.323800
     -2.747748     17.093630     17.093630     34.187261
     -2.737738     16.103382     16.103382     32.206765
     -2.727728     15.590550     15.590550     31.181099
     -2.717718     15.410417     15.410417     30.820833
     -2.707708     15.497179     15.497179     30.994358
     -2.697698     15.926645     15.926645     31.853291
     -2.687688     16.870402     16.870402     33.740805
     -2.677678     18.464397     18.464397     36.928794
     -2.667668     20.674763     20.674763     41.349526
     -2.657658     23.251713     23.251713     46.503425
     -2.647648     25.809999     25.809999     51.619997
     -2.637638     27.993658     27.993658     55.987315
     -2.627628     29.626988     29.626988     59.253977
     -2.617618     30.762264     30.762264     61.524528
     -2.607608     31.603003     31.603003     63.206006
     -2.597598     32.361314     32.361314     64.722629
     -2.587588     33.141337     33.141337     66.282673
     -2.577578     33.906816     33.906816     67.813633
     -2.567568     34.522271     34.522271     69.044543
     -2.557558     34.812594     34.812594     69.625188
     -2.547548     34.598409     34.598409     69.196818
     -2.537538     33.713078     33.713078     67.426156
     -2.527528     32.039168     32.039168     64.078336
     -2.517518     29.583991     29.583991     59.167983
     -2.507508     26.562518     26.562518     53.125036
     -2.497497     23.421574     23.421574     46.843149
     -2.487487     20.757320     20.757320     41.514640
     -2.477477     19.139237     19.139237     38.278475
     -2.467467     18.914696     18.914696     37.829391
     -2.457457     20.087651     20.087651     40.175302
     -2.447447     22.332418     22.332418     44.664836
     -2.437437     25.138757     25.138757     50.277514
     -2.427427     28.021560     28.021560     56.043119
     -2.417417     30.696994     30.696994     61.393989
     -2.407407     33.141852     33.141852     66.283705
     -2.397397     35.508370     35.508370     71.016741
     -2.387387     37.938032     37.938032     75.876064
     -2.377377     40.370501     40.370501     80.741003
     -2.367367     42.451093     42.451093     84.902185
     -2.357357     43.596499     43.596499     87.192998
     -2.347347     43.202992     43.202992     86.405983
     -2.337337     40.909619     40.909619     81.819238
     -2.327327     36.797396     36.797396     73.594792
     -2.317317     31.432251     31.432251     62.864502
     -2.307307     25.732006     25.732006     51.464012
     -2.297297     20.716504     20.716504     41.433007
     -2.287287     17.242859     17.242859     34.485718
     -2.277277     15.817260     15.817260     31.634520
     -2.267267     16.527277     16.527277     33.054555
     -2.257257     19.087448     19.087448     38.174897
     -2.247247     22.959462     22.959462     45.918924
     -2.237237     27.499105     27.499105     54.998209
     -2.227227     32.086140     32.086140     64.172279
     -2.217217     36.205148     36.205148     72.410296
     -2.207207     39.466366     39.466366     78.932731
     -2.197197     41.583955     41.583955     83.167910
     -2.187187     42.351837     42.351837     84.703673
     -2.177177     41.655723     41.655723     83.311445
     -2.167167     39.527941     39.527941     79.055882
     -2.157157     36.206887     36.206887     72.413773
     -2.147147     32.139763     32.139763     64.279527
     -2.137137     27.890116     27.890116     55.780232
     -2.127127     23.971541     23.971541     47.943083
     -2.117117     20.685024     20.685024     41.370048
     -2.107107     18.046574     18.046574     36.093148
     -2.097097     15.843607     15.843607     31.687214
     -2.087087     13.784677     13.784677     27.569354
     -2.077077     11.657722     11.657722     23.315445
     -2.067067      9.417509      9.417509     18.835017
     -2.057057      7.173704      7.173704     14.347408
     -2.047047      5.108760      5.108760     10.217521
     -2.037037      3.383441      3.383441      6.766883
     -2.027027      2.077652      2.077652      4.155304
     -2.017017      1.181960      1.181960      2.363921
     -2.007007      0.626071      0.626071      1.252142
     -1.996997      0.319434      0.319434      0.638867
     -1.986987      0.185003      0.185003      0.370006
     -1.976977      0.179481      0.179481      0.358962
     -1.966967      0.302370      0.302370      0.604739
     -1.956957      0.598015      0.598015      1.196031
     -1.946947      1.151255      1.151255      2.302510
     -1.936937      2.072905      2.072905      4.145811
     -1.926927      3.470683      3.470683      6.941367
     -1.916917      5.406690      5.406690     10.813381
     -1.906907      7.852463      7.852463     15.704926
     -1.896897     10.660600     10.660600     21.321199
     -1.886887     13.570884     13.570884     27.141768
     -1.876877     16.256546     16.256546     32.513093
     -1.866867     18.398972     18.398972     36.797945
     -1.856857     19.767071     19.767071     39.534142
     -1.846847     20.276441     20.276441     40.552881
     -1.836837     20.010502     20.010502     40.021003
     -1.826827     19.194798     19.194798     38.389596
     -1.816817     18.125753     18.125753     36.251506
     -1.806807     17.070049     17.070049     34.140098
     -1.796797     16.169167     16.169167     32.338333
     -1.786787     15.392791     15.392791     30.785583
     -1.776777     14.570036     14.570036     29.140071
     -1.766767     13.489272     13.489272     26.978544
     -1.756757     12.018200     12.018200     24.036400
     -1.746747     10.183887     10.183887     20.367775
     -1.736737      8.177913      8.177913     16.355827
     -1.726727      6.296195      6.296195     12.592390
     -1.716717      4.854933      4.854933      9.709866
     -1.706707      4.123814      4.123814      8.247629
     -1.696697      4.291256      4.291256      8.582511
     -1.686687      5.448081      5.448081     10.896162
     -1.676677      7.567293      7.567293     15.134587
     -1.666667     10.473040     10.473040     20.946081
     -1.656657     13.817486     13.817486     27.634971
     -1.646647     17.098969     17.098969     34.197937
     -1.636637     19.744661     19.744661     39.489323
     -1.626627     21.248969     21.248969     42.497937
