# EIG2DOS: Utility for SIESTA to obtain the electronic density of states
#  E. Artacho, Apr 1999, A. Garcia, Apr 2012
#  Nick R. Papior, Feb 2017
# ------------------------------------------
# Eigenvalues calculated from a non-polarized calculation
# Eigenvalues read from siesta.EIG
# Kpoint weights read from siesta.KP
# Using smearing parameter:   0.0500
# Using 1000 points in the energy range
# Selected bands: 1 to: 2981
# Emin, Emax in file for selected band(s):    -27.0283929    218.3128490
# Nbands, Nspin, Nk   =   2981     1     1
# E_F                 =    -4.2956 eV --> (shifted to ZERO)
# Broadening          =     0.0500 eV
#
#        E            N(up)  (=)   N(down)         Ntot
     -5.000000     45.966586     45.966586     91.933172
     -4.989990     48.891646     48.891646     97.783291
     -4.979980     50.313414     50.313414    100.626828
     -4.969970     50.174116     50.174116    100.348233
     -4.959960     48.606724     48.606724     97.213448
     -4.949950     45.889943     45.889943     91.779887
     -4.939940     42.399627     42.399627     84.799254
     -4.929930     38.579066     38.579066     77.158133
     -4.919920     34.932825     34.932825     69.865650
     -4.909910     32.027146     32.027146     64.054292
     -4.899900     30.463067     30.463067     60.926134
     -4.889890     30.786154     30.786154     61.572308
     -4.879880     33.321027     33.321027     66.642054
     -4.869870     37.971128     37.971128     75.942256
     -4.859860     44.080622     44.080622     88.161243
     -4.849850     50.470707     50.470707    100.941414
     -4.839840     55.703427     55.703427    111.406854
     -4.829830     58.508012     58.508012    117.016025
     -4.819820     58.196825     58.196825    116.393651
     -4.809810     54.878397     54.878397    109.756794
     -4.799800     49.369314     49.369314     98.738627
     -4.789790     42.860437     42.860437     85.720874
     -4.779780     36.508233     36.508233     73.016466
     -4.769770     31.130496     31.130496     62.260992
     -4.759760     27.097279     27.097279     54.194558
     -4.749750     24.394244     24.394244     48.788488
     -4.739740     22.769088     22.769088     45.538175
     -4.729730     21.874017     21.874017     43.748034
     -4.719720     21.360080     21.360080     42.720159
     -4.709710     20.921952     20.921952     41.843905
     -4.699700     20.314179     20.314179     40.628359
     -4.689690     19.363576     19.363576     38.727152
     -4.679680     17.994837     17.994837     35.989673
     -4.669670     16.271185     16.271185     32.542370
     -4.659660     14.433845     14.433845     28.867690
     -4.649650     12.912424     12.912424     25.824848
     -4.639640     12.280717     12.280717     24.561434
     -4.629630     13.147884     13.147884     26.295768
     -4.619620     15.996072     15.996072     31.992144
     -4.609610     20.997404     20.997404     41.994808
     -4.599600     27.864514     27.864514     55.729027
     -4.589590     35.802806     35.802806     71.605612
     -4.579580     43.622488     43.622488     87.244976
     -4.569570     50.019379     50.019379    100.038759
     -4.559560     53.954884     53.954884    107.909768
     -4.549550     54.997163     54.997163    109.994326
     -4.539540     53.475477     53.475477    106.950953
     -4.529530     50.367168     50.367168    100.734336
     -4.519520     46.952753     46.952753     93.905507
     -4.509510     44.377781     44.377781     88.755562
     -4.499499     43.296236     43.296236     86.592471
     -4.489489     43.724447     43.724447     87.448894
     -4.479479     45.135990     45.135990     90.271980
     -4.469469     46.728631     46.728631     93.457261
     -4.459459     47.738106     47.738106     95.476213
     -4.449449     47.677221     47.677221     95.354443
     -4.439439     46.430122     46.430122     92.860245
     -4.429429     44.201418     44.201418     88.402836
     -4.419419     41.376867     41.376867     82.753734
     -4.409409     38.374791     38.374791     76.749582
     -4.399399     35.549431     35.549431     71.098862
     -4.389389     33.162500     33.162500     66.325001
     -4.379379     31.395208     31.395208     62.790416
     -4.369369     30.357456     30.357456     60.714913
     -4.359359     30.071702     30.071702     60.143404
     -4.349349     30.446865     30.446865     60.893730
     -4.339339     31.280127     31.280127     62.560255
     -4.329329     32.311810     32.311810     64.623620
     -4.319319     33.320615     33.320615     66.641229
     -4.309309     34.213830     34.213830     68.427661
     -4.299299     35.064250     35.064250     70.128501
     -4.289289     36.071808     36.071808     72.143617
     -4.279279     37.462232     37.462232     74.924463
     -4.269269     39.358111     39.358111     78.716222
     -4.259259     41.666815     41.666815     83.333631
     -4.249249     44.031138     44.031138     88.062277
     -4.239239     45.881048     45.881048     91.762096
     -4.229229     46.596428     46.596428     93.192857
     -4.219219     45.737662     45.737662     91.475323
     -4.209209     43.247485     43.247485     86.494970
     -4.199199     39.516834     39.516834     79.033668
     -4.189189     35.263933     35.263933     70.527867
     -4.179179     31.274949     31.274949     62.549898
     -4.169169     28.132780     28.132780     56.265559
     -4.159159     26.064671     26.064671     52.129342
     -4.149149     24.968210     24.968210     49.936421
     -4.139139     24.577886     24.577886     49.155772
     -4.129129     24.668729     24.668729     49.337457
     -4.119119     25.187512     25.187512     50.375025
     -4.109109     26.247019     26.247019     52.494038
     -4.099099     27.988804     27.988804     55.977608
     -4.089089     30.387709     30.387709     60.775419
     -4.079079     33.110684     33.110684     66.221367
     -4.069069     35.529105     35.529105     71.058210
     -4.059059     36.911044     36.911044     73.822087
     -4.049049     36.717358     36.717358     73.434716
     -4.039039     34.853923     34.853923     69.707846
     -4.029029     31.744351     31.744351     63.488702
     -4.019019     28.183870     28.183870     56.367741
     -4.009009     25.055828     25.055828     50.111656
     -3.998999     23.058810     23.058810     46.117620
     -3.988989     22.565046     22.565046     45.130092
     -3.978979     23.636673     23.636673     47.273346
     -3.968969     26.135275     26.135275     52.270551
     -3.958959     29.830553     29.830553     59.661106
     -3.948949     34.453242     34.453242     68.906483
     -3.938939     39.702726     39.702726     79.405452
     -3.928929     45.256330     45.256330     90.512659
     -3.918919     50.810953     50.810953    101.621905
     -3.908909     56.140087     56.140087    112.280174
     -3.898899     61.115348     61.115348    122.230697
     -3.888889     65.652909     65.652909    131.305818
     -3.878879     69.596272     69.596272    139.192544
     -3.868869     72.602339     72.602339    145.204678
     -3.858859     74.117745     74.117745    148.235491
     -3.848849     73.498012     73.498012    146.996024
     -3.838839     70.246798     70.246798    140.493597
     -3.828829     64.277067     64.277067    128.554134
     -3.818819     56.066296     56.066296    112.132591
     -3.808809     46.616779     46.616779     93.233557
     -3.798799     37.221206     37.221206     74.442412
     -3.788789     29.122831     29.122831     58.245662
     -3.778779     23.199864     23.199864     46.399729
     -3.768769     19.780041     19.780041     39.560083
     -3.758759     18.627481     18.627481     37.254962
     -3.748749     19.079779     19.079779     38.159558
     -3.738739     20.275736     20.275736     40.551471
     -3.728729     21.405936     21.405936     42.811872
     -3.718719     21.927173     21.927173     43.854345
     -3.708709     21.695517     21.695517     43.391034
     -3.698699     20.988149     20.988149     41.976298
     -3.688689     20.403945     20.403945     40.807890
     -3.678679     20.660386     20.660386     41.320772
     -3.668669     22.337368     22.337368     44.674737
     -3.658659     25.646465     25.646465     51.292930
     -3.648649     30.310479     30.310479     60.620959
     -3.638639     35.608872     35.608872     71.217743
     -3.628629     40.581989     40.581989     81.163979
     -3.618619     44.317130     44.317130     88.634260
     -3.608609     46.201921     46.201921     92.403842
     -3.598599     46.051332     46.051332     92.102664
     -3.588589     44.082346     44.082346     88.164692
     -3.578579     40.780658     40.780658     81.561315
     -3.568569     36.733913     36.733913     73.467825
     -3.558559     32.488633     32.488633     64.977267
     -3.548549     28.452303     28.452303     56.904607
     -3.538539     24.841722     24.841722     49.683444
     -3.528529     21.680113     21.680113     43.360225
     -3.518519     18.848344     18.848344     37.696688
     -3.508509     16.181397     16.181397     32.362795
     -3.498498     13.575865     13.575865     27.151730
     -3.488488     11.061638     11.061638     22.123276
     -3.478478      8.806457      8.806457     17.612915
     -3.468468      7.056109      7.056109     14.112218
     -3.458458      6.041386      6.041386     12.082772
     -3.448448      5.889590      5.889590     11.779180
     -3.438438      6.567686      6.567686     13.135372
     -3.428428      7.871102      7.871102     15.742203
     -3.418418      9.464244      9.464244     18.928487
     -3.408408     10.970549     10.970549     21.941098
     -3.398398     12.093323     12.093323     24.186646
     -3.388388     12.727720     12.727720     25.455439
     -3.378378     13.015518     13.015518     26.031035
     -3.368368     13.311831     13.311831     26.623663
     -3.358358     14.071844     14.071844     28.143689
     -3.348348     15.702179     15.702179     31.404357
     -3.338338     18.431207     18.431207     36.862414
     -3.328328     22.231671     22.231671     44.463342
     -3.318318     26.798368     26.798368     53.596735
     -3.308308     31.570507     31.570507     63.141014
     -3.298298     35.799455     35.799455     71.598910
     -3.288288     38.676155     38.676155     77.352310
     -3.278278     39.519146     39.519146     79.038293
     -3.268268     37.979892     37.979892     75.959785
     -3.258258     34.180944     34.180944     68.361888
     -3.248248     28.708186     28.708186     57.416372
     -3.238238     22.442100     22.442100     44.884200
     -3.228228     16.296342     16.296342     32.592685
     -3.218218     10.977327     10.977327     21.954655
     -3.208208      6.857106      6.857106     13.714211
     -3.198198      3.984353      3.984353      7.968707
     -3.188188      2.193095      2.193095      4.386191
     -3.178178      1.241720      1.241720      2.483441
     -3.168168      0.927963      0.927963      1.855926
     -3.158158      1.155978      1.155978      2.311956
     -3.148148      1.955260      1.955260      3.910520
     -3.138138      3.458669      3.458669      6.917338
     -3.128128      5.844691      5.844691     11.689381
     -3.118118      9.249711      9.249711     18.499422
     -3.108108     13.667085     13.667085     27.334171
     -3.098098     18.867234     18.867234     37.734468
     -3.088088     24.382698     24.382698     48.765397
     -3.078078     29.588232     29.588232     59.176465
     -3.068068     33.864789     33.864789     67.729577
     -3.058058     36.785052     36.785052     73.570103
     -3.048048     38.230686     38.230686     76.461373
     -3.038038     38.375802     38.375802     76.751605
     -3.028028     37.544022     37.544022     75.088044
     -3.018018     36.025804     36.025804     72.051608
     -3.008008     33.971928     33.971928     67.943856
     -2.997998     31.431030     31.431030     62.862060
     -2.987988     28.502151     28.502151     57.004302
     -2.977978     25.493792     25.493792     50.987584
     -2.967968     22.973201     22.973201     45.946403
     -2.957958     21.655055     21.655055     43.310110
     -2.947948     22.170092     22.170092     44.340184
     -2.937938     24.815822     24.815822     49.631644
     -2.927928     29.396702     29.396702     58.793405
     -2.917918     35.220020     35.220020     70.440040
     -2.907908     41.252895     41.252895     82.505790
     -2.897898     46.389622     46.389622     92.779244
     -2.887888     49.742479     49.742479     99.484958
     -2.877878     50.862226     50.862226    101.724451
     -2.867868     49.818980     49.818980     99.637960
     -2.857858     47.122602     47.122602     94.245205
     -2.847848     43.517315     43.517315     87.034630
     -2.837838     39.728052     39.728052     79.456105
     -2.827828     36.250481     36.250481     72.500962
     -2.817818     33.256817     33.256817     66.513633
     -2.807808     30.641555     30.641555     61.283109
     -2.797798     28.172660     28.172660     56.345320
     -2.787788     25.669513     25.669513     51.339026
     -2.777778     23.120795     23.120795     46.241591
     -2.767768     20.689990     20.689990     41.379979
     -2.757758     18.617659     18.617659     37.235318
     -2.747748     17.085963     17.085963     34.171927
     -2.737738     16.129774     16.129774     32.259548
     -2.727728     15.647659     15.647659     31.295317
     -2.717718     15.501726     15.501726     31.003452
     -2.707708     15.636843     15.636843     31.273686
     -2.697698     16.134960     16.134960     32.269920
     -2.687688     17.161156     17.161156     34.322312
     -2.677678     18.830303     18.830303     37.660605
     -2.667668     21.080233     21.080233     42.160467
     -2.657658     23.639591     23.639591     47.279182
     -2.647648     26.121202     26.121202     52.242405
     -2.637638     28.190484     28.190484     56.380968
     -2.627628     29.707667     29.707667     59.415334
     -2.617618     30.758946     30.758946     61.517892
     -2.607608     31.565030     31.565030     63.130060
     -2.597598     32.333691     32.333691     64.667382
     -2.587588     33.149308     33.149308     66.298617
     -2.577578     33.951498     33.951498     67.902996
     -2.567568     34.584810     34.584810     69.169621
     -2.557558     34.861346     34.861346     69.722692
     -2.547548     34.596176     34.596176     69.192353
     -2.537538     33.625491     33.625491     67.250983
     -2.527528     31.845786     31.845786     63.691573
     -2.517518     29.289940     29.289940     58.579879
     -2.507508     26.204478     26.204478     52.408956
     -2.497497     23.062286     23.062286     46.124572
     -2.487487     20.468220     20.468220     40.936441
     -2.477477     18.977695     18.977695     37.955391
     -2.467467     18.905739     18.905739     37.811478
     -2.457457     20.218004     20.218004     40.436008
     -2.447447     22.558669     22.558669     45.117338
     -2.437437     25.405054     25.405054     50.810108
     -2.427427     28.278549     28.278549     56.557099
     -2.417417     30.914188     30.914188     61.828375
     -2.407407     33.309519     33.309519     66.619039
     -2.397397     35.630242     35.630242     71.260484
     -2.387387     38.019842     38.019842     76.039684
     -2.377377     40.410289     40.410289     80.820578
     -2.367367     42.435501     42.435501     84.871002
     -2.357357     43.504419     43.504419     87.008839
     -2.347347     43.015016     43.015016     86.030032
     -2.337337     40.619410     40.619410     81.238821
     -2.327327     36.419861     36.419861     72.839721
     -2.317317     31.004238     31.004238     62.008476
     -2.307307     25.304436     25.304436     50.608873
     -2.297297     20.341027     20.341027     40.682053
     -2.287287     16.958858     16.958858     33.917716
     -2.277277     15.644549     15.644549     31.289097
     -2.267267     16.466543     16.466543     32.933087
     -2.257257     19.126569     19.126569     38.253138
     -2.247247     23.081393     23.081393     46.162787
     -2.237237     27.687066     27.687066     55.374132
     -2.227227     32.323899     32.323899     64.647798
     -2.217217     36.473261     36.473261     72.946522
     -2.207207     39.737796     39.737796     79.475591
     -2.197197     41.823320     41.823320     83.646640
     -2.187187     42.520895     42.520895     85.041791
     -2.177177     41.724114     41.724114     83.448228
     -2.167167     39.484500     39.484500     78.969001
     -2.157157     36.065379     36.065379     72.130759
     -2.147147     31.934967     31.934967     63.869934
     -2.137137     27.665095     27.665095     55.330189
     -2.127127     23.761887     23.761887     47.523774
     -2.117117     20.507704     20.507704     41.015409
     -2.107107     17.898429     17.898429     35.796858
     -2.097097     15.709120     15.709120     31.418240
     -2.087087     13.647776     13.647776     27.295553
     -2.077077     11.511020     11.511020     23.022040
     -2.067067      9.264935      9.264935     18.529870
     -2.057057      7.026825      7.026825     14.053649
     -2.047047      4.980262      4.980262      9.960524
     -2.037037      3.281742      3.281742      6.563484
     -2.027027      2.004812      2.004812      4.009623
     -2.017017      1.134738      1.134738      2.269476
     -2.007007      0.598585      0.598585      1.197170
     -1.996997      0.305832      0.305832      0.611664
     -1.986987      0.181306      0.181306      0.362612
     -1.976977      0.184542      0.184542      0.369085
     -1.966967      0.318244      0.318244      0.636487
     -1.956957      0.629854      0.629854      1.259707
     -1.946947      1.206526      1.206526      2.413052
     -1.936937      2.159526      2.159526      4.319052
     -1.926927      3.593938      3.593938      7.187875
     -1.916917      5.565567      5.565567     11.131133
     -1.906907      8.036912      8.036912     16.073825
     -1.896897     10.851501     10.851501     21.703003
     -1.886887     13.743687     13.743687     27.487374
     -1.876877     16.387862     16.387862     32.775724
     -1.866867     18.473749     18.473749     36.947497
     -1.856857     19.783490     19.783490     39.566979
     -1.846847     20.246569     20.246569     40.493137
     -1.836837     19.956395     19.956395     39.912791
     -1.826827     19.141257     19.141257     38.282513
     -1.816817     18.091884     18.091884     36.183768
     -1.806807     17.062339     17.062339     34.124678
     -1.796797     16.178736     16.178736     32.357473
     -1.786787     15.398472     15.398472     30.796944
     -1.776777     14.546474     14.546474     29.092948
     -1.766767     13.416423     13.416423     26.832846
     -1.756757     11.887044     11.887044     23.774087
     -1.746747      9.994423      9.994423     19.988847
     -1.736737      7.929152      7.929152     15.858304
     -1.726727      5.972239      5.972239     11.944477
     -1.716717      4.414418      4.414418      8.828836
     -1.706707      3.500805      3.500805      7.001610
     -1.696697      3.413490      3.413490      6.826979
     -1.686687      4.272415      4.272415      8.544830
     -1.676677      6.122567      6.122567     12.245135
     -1.666667      8.890742      8.890742     17.781485
     -1.656657     12.327762     12.327762     24.655524
     -1.646647     15.980257     15.980257     31.960513
     -1.636637     19.238322     19.238322     38.476643
     -1.626627     21.473479     21.473479     42.946958
