# EIG2DOS: Utility for SIESTA to obtain the electronic density of states
#  E. Artacho, Apr 1999, A. Garcia, Apr 2012
#  Nick R. Papior, Feb 2017
# ------------------------------------------
# Eigenvalues calculated from a non-polarized calculation
# Eigenvalues read from siesta.EIG
# Kpoint weights read from siesta.KP
# Using smearing parameter:   0.0500
# Using 1000 points in the energy range
# Selected bands: 1 to: 2981
# Emin, Emax in file for selected band(s):    -27.2995933    218.4003270
# Nbands, Nspin, Nk   =   2981     1     1
# E_F                 =    -4.1941 eV --> (shifted to ZERO)
# Broadening          =     0.0500 eV
#
#        E            N(up)  (=)   N(down)         Ntot
     -5.000000     32.305170     32.305170     64.610340
     -4.989990     37.342964     37.342964     74.685928
     -4.979980     42.004133     42.004133     84.008266
     -4.969970     45.474176     45.474176     90.948352
     -4.959960     47.092727     47.092727     94.185454
     -4.949950     46.575475     46.575475     93.150949
     -4.939940     44.115114     44.115114     88.230229
     -4.929930     40.335757     40.335757     80.671513
     -4.919920     36.141120     36.141120     72.282240
     -4.909910     32.523805     32.523805     65.047609
     -4.899900     30.383020     30.383020     60.766040
     -4.889890     30.361448     30.361448     60.722897
     -4.879880     32.698983     32.698983     65.397966
     -4.869870     37.125064     37.125064     74.250128
     -4.859860     42.844972     42.844972     85.689943
     -4.849850     48.675111     48.675111     97.350221
     -4.839840     53.328827     53.328827    106.657655
     -4.829830     55.773365     55.773365    111.546731
     -4.819820     55.524105     55.524105    111.048210
     -4.809810     52.756107     52.756107    105.512214
     -4.799800     48.193255     48.193255     96.386510
     -4.789790     42.836448     42.836448     85.672896
     -4.779780     37.656070     37.656070     75.312140
     -4.769770     33.367798     33.367798     66.735596
     -4.759760     30.347128     30.347128     60.694256
     -4.749750     28.661623     28.661623     57.323246
     -4.739740     28.155415     28.155415     56.310830
     -4.729730     28.524852     28.524852     57.049705
     -4.719720     29.362520     29.362520     58.725040
     -4.709710     30.188470     30.188470     60.376940
     -4.699700     30.505846     30.505846     61.011692
     -4.689690     29.903272     29.903272     59.806544
     -4.679680     28.188513     28.188513     56.377026
     -4.669670     25.502002     25.502002     51.004005
     -4.659660     22.350327     22.350327     44.700654
     -4.649650     19.526298     19.526298     39.052597
     -4.639640     17.927330     17.927330     35.854661
     -4.629630     18.320557     18.320557     36.641113
     -4.619620     21.116926     21.116926     42.233851
     -4.609610     26.213179     26.213179     52.426358
     -4.599600     32.951616     32.951616     65.903232
     -4.589590     40.231568     40.231568     80.463136
     -4.579580     46.771031     46.771031     93.542062
     -4.569570     51.459568     51.459568    102.919135
     -4.559560     53.688234     53.688234    107.376468
     -4.549550     53.527663     53.527663    107.055326
     -4.539540     51.673590     51.673590    103.347180
     -4.529530     49.173416     49.173416     98.346831
     -4.519520     47.040687     47.040687     94.081375
     -4.509510     45.909461     45.909461     91.818922
     -4.499499     45.857568     45.857568     91.715135
     -4.489489     46.451403     46.451403     92.902807
     -4.479479     46.972245     46.972245     93.944489
     -4.469469     46.716066     46.716066     93.432132
     -4.459459     45.242566     45.242566     90.485131
     -4.449449     42.487467     42.487467     84.974933
     -4.439439     38.723251     38.723251     77.446502
     -4.429429     34.421151     34.421151     68.842301
     -4.419419     30.098372     30.098372     60.196744
     -4.409409     26.216648     26.216648     52.433297
     -4.399399     23.147122     23.147122     46.294244
     -4.389389     21.168361     21.168361     42.336722
     -4.379379     20.451964     20.451964     40.903927
     -4.369369     21.019687     21.019687     42.039375
     -4.359359     22.700725     22.700725     45.401451
     -4.349349     25.139209     25.139209     50.278418
     -4.339339     27.880512     27.880512     55.761024
     -4.329329     30.515112     30.515112     61.030224
     -4.319319     32.816746     32.816746     65.633492
     -4.309309     34.806195     34.806195     69.612390
     -4.299299     36.705062     36.705062     73.410123
     -4.289289     38.793643     38.793643     77.587286
     -4.279279     41.228190     41.228190     82.456379
     -4.269269     43.891842     43.891842     87.783685
     -4.259259     46.347959     46.347959     92.695917
     -4.249249     47.934487     47.934487     95.868975
     -4.239239     47.985361     47.985361     95.970723
     -4.229229     46.102921     46.102921     92.205843
     -4.219219     42.364560     42.364560     84.729120
     -4.209209     37.359267     37.359267     74.718534
     -4.199199     32.021873     32.021873     64.043746
     -4.189189     27.330482     27.330482     54.660963
     -4.179179     23.999874     23.999874     47.999748
     -4.169169     22.301297     22.301297     44.602595
     -4.159159     22.071530     22.071530     44.143061
     -4.149149     22.882957     22.882957     45.765914
     -4.139139     24.279241     24.279241     48.558482
     -4.129129     25.964082     25.964082     51.928165
     -4.119119     27.861893     27.861893     55.723786
     -4.109109     30.031369     30.031369     60.062738
     -4.099099     32.483128     32.483128     64.966255
     -4.089089     35.005088     35.005088     70.010177
     -4.079079     37.106892     37.106892     74.213784
     -4.069069     38.141873     38.141873     76.283746
     -4.059059     37.568519     37.568519     75.137038
     -4.049049     35.225291     35.225291     70.450581
     -4.039039     31.471937     31.471937     62.943874
     -4.029029     27.117073     27.117073     54.234147
     -4.019019     23.166160     23.166160     46.332320
     -4.009009     20.513593     20.513593     41.027187
     -3.998999     19.715109     19.715109     39.430217
     -3.988989     20.914972     20.914972     41.829945
     -3.978979     23.915064     23.915064     47.830128
     -3.968969     28.314668     28.314668     56.629335
     -3.958959     33.645809     33.645809     67.291619
     -3.948949     39.465375     39.465375     78.930751
     -3.938939     45.405934     45.405934     90.811869
     -3.928929     51.202226     51.202226    102.404452
     -3.918919     56.696903     56.696903    113.393806
     -3.908909     61.810787     61.810787    123.621574
     -3.898899     66.466596     66.466596    132.933193
     -3.888889     70.485642     70.485642    140.971285
     -3.878879     73.511090     73.511090    147.022180
     -3.868869     75.017632     75.017632    150.035265
     -3.858859     74.433324     74.433324    148.866648
     -3.848849     71.341829     71.341829    142.683659
     -3.838839     65.685995     65.685995    131.371991
     -3.828829     57.883485     57.883485    115.766971
     -3.818819     48.797370     48.797370     97.594741
     -3.808809     39.562137     39.562137     79.124273
     -3.798799     31.320985     31.320985     62.641970
     -3.788789     24.959994     24.959994     49.919987
     -3.778779     20.919774     20.919774     41.839547
     -3.768769     19.133199     19.133199     38.266398
     -3.758759     19.095654     19.095654     38.191307
     -3.748749     20.038348     20.038348     40.076697
     -3.738739     21.153962     21.153962     42.307925
     -3.728729     21.817502     21.817502     43.635005
     -3.718719     21.750144     21.750144     43.500287
     -3.708709     21.086457     21.086457     42.172914
     -3.698699     20.324456     20.324456     40.648912
     -3.688689     20.163436     20.163436     40.326873
     -3.678679     21.265581     21.265581     42.531162
     -3.668669     24.007757     24.007757     48.015514
     -3.658659     28.307010     28.307010     56.614020
     -3.648649     33.591526     33.591526     67.183051
     -3.638639     38.941403     38.941403     77.882805
     -3.628629     43.354380     43.354380     86.708759
     -3.618619     46.034768     46.034768     92.069536
     -3.608609     46.594496     46.594496     93.188992
     -3.598599     45.102051     45.102051     90.204101
     -3.588589     41.989328     41.989328     83.978657
     -3.578579     37.881283     37.881283     75.762565
     -3.568569     33.421021     33.421021     66.842042
     -3.558559     29.134448     29.134448     58.268896
     -3.548549     25.347429     25.347429     50.694858
     -3.538539     22.157328     22.157328     44.314657
     -3.528529     19.462992     19.462992     38.925985
     -3.518519     17.051524     17.051524     34.103048
     -3.508509     14.718449     14.718449     29.436899
     -3.498498     12.376022     12.376022     24.752044
     -3.488488     10.104881     10.104881     20.209762
     -3.478478      8.131781      8.131781     16.263562
     -3.468468      6.751786      6.751786     13.503573
     -3.458458      6.232933      6.232933     12.465866
     -3.448448      6.736618      6.736618     13.473237
     -3.438438      8.269741      8.269741     16.539481
     -3.428428     10.671729     10.671729     21.343458
     -3.418418     13.636971     13.636971     27.273942
     -3.408408     16.773329     16.773329     33.546659
     -3.398398     19.691106     19.691106     39.382211
     -3.388388     22.103603     22.103603     44.207205
     -3.378378     23.909226     23.909226     47.818452
     -3.368368     25.224979     25.224979     50.449959
     -3.358358     26.353785     26.353785     52.707571
     -3.348348     27.687405     27.687405     55.374810
     -3.338338     29.565533     29.565533     59.131066
     -3.328328     32.126591     32.126591     64.253183
     -3.318318     35.196473     35.196473     70.392946
     -3.308308     38.264786     38.264786     76.529572
     -3.298298     40.584358     40.584358     81.168716
     -3.288288     41.389808     41.389808     82.779615
     -3.278278     40.172037     40.172037     80.344073
     -3.268268     36.898362     36.898362     73.796723
     -3.258258     32.070967     32.070967     64.141934
     -3.248248     26.581884     26.581884     53.163768
     -3.238238     21.419192     21.419192     42.838385
     -3.228228     17.349551     17.349551     34.699103
     -3.218218     14.706621     14.706621     29.413241
     -3.208208     13.357529     13.357529     26.715057
     -3.198198     12.838685     12.838685     25.677370
     -3.188188     12.589090     12.589090     25.178180
     -3.178178     12.185099     12.185099     24.370198
     -3.168168     11.494978     11.494978     22.989955
     -3.158158     10.711261     10.711261     21.422522
     -3.148148     10.265419     10.265419     20.530838
     -3.138138     10.664864     10.664864     21.329728
     -3.128128     12.307197     12.307197     24.614395
     -3.118118     15.323609     15.323609     30.647219
     -3.108108     19.492669     19.492669     38.985338
     -3.098098     24.252885     24.252885     48.505769
     -3.088088     28.822748     28.822748     57.645495
     -3.078078     32.404196     32.404196     64.808392
     -3.068068     34.406289     34.406289     68.812578
     -3.058058     34.603543     34.603543     69.207085
     -3.048048     33.161635     33.161635     66.323269
     -3.038038     30.522968     30.522968     61.045936
     -3.028028     27.215065     27.215065     54.430131
     -3.018018     23.681492     23.681492     47.362985
     -3.008008     20.212908     20.212908     40.425816
     -2.997998     16.990094     16.990094     33.980188
     -2.987988     14.185955     14.185955     28.371911
     -2.977978     12.049322     12.049322     24.098644
     -2.967968     10.916875     10.916875     21.833750
     -2.957958     11.145811     11.145811     22.291622
     -2.947948     12.997502     12.997502     25.995004
     -2.937938     16.517249     16.517249     33.034497
     -2.927928     21.452742     21.452742     42.905484
     -2.917918     27.244198     27.244198     54.488396
     -2.907908     33.104274     33.104274     66.208548
     -2.897898     38.181470     38.181470     76.362939
     -2.887888     41.767723     41.767723     83.535447
     -2.877878     43.482344     43.482344     86.964689
     -2.867868     43.359645     43.359645     86.719291
     -2.857858     41.797950     41.797950     83.595901
     -2.847848     39.385153     39.385153     78.770306
     -2.837838     36.673888     36.673888     73.347776
     -2.827828     34.005497     34.005497     68.010994
     -2.817818     31.458300     31.458300     62.916600
     -2.807808     28.931674     28.931674     57.863348
     -2.797798     26.307255     26.307255     52.614510
     -2.787788     23.591693     23.591693     47.183387
     -2.777778     20.962724     20.962724     41.925448
     -2.767768     18.701075     18.701075     37.402150
     -2.757758     17.058598     17.058598     34.117196
     -2.747748     16.147829     16.147829     32.295658
     -2.737738     15.919481     15.919481     31.838961
     -2.727728     16.234028     16.234028     32.468057
     -2.717718     16.970105     16.970105     33.940211
     -2.707708     18.088218     18.088218     36.176435
     -2.697698     19.601861     19.601861     39.203722
     -2.687688     21.478667     21.478667     42.957335
     -2.677678     23.552185     23.552185     47.104370
     -2.667668     25.525486     25.525486     51.050973
     -2.657658     27.085567     27.085567     54.171133
     -2.647648     28.064638     28.064638     56.129276
     -2.637638     28.542292     28.542292     57.084585
     -2.627628     28.815118     28.815118     57.630236
     -2.617618     29.246050     29.246050     58.492099
     -2.607608     30.082278     30.082278     60.164556
     -2.597598     31.343278     31.343278     62.686557
     -2.587588     32.825182     32.825182     65.650364
     -2.577578     34.191515     34.191515     68.383029
     -2.567568     35.081425     35.081425     70.162851
     -2.557558     35.186150     35.186150     70.372300
     -2.547548     34.293556     34.293556     68.587113
     -2.537538     32.330036     32.330036     64.660073
     -2.527528     29.414380     29.414380     58.828760
     -2.517518     25.899034     25.899034     51.798067
     -2.507508     22.351574     22.351574     44.703148
     -2.497497     19.447787     19.447787     38.895575
     -2.487487     17.795707     17.795707     35.591414
     -2.477477     17.753637     17.753637     35.507275
     -2.467467     19.317159     19.317159     38.634319
     -2.457457     22.125562     22.125562     44.251125
     -2.447447     25.590686     25.590686     51.181372
     -2.437437     29.101018     29.101018     58.202035
     -2.427427     32.220215     32.220215     64.440430
     -2.417417     34.796775     34.796775     69.593551
     -2.407407     36.935519     36.935519     73.871038
     -2.397397     38.842121     38.842121     77.684243
     -2.387387     40.614279     40.614279     81.228558
     -2.377377     42.086770     42.086770     84.173540
     -2.367367     42.820830     42.820830     85.641659
     -2.357357     42.261379     42.261379     84.522757
     -2.347347     39.997757     39.997757     79.995515
     -2.337337     36.002513     36.002513     72.005026
     -2.327327     30.727952     30.727952     61.455903
     -2.317317     25.012619     25.012619     50.025238
     -2.307307     19.846090     19.846090     39.692181
     -2.297297     16.101550     16.101550     32.203099
     -2.287287     14.340454     14.340454     28.680908
     -2.277277     14.738052     14.738052     29.476104
     -2.267267     17.116521     17.116521     34.233041
     -2.257257     21.038984     21.038984     42.077968
     -2.247247     25.918257     25.918257     51.836515
     -2.237237     31.112471     31.112471     62.224942
     -2.227227     35.997910     35.997910     71.995820
     -2.217217     40.020588     40.020588     80.041175
     -2.207207     42.734119     42.734119     85.468237
     -2.197197     43.834449     43.834449     87.668898
     -2.187187     43.199287     43.199287     86.398574
     -2.177177     40.927981     40.927981     81.855962
     -2.167167     37.359587     37.359587     74.719175
     -2.157157     33.037173     33.037173     66.074345
     -2.147147     28.600851     28.600851     57.201703
     -2.137137     24.630918     24.630918     49.261836
     -2.127127     21.501991     21.501991     43.003982
     -2.117117     19.316201     19.316201     38.632403
     -2.107107     17.944419     17.944419     35.888838
     -2.097097     17.142257     17.142257     34.284514
     -2.087087     16.666846     16.666846     33.333691
     -2.077077     16.331956     16.331956     32.663913
     -2.067067     15.992842     15.992842     31.985684
     -2.057057     15.505170     15.505170     31.010340
     -2.047047     14.714049     14.714049     29.428097
     -2.037037     13.494407     13.494407     26.988813
     -2.027027     11.815110     11.815110     23.630219
     -2.017017      9.776613      9.776613     19.553227
     -2.007007      7.590705      7.590705     15.181411
     -1.996997      5.511968      5.511968     11.023936
     -1.986987      3.760862      3.760862      7.521724
     -1.976977      2.478302      2.478302      4.956603
     -1.966967      1.726982      1.726982      3.453963
     -1.956957      1.525957      1.525957      3.051914
     -1.946947      1.889591      1.889591      3.779183
     -1.936937      2.844604      2.844604      5.689207
     -1.926927      4.414121      4.414121      8.828242
     -1.916917      6.576495      6.576495     13.152991
     -1.906907      9.221146      9.221146     18.442293
     -1.896897     12.127638     12.127638     24.255277
     -1.886887     14.985129     14.985129     29.970257
     -1.876877     17.451211     17.451211     34.902422
     -1.866867     19.231691     19.231691     38.463381
     -1.856857     20.154873     20.154873     40.309746
     -1.846847     20.216802     20.216802     40.433604
     -1.836837     19.582199     19.582199     39.164397
     -1.826827     18.535457     18.535457     37.070913
     -1.816817     17.388997     17.388997     34.777993
     -1.806807     16.374838     16.374838     32.749676
     -1.796797     15.562102     15.562102     31.124204
     -1.786787     14.842374     14.842374     29.684747
     -1.776777     13.996874     13.996874     27.993748
     -1.766767     12.815818     12.815818     25.631637
     -1.756757     11.209585     11.209585     22.419169
     -1.746747      9.256581      9.256581     18.513163
     -1.736737      7.171351      7.171351     14.342703
     -1.726727      5.221538      5.221538     10.443075
     -1.716717      3.644120      3.644120      7.288240
     -1.706707      2.599492      2.599492      5.198983
     -1.696697      2.169913      2.169913      4.339825
     -1.686687      2.380365      2.380365      4.760730
     -1.676677      3.211497      3.211497      6.422994
     -1.666667      4.587976      4.587976      9.175951
     -1.656657      6.350422      6.350422     12.700844
     -1.646647      8.239330      8.239330     16.478661
     -1.636637      9.921515      9.921515     19.843030
     -1.626627     11.069829     11.069829     22.139658
