# EIG2DOS: Utility for SIESTA to obtain the electronic density of states
#  E. Artacho, Apr 1999, A. Garcia, Apr 2012
#  Nick R. Papior, Feb 2017
# ------------------------------------------
# Eigenvalues calculated from a non-polarized calculation
# Eigenvalues read from siesta.EIG
# Kpoint weights read from siesta.KP
# Using smearing parameter:   0.0500
# Using 1000 points in the energy range
# Selected bands: 1 to: 2981
# Emin, Emax in file for selected band(s):    -27.0711945    218.3244510
# Nbands, Nspin, Nk   =   2981     1     1
# E_F                 =    -4.2843 eV --> (shifted to ZERO)
# Broadening          =     0.0500 eV
#
#        E            N(up)  (=)   N(down)         Ntot
     -5.000000     45.141850     45.141850     90.283700
     -4.989990     48.943931     48.943931     97.887862
     -4.979980     51.224085     51.224085    102.448171
     -4.969970     51.745942     51.745942    103.491883
     -4.959960     50.533484     50.533484    101.066969
     -4.949950     47.851226     47.851226     95.702452
     -4.939940     44.140351     44.140351     88.280703
     -4.929930     39.948203     39.948203     79.896405
     -4.919920     35.879602     35.879602     71.759204
     -4.909910     32.571156     32.571156     65.142312
     -4.899900     30.659733     30.659733     61.319465
     -4.889890     30.702906     30.702906     61.405812
     -4.879880     33.028817     33.028817     66.057634
     -4.869870     37.546620     37.546620     75.093241
     -4.859860     43.609809     43.609809     87.219619
     -4.849850     50.045585     50.045585    100.091169
     -4.839840     55.408747     55.408747    110.817494
     -4.829830     58.402291     58.402291    116.804581
     -4.819820     58.296736     58.296736    116.593473
     -4.809810     55.155286     55.155286    110.310573
     -4.799800     49.760702     49.760702     99.521404
     -4.789790     43.291675     43.291675     86.583349
     -4.779780     36.914772     36.914772     73.829543
     -4.769770     31.472171     31.472171     62.944341
     -4.759760     27.361193     27.361193     54.722387
     -4.749750     24.588487     24.588487     49.176973
     -4.739740     22.912403     22.912403     45.824807
     -4.729730     21.986127     21.986127     43.972254
     -4.719720     21.455195     21.455195     42.910391
     -4.709710     21.006020     21.006020     42.012039
     -4.699700     20.385313     20.385313     40.770626
     -4.689690     19.414695     19.414695     38.829390
     -4.679680     18.017232     18.017232     36.034464
     -4.669670     16.257662     16.257662     32.515325
     -4.659660     14.380563     14.380563     28.761125
     -4.649650     12.819603     12.819603     25.639206
     -4.639640     12.153408     12.153408     24.306817
     -4.629630     12.997907     12.997907     25.995813
     -4.619620     15.844685     15.844685     31.689369
     -4.609610     20.876143     20.876143     41.752286
     -4.599600     27.810907     27.810907     55.621813
     -4.589590     35.849889     35.849889     71.699778
     -4.579580     43.785580     43.785580     87.571160
     -4.569570     50.287321     50.287321    100.574642
     -4.559560     54.292362     54.292362    108.584724
     -4.549550     55.358930     55.358930    110.717860
     -4.539540     53.825728     53.825728    107.651456
     -4.529530     50.693621     50.693621    101.387241
     -4.519520     47.268504     47.268504     94.537007
     -4.509510     44.712883     44.712883     89.425767
     -4.499499     43.688822     43.688822     87.377644
     -4.489489     44.221807     44.221807     88.443614
     -4.479479     45.807469     45.807469     91.614939
     -4.469469     47.678827     47.678827     95.357654
     -4.459459     49.099613     49.099613     98.199227
     -4.449449     49.566075     49.566075     99.132150
     -4.439439     48.867196     48.867196     97.734392
     -4.429429     47.031479     47.031479     94.062957
     -4.419419     44.235776     44.235776     88.471553
     -4.409409     40.745891     40.745891     81.491782
     -4.399399     36.908788     36.908788     73.817576
     -4.389389     33.159530     33.159530     66.319060
     -4.379379     29.985082     29.985082     59.970164
     -4.369369     27.819219     27.819219     55.638437
     -4.359359     26.904008     26.904008     53.808016
     -4.349349     27.195371     27.195371     54.390741
     -4.339339     28.378057     28.378057     56.756114
     -4.329329     29.995496     29.995496     59.990991
     -4.319319     31.634285     31.634285     63.268569
     -4.309309     33.075203     33.075203     66.150406
     -4.299299     34.345731     34.345731     68.691461
     -4.289289     35.661038     35.661038     71.322075
     -4.279279     37.286685     37.286685     74.573370
     -4.269269     39.377685     39.377685     78.755370
     -4.259259     41.849547     41.849547     83.699094
     -4.249249     44.329909     44.329909     88.659819
     -4.239239     46.224832     46.224832     92.449664
     -4.229229     46.900430     46.900430     93.800859
     -4.219219     45.926211     45.926211     91.852422
     -4.209209     43.276881     43.276881     86.553761
     -4.199199     39.386138     39.386138     78.772276
     -4.189189     35.009333     35.009333     70.018666
     -4.179179     30.952510     30.952510     61.905020
     -4.169169     27.799400     27.799400     55.598800
     -4.159159     25.765446     25.765446     51.530891
     -4.149149     24.732588     24.732588     49.465176
     -4.139139     24.421558     24.421558     48.843115
     -4.129129     24.596423     24.596423     49.192846
     -4.119119     25.193904     25.193904     50.387809
     -4.109109     26.316328     26.316328     52.632655
     -4.099099     28.095652     28.095652     56.191304
     -4.089089     30.501146     30.501146     61.002291
     -4.079079     33.200819     33.200819     66.401638
     -4.069069     35.573591     35.573591     71.147182
     -4.059059     36.898427     36.898427     73.796854
     -4.049049     36.646361     36.646361     73.292722
     -4.039039     34.730437     34.730437     69.460874
     -4.029029     31.579213     31.579213     63.158426
     -4.019019     27.993217     27.993217     55.986433
     -4.009009     24.862870     24.862870     49.725740
     -3.998999     22.893694     22.893694     45.787389
     -3.988989     22.460057     22.460057     44.920114
     -3.978979     23.617306     23.617306     47.234611
     -3.968969     26.211265     26.211265     52.422530
     -3.958959     29.992000     29.992000     59.984000
     -3.948949     34.674601     34.674601     69.349203
     -3.938939     39.953188     39.953188     79.906376
     -3.928929     45.511718     45.511718     91.023436
     -3.918919     51.061473     51.061473    102.122945
     -3.908909     56.390041     56.390041    112.780081
     -3.898899     61.374413     61.374413    122.748826
     -3.888889     65.922624     65.922624    131.845249
     -3.878879     69.858710     69.858710    139.717420
     -3.868869     72.818457     72.818457    145.636915
     -3.858859     74.238987     74.238987    148.477973
     -3.848849     73.487150     73.487150    146.974300
     -3.838839     70.097306     70.097306    140.194613
     -3.828829     64.019660     64.019660    128.039321
     -3.818819     55.758283     55.758283    111.516566
     -3.808809     46.320023     46.320023     92.640045
     -3.798799     36.980720     36.980720     73.961440
     -3.788789     28.956272     28.956272     57.912543
     -3.778779     23.100537     23.100537     46.201074
     -3.768769     19.728442     19.728442     39.456885
     -3.758759     18.603530     18.603530     37.207061
     -3.748749     19.070149     19.070149     38.140297
     -3.738739     20.275103     20.275103     40.550207
     -3.728729     21.414359     21.414359     42.828718
     -3.718719     21.946689     21.946689     43.893378
     -3.708709     21.728066     21.728066     43.456131
     -3.698699     21.035239     21.035239     42.070478
     -3.688689     20.467217     20.467217     40.934434
     -3.678679     20.741743     20.741743     41.483485
     -3.668669     22.437744     22.437744     44.875488
     -3.658659     25.763286     25.763286     51.526572
     -3.648649     30.435040     30.435040     60.870080
     -3.638639     35.725472     35.725472     71.450945
     -3.628629     40.670268     40.670268     81.340537
     -3.618619     44.357478     44.357478     88.714955
     -3.608609     46.182008     46.182008     92.364015
     -3.598599     45.970792     45.970792     91.941584
     -3.588589     43.953330     43.953330     87.906660
     -3.578579     40.624001     40.624001     81.248001
     -3.568569     36.572854     36.572854     73.145707
     -3.558559     32.342988     32.342988     64.685975
     -3.548549     28.335245     28.335245     56.670490
     -3.538539     24.759533     24.759533     49.519066
     -3.528529     21.633655     21.633655     43.267310
     -3.518519     18.834592     18.834592     37.669185
     -3.508509     16.194124     16.194124     32.388249
     -3.498498     13.605702     13.605702     27.211404
     -3.488488     11.096353     11.096353     22.192707
     -3.478478      8.832140      8.832140     17.664280
     -3.468468      7.059391      7.059391     14.118783
     -3.458458      6.012378      6.012378     12.024756
     -3.448448      5.824951      5.824951     11.649901
     -3.438438      6.473004      6.473004     12.946007
     -3.428428      7.761453      7.761453     15.522906
     -3.418418      9.361852      9.361852     18.723703
     -3.408408     10.899307     10.899307     21.798614
     -3.398398     12.071538     12.071538     24.143076
     -3.388388     12.761788     12.761788     25.523576
     -3.378378     13.097298     13.097298     26.194595
     -3.368368     13.420951     13.420951     26.841902
     -3.358358     14.181972     14.181972     28.363944
     -3.348348     15.788789     15.788789     31.577578
     -3.338338     18.478276     18.478276     36.956552
     -3.328328     22.235595     22.235595     44.471189
     -3.318318     26.768355     26.768355     53.536709
     -3.308308     31.525376     31.525376     63.050751
     -3.298298     35.761478     35.761478     71.522956
     -3.288288     38.663686     38.663686     77.327373
     -3.278278     39.540677     39.540677     79.081354
     -3.268268     38.032039     38.032039     76.064079
     -3.258258     34.251171     34.251171     68.502342
     -3.248248     28.780706     28.780706     57.561411
     -3.238238     22.503929     22.503929     45.007857
     -3.228228     16.340849     16.340849     32.681697
     -3.218218     11.004452     11.004452     22.008903
     -3.208208      6.871344      6.871344     13.742688
     -3.198198      3.992533      3.992533      7.985066
     -3.188188      2.203802      2.203802      4.407605
     -3.178178      1.267647      1.267647      2.535294
     -3.168168      0.992113      0.992113      1.984225
     -3.158158      1.302620      1.302620      2.605240
     -3.148148      2.266045      2.266045      4.532089
     -3.138138      4.072278      4.072278      8.144555
     -3.128128      6.974013      6.974013     13.948025
     -3.118118     11.184621     11.184621     22.369243
     -3.108108     16.746636     16.746636     33.493272
     -3.098098     23.407943     23.407943     46.815886
     -3.088088     30.564220     30.564220     61.128440
     -3.078078     37.322979     37.322979     74.645957
     -3.068068     42.703659     42.703659     85.407317
     -3.058058     45.920288     45.920288     91.840575
     -3.048048     46.634648     46.634648     93.269296
     -3.038038     45.061506     45.061506     90.123012
     -3.028028     41.869501     41.869501     83.739002
     -3.018018     37.922316     37.922316     75.844632
     -3.008008     33.984375     33.984375     67.968750
     -2.997998     30.524894     30.524894     61.049788
     -2.987988     27.691770     27.691770     55.383539
     -2.977978     25.435377     25.435377     50.870754
     -2.967968     23.694648     23.694648     47.389297
     -2.957958     22.541978     22.541978     45.083955
     -2.947948     22.215382     22.215382     44.430764
     -2.937938     23.023896     23.023896     46.047791
     -2.927928     25.171313     25.171313     50.342626
     -2.917918     28.583263     28.583263     57.166526
     -2.907908     32.826974     32.826974     65.653949
     -2.897898     37.176409     37.176409     74.352819
     -2.887888     40.810262     40.810262     81.620524
     -2.877878     43.066098     43.066098     86.132196
     -2.867868     43.643307     43.643307     87.286613
     -2.857858     42.667841     42.667841     85.335682
     -2.847848     40.594265     40.594265     81.188530
     -2.837838     37.994870     37.994870     75.989741
     -2.827828     35.335036     35.335036     70.670072
     -2.817818     32.834720     32.834720     65.669439
     -2.807808     30.468608     30.468608     60.937216
     -2.797798     28.086483     28.086483     56.172966
     -2.787788     25.577008     25.577008     51.154016
     -2.777778     22.982100     22.982100     45.964200
     -2.767768     20.502939     20.502939     41.005877
     -2.757758     18.403395     18.403395     36.806790
     -2.747748     16.876007     16.876007     33.752015
     -2.737738     15.955538     15.955538     31.911076
     -2.727728     15.533393     15.533393     31.066786
     -2.717718     15.461113     15.461113     30.922225
     -2.707708     15.672440     15.672440     31.344880
     -2.697698     16.239237     16.239237     32.478475
     -2.687688     17.318062     17.318062     34.636125
     -2.677678     19.017068     19.017068     38.034137
     -2.667668     21.269865     21.269865     42.539729
     -2.657658     23.804700     23.804700     47.609399
     -2.647648     26.239097     26.239097     52.478195
     -2.637638     28.248248     28.248248     56.496496
     -2.627628     29.705215     29.705215     59.410430
     -2.617618     30.708598     30.708598     61.417195
     -2.607608     31.487679     31.487679     62.975359
     -2.597598     32.253080     32.253080     64.506160
     -2.587588     33.086264     33.086264     66.172528
     -2.577578     33.919327     33.919327     67.838654
     -2.567568     34.586329     34.586329     69.172657
     -2.557558     34.887955     34.887955     69.775909
     -2.547548     34.629596     34.629596     69.259192
     -2.537538     33.642372     33.642372     67.284744
     -2.527528     31.824152     31.824152     63.648304
     -2.517518     29.215190     29.215190     58.430381
     -2.507508     26.072740     26.072740     52.145480
     -2.497497     22.880499     22.880499     45.760998
     -2.487487     20.252327     20.252327     40.504654
     -2.477477     18.750993     18.750993     37.501986
     -2.467467     18.698250     18.698250     37.396500
     -2.457457     20.065639     20.065639     40.131279
     -2.447447     22.499863     22.499863     44.999727
     -2.437437     25.473555     25.473555     50.947110
     -2.427427     28.493654     28.493654     56.987308
     -2.417417     31.272059     31.272059     62.544119
     -2.407407     33.779624     33.779624     67.559248
     -2.397397     36.158965     36.158965     72.317931
     -2.387387     38.540305     38.540305     77.080609
     -2.377377     40.855121     40.855121     81.710243
     -2.367367     42.749053     42.749053     85.498107
     -2.357357     43.652117     43.652117     87.304233
     -2.347347     42.988902     42.988902     85.977805
     -2.337337     40.439361     40.439361     80.878721
     -2.327327     36.129783     36.129783     72.259566
     -2.317317     30.662995     30.662995     61.325989
     -2.307307     24.972785     24.972785     49.945571
     -2.297297     20.067921     20.067921     40.135842
     -2.287287     16.771455     16.771455     33.542910
     -2.277277     15.545378     15.545378     31.090756
     -2.267267     16.438673     16.438673     32.877347
     -2.257257     19.144375     19.144375     38.288750
     -2.247247     23.122072     23.122072     46.244144
     -2.237237     27.737635     27.737635     55.475270
     -2.227227     32.380741     32.380741     64.761483
     -2.217217     36.535511     36.535511     73.071022
     -2.207207     39.799622     39.799622     79.599244
     -2.197197     41.870752     41.870752     83.741503
     -2.187187     42.535585     42.535585     85.071170
     -2.177177     41.691619     41.691619     83.383237
     -2.167167     39.401719     39.401719     78.803437
     -2.157157     35.942673     35.942673     71.885345
     -2.147147     31.792110     31.792110     63.584221
     -2.137137     27.523740     27.523740     55.047480
     -2.127127     23.638544     23.638544     47.277088
     -2.117117     20.410123     20.410123     40.820245
     -2.107107     17.826026     17.826026     35.652051
     -2.097097     15.656168     15.656168     31.312335
     -2.087087     13.607287     13.607287     27.214574
     -2.077077     11.477602     11.477602     22.955205
     -2.067067      9.235869      9.235869     18.471738
     -2.057057      7.001604      7.001604     14.003208
     -2.047047      4.959413      4.959413      9.918826
     -2.037037      3.265737      3.265737      6.531473
     -2.027027      1.993509      1.993509      3.987019
     -2.017017      1.127355      1.127355      2.254709
     -2.007007      0.593921      0.593921      1.187842
     -1.996997      0.302464      0.302464      0.604927
     -1.986987      0.177555      0.177555      0.355110
     -1.976977      0.178206      0.178206      0.356413
     -1.966967      0.306218      0.306218      0.612436
     -1.956957      0.607939      0.607939      1.215877
     -1.946947      1.169830      1.169830      2.339660
     -1.936937      2.103824      2.103824      4.207648
     -1.926927      3.517984      3.517984      7.035968
     -1.916917      5.473671      5.473671     10.947342
     -1.906907      7.940368      7.940368     15.880735
     -1.896897     10.767315     10.767315     21.534629
     -1.886887     13.689961     13.689961     27.379923
     -1.876877     16.376943     16.376943     32.753887
     -1.866867     18.505947     18.505947     37.011895
     -1.856857     19.844574     19.844574     39.689148
     -1.846847     20.310860     20.310860     40.621720
     -1.836837     19.994793     19.994793     39.989586
     -1.826827     19.131334     19.131334     38.262669
     -1.816817     18.026402     18.026402     36.052804
     -1.806807     16.953308     16.953308     33.906616
     -1.796797     16.056101     16.056101     32.112202
     -1.786787     15.304955     15.304955     30.609910
     -1.776777     14.532629     14.532629     29.065258
     -1.766767     13.541465     13.541465     27.082930
     -1.756757     12.229951     12.229951     24.459902
     -1.746747     10.674647     10.674647     21.349294
     -1.736737      9.127289      9.127289     18.254578
     -1.726727      7.931576      7.931576     15.863153
     -1.716717      7.400994      7.400994     14.801987
     -1.706707      7.709856      7.709856     15.419711
     -1.696697      8.836506      8.836506     17.673013
     -1.686687     10.573310     10.573310     21.146620
     -1.676677     12.593593     12.593593     25.187187
     -1.666667     14.546247     14.546247     29.092494
     -1.656657     16.139390     16.139390     32.278780
     -1.646647     17.182339     17.182339     34.364679
     -1.636637     17.580575     17.580575     35.161149
     -1.626627     17.307804     17.307804     34.615609
