# EIG2DOS: Utility for SIESTA to obtain the electronic density of states
#  E. Artacho, Apr 1999, A. Garcia, Apr 2012
#  Nick R. Papior, Feb 2017
# ------------------------------------------
# Eigenvalues calculated from a non-polarized calculation
# Eigenvalues read from siesta.EIG
# Kpoint weights read from siesta.KP
# Using smearing parameter:   0.0500
# Using 1000 points in the energy range
# Selected bands: 1 to: 2981
# Emin, Emax in file for selected band(s):    -27.1993499    218.3601010
# Nbands, Nspin, Nk   =   2981     1     1
# E_F                 =    -4.2515 eV --> (shifted to ZERO)
# Broadening          =     0.0500 eV
#
#        E            N(up)  (=)   N(down)         Ntot
     -5.000000     32.218095     32.218095     64.436190
     -4.989990     36.253553     36.253553     72.507106
     -4.979980     39.951363     39.951363     79.902727
     -4.969970     42.774971     42.774971     85.549942
     -4.959960     44.249396     44.249396     88.498792
     -4.949950     44.112817     44.112817     88.225634
     -4.939940     42.414672     42.414672     84.829345
     -4.929930     39.529438     39.529438     79.058875
     -4.919920     36.094836     36.094836     72.189673
     -4.909910     32.906142     32.906142     65.812284
     -4.899900     30.791352     30.791352     61.582703
     -4.889890     30.468648     30.468648     60.937296
     -4.879880     32.378759     32.378759     64.757519
     -4.869870     36.511195     36.511195     73.022390
     -4.859860     42.290682     42.290682     84.581364
     -4.849850     48.613845     48.613845     97.227689
     -4.839840     54.086959     54.086959    108.173918
     -4.829830     57.418506     57.418506    114.837012
     -4.819820     57.821263     57.821263    115.642527
     -4.809810     55.248629     55.248629    110.497259
     -4.799800     50.359918     50.359918    100.719835
     -4.789790     44.242231     44.242231     88.484462
     -4.779780     38.030155     38.030155     76.060311
     -4.769770     32.591271     32.591271     65.182543
     -4.759760     28.380447     28.380447     56.760893
     -4.749750     25.463868     25.463868     50.927737
     -4.739740     23.641696     23.641696     47.283391
     -4.729730     22.586295     22.586295     45.172590
     -4.719720     21.945110     21.945110     43.890220
     -4.709710     21.398095     21.398095     42.796190
     -4.699700     20.685842     20.685842     41.371685
     -4.689690     19.631827     19.631827     39.263654
     -4.679680     18.175370     18.175370     36.350741
     -4.669670     16.416089     16.416089     32.832179
     -4.659660     14.652569     14.652569     29.305137
     -4.649650     13.386956     13.386956     26.773912
     -4.639640     13.269633     13.269633     26.539266
     -4.629630     14.972861     14.972861     29.945721
     -4.619620     19.004183     19.004183     38.008365
     -4.609610     25.496607     25.496607     50.993214
     -4.599600     34.040570     34.040570     68.081140
     -4.589590     43.640301     43.640301     87.280603
     -4.579580     52.861779     52.861779    105.723557
     -4.569570     60.175927     60.175927    120.351854
     -4.559560     64.405721     64.405721    128.811443
     -4.549550     65.110173     65.110173    130.220347
     -4.539540     62.736294     62.736294    125.472589
     -4.529530     58.457955     58.457955    116.915910
     -4.519520     53.757861     53.757861    107.515721
     -4.509510     49.922718     49.922718     99.845435
     -4.499499     47.652889     47.652889     95.305778
     -4.489489     46.925138     46.925138     93.850276
     -4.479479     47.128788     47.128788     94.257576
     -4.469469     47.382989     47.382989     94.765977
     -4.459459     46.885975     46.885975     93.771950
     -4.449449     45.163068     45.163068     90.326136
     -4.439439     42.149373     42.149373     84.298745
     -4.429429     38.125051     38.125051     76.250103
     -4.419419     33.575212     33.575212     67.150424
     -4.409409     29.052012     29.052012     58.104023
     -4.399399     25.080756     25.080756     50.161512
     -4.389389     22.104654     22.104654     44.209307
     -4.379379     20.438105     20.438105     40.876211
     -4.369369     20.210658     20.210658     40.421317
     -4.359359     21.318099     21.318099     42.636199
     -4.349349     23.421214     23.421214     46.842428
     -4.339339     26.022634     26.022634     52.045267
     -4.329329     28.612000     28.612000     57.223999
     -4.319319     30.827373     30.827373     61.654747
     -4.309309     32.565444     32.565444     65.130888
     -4.299299     33.993067     33.993067     67.986134
     -4.289289     35.453111     35.453111     70.906222
     -4.279279     37.296213     37.296213     74.592426
     -4.269269     39.694514     39.694514     79.389028
     -4.259259     42.503490     42.503490     85.006979
     -4.249249     45.233712     45.233712     90.467424
     -4.239239     47.168018     47.168018     94.336035
     -4.229229     47.605230     47.605230     95.210459
     -4.219219     46.144077     46.144077     92.288154
     -4.209209     42.879603     42.879603     85.759206
     -4.199199     38.407740     38.407740     76.815480
     -4.189189     33.623115     33.623115     67.246230
     -4.179179     29.402391     29.402391     58.804782
     -4.169169     26.323523     26.323523     52.647047
     -4.159159     24.544138     24.544138     49.088275
     -4.149149     23.871232     23.871232     47.742464
     -4.139139     23.958494     23.958494     47.916988
     -4.129129     24.518225     24.518225     49.036450
     -4.119119     25.445892     25.445892     50.891785
     -4.109109     26.807504     26.807504     53.615008
     -4.099099     28.705440     28.705440     57.410880
     -4.089089     31.095296     31.095296     62.190592
     -4.079079     33.656555     33.656555     67.313110
     -4.069069     35.805373     35.805373     71.610747
     -4.059059     36.872530     36.872530     73.745060
     -4.049049     36.377902     36.377902     72.755805
     -4.039039     34.267106     34.267106     68.534212
     -4.029029     30.983825     30.983825     61.967650
     -4.019019     27.335919     27.335919     54.671837
     -4.009009     24.224045     24.224045     48.448089
     -3.998999     22.368060     22.368060     44.736119
     -3.988989     22.149947     22.149947     44.299894
     -3.978979     23.611109     23.611109     47.222217
     -3.968969     26.555441     26.555441     53.110883
     -3.958959     30.672255     30.672255     61.344510
     -3.948949     35.618099     35.618099     71.236198
     -3.938939     41.051912     41.051912     82.103825
     -3.928929     46.655444     46.655444     93.310889
     -3.918919     52.164539     52.164539    104.329077
     -3.908909     57.400784     57.400784    114.801568
     -3.898899     62.266063     62.266063    124.532126
     -3.888889     66.673980     66.673980    133.347959
     -3.878879     70.437553     70.437553    140.875107
     -3.868869     73.178424     73.178424    146.356847
     -3.858859     74.332621     74.332621    148.665242
     -3.848849     73.288361     73.288361    146.576722
     -3.838839     69.620733     69.620733    139.241467
     -3.828829     63.326043     63.326043    126.652087
     -3.818819     54.942582     54.942582    109.885163
     -3.808809     45.487867     45.487867     90.975734
     -3.798799     36.223569     36.223569     72.447139
     -3.788789     28.334505     28.334505     56.669010
     -3.778779     22.638479     22.638479     45.276958
     -3.768769     19.419680     19.419680     38.839360
     -3.758759     18.421656     18.421656     36.843312
     -3.748749     18.979936     18.979936     37.959871
     -3.738739     20.241088     20.241088     40.482176
     -3.728729     21.406150     21.406150     42.812300
     -3.718719     21.941833     21.941833     43.883667
     -3.708709     21.713583     21.713583     43.427167
     -3.698699     21.008445     21.008445     42.016890
     -3.688689     20.435734     20.435734     40.871469
     -3.678679     20.722188     20.722188     41.444376
     -3.668669     22.452488     22.452488     44.904977
     -3.658659     25.835059     25.835059     51.670118
     -3.648649     30.579893     30.579893     61.159786
     -3.638639     35.945655     35.945655     71.891311
     -3.628629     40.949392     40.949392     81.898783
     -3.618619     44.660300     44.660300     89.320599
     -3.608609     46.460016     46.460016     92.920032
     -3.598599     46.172727     46.172727     92.345453
     -3.588589     44.037812     44.037812     88.075623
     -3.578579     40.570394     40.570394     81.140788
     -3.568569     36.386868     36.386868     72.773737
     -3.558559     32.055213     32.055213     64.110426
     -3.548549     27.993162     27.993162     55.986324
     -3.538539     24.415634     24.415634     48.831268
     -3.528529     21.333338     21.333338     42.666675
     -3.518519     18.607209     18.607209     37.214418
     -3.508509     16.049196     16.049196     32.098391
     -3.498498     13.534482     13.534482     27.068964
     -3.488488     11.077349     11.077349     22.154697
     -3.478478      8.838355      8.838355     17.676710
     -3.468468      7.065194      7.065194     14.130389
     -3.458458      5.998723      5.998723     11.997446
     -3.448448      5.782633      5.782633     11.565265
     -3.438438      6.404095      6.404095     12.808189
     -3.428428      7.678884      7.678884     15.357769
     -3.418418      9.286798      9.286798     18.573596
     -3.408408     10.856200     10.856200     21.712400
     -3.398398     12.081376     12.081376     24.162753
     -3.388388     12.835370     12.835370     25.670740
     -3.378378     13.230318     13.230318     26.460635
     -3.368368     13.592423     13.592423     27.184846
     -3.358358     14.356700     14.356700     28.713400
     -3.348348     15.924161     15.924161     31.848322
     -3.338338     18.535308     18.535308     37.070617
     -3.328328     22.193243     22.193243     44.386486
     -3.318318     26.638544     26.638544     53.277088
     -3.308308     31.365327     31.365327     62.730654
     -3.298298     35.681269     35.681269     71.362537
     -3.288288     38.830195     38.830195     77.660390
     -3.278278     40.180885     40.180885     80.361770
     -3.268268     39.435153     39.435153     78.870306
     -3.258258     36.760296     36.760296     73.520593
     -3.248248     32.757356     32.757356     65.514711
     -3.238238     28.252527     28.252527     56.505054
     -3.228228     24.000444     24.000444     48.000887
     -3.218218     20.443417     20.443417     40.886834
     -3.208208     17.638975     17.638975     35.277950
     -3.198198     15.371381     15.371381     30.742762
     -3.188188     13.366795     13.366795     26.733590
     -3.178178     11.494081     11.494081     22.988162
     -3.168168      9.864999      9.864999     19.729999
     -3.158158      8.813926      8.813926     17.627851
     -3.148148      8.790795      8.790795     17.581589
     -3.138138     10.216886     10.216886     20.433771
     -3.128128     13.340843     13.340843     26.681686
     -3.118118     18.118840     18.118840     36.237681
     -3.108108     24.144520     24.144520     48.289040
     -3.098098     30.662963     30.662963     61.325927
     -3.088088     36.695336     36.695336     73.390673
     -3.078078     41.263575     41.263575     82.527149
     -3.068068     43.650928     43.650928     87.301856
     -3.058058     43.598717     43.598717     87.197434
     -3.048048     41.352830     41.352830     82.705659
     -3.038038     37.537339     37.537339     75.074679
     -3.028028     32.914976     32.914976     65.829952
     -3.018018     28.147335     28.147335     56.294669
     -3.008008     23.659562     23.659562     47.319124
     -2.997998     19.650427     19.650427     39.300854
     -2.987988     16.209363     16.209363     32.418725
     -2.977978     13.454265     13.454265     26.908530
     -2.967968     11.609598     11.609598     23.219195
     -2.957958     10.989325     10.989325     21.978650
     -2.947948     11.899497     11.899497     23.798995
     -2.937938     14.505289     14.505289     29.010577
     -2.927928     18.713544     18.713544     37.427088
     -2.917918     24.114644     24.114644     48.229288
     -2.907908     30.013763     30.013763     60.027525
     -2.897898     35.559133     35.559133     71.118266
     -2.887888     39.941483     39.941483     79.882966
     -2.877878     42.603473     42.603473     85.206945
     -2.867868     43.380773     43.380773     86.761546
     -2.857858     42.514113     42.514113     85.028226
     -2.847848     40.522783     40.522783     81.045566
     -2.837838     37.991905     37.991905     75.983810
     -2.827828     35.366042     35.366042     70.732084
     -2.817818     32.837678     32.837678     65.675355
     -2.807808     30.370959     30.370959     60.741917
     -2.797798     27.833169     27.833169     55.666339
     -2.787788     25.154063     25.154063     50.308127
     -2.777778     22.424194     22.424194     44.848388
     -2.767768     19.882314     19.882314     39.764627
     -2.757758     17.807113     17.807113     35.614225
     -2.747748     16.383441     16.383441     32.766883
     -2.737738     15.626098     15.626098     31.252196
     -2.727728     15.406991     15.406991     30.813982
     -2.717718     15.565403     15.565403     31.130806
     -2.707708     16.026527     16.026527     32.053055
     -2.697698     16.846190     16.846190     33.692379
     -2.687688     18.147207     18.147207     36.294415
     -2.677678     19.986741     19.986741     39.973483
     -2.667668     22.245532     22.245532     44.491065
     -2.657658     24.621847     24.621847     49.243694
     -2.647648     26.746690     26.746690     53.493381
     -2.637638     28.355053     28.355053     56.710106
     -2.627628     29.407369     29.407369     58.814738
     -2.617618     30.086214     30.086214     60.172428
     -2.607608     30.674774     30.674774     61.349547
     -2.597598     31.397192     31.397192     62.794384
     -2.587588     32.314364     32.314364     64.628727
     -2.577578     33.317480     33.317480     66.634959
     -2.567568     34.191412     34.191412     68.382824
     -2.557558     34.687334     34.687334     69.374668
     -2.547548     34.567974     34.567974     69.135948
     -2.537538     33.637523     33.637523     67.275045
     -2.527528     31.790663     31.790663     63.581325
     -2.517518     29.089772     29.089772     58.179544
     -2.507508     25.831819     25.831819     51.663638
     -2.497497     22.543994     22.543994     45.087987
     -2.487487     19.874449     19.874449     39.748897
     -2.477477     18.404350     18.404350     36.808700
     -2.467467     18.458094     18.458094     36.916188
     -2.457457     19.997819     19.997819     39.995638
     -2.447447     22.652505     22.652505     45.305010
     -2.437437     25.871174     25.871174     51.742347
     -2.427427     29.132898     29.132898     58.265795
     -2.417417     32.118908     32.118908     64.237815
     -2.407407     34.767988     34.767988     69.535975
     -2.397397     37.191383     37.191383     74.382766
     -2.387387     39.493397     39.493397     78.986794
     -2.377377     41.593975     41.593975     83.187949
     -2.367367     43.152674     43.152674     86.305347
     -2.357357     43.645654     43.645654     87.291308
     -2.347347     42.571019     42.571019     85.142037
     -2.337337     39.691043     39.691043     79.382086
     -2.327327     35.197490     35.197490     70.394981
     -2.317317     29.721221     29.721221     59.442441
     -2.307307     24.181070     24.181070     48.362139
     -2.297297     19.538586     19.538586     39.077171
     -2.287287     16.556882     16.556882     33.113764
     -2.277277     15.643314     15.643314     31.286627
     -2.267267     16.807357     16.807357     33.614714
     -2.257257     19.718672     19.718672     39.437343
     -2.247247     23.825264     23.825264     47.650528
     -2.237237     28.487776     28.487776     56.975552
     -2.227227     33.093556     33.093556     66.187113
     -2.217217     37.127333     37.127333     74.254665
     -2.207207     40.193688     40.193688     80.387375
     -2.197197     42.008180     42.008180     84.016359
     -2.187187     42.388900     42.388900     84.777799
     -2.177177     41.275476     41.275476     82.550952
     -2.167167     38.774645     38.774645     77.549289
     -2.157157     35.196261     35.196261     70.392523
     -2.147147     31.029329     31.029329     62.058657
     -2.137137     26.833259     26.833259     53.666519
     -2.127127     23.074478     23.074478     46.148955
     -2.117117     19.984622     19.984622     39.969243
     -2.107107     17.516579     17.516579     35.033158
     -2.097097     15.422989     15.422989     30.845978
     -2.087087     13.412286     13.412286     26.824573
     -2.077077     11.297072     11.297072     22.594144
     -2.067067      9.063385      9.063385     18.126770
     -2.057057      6.842879      6.842879     13.685759
     -2.047047      4.823974      4.823974      9.647948
     -2.037037      3.160174      3.160174      6.320347
     -2.027027      1.918633      1.918633      3.837266
     -2.017017      1.078888      1.078888      2.157776
     -2.007007      0.564873      0.564873      1.129746
     -1.996997      0.285320      0.285320      0.570640
     -1.986987      0.165306      0.165306      0.330612
     -1.976977      0.164139      0.164139      0.328277
     -1.966967      0.283065      0.283065      0.566130
     -1.956957      0.567375      0.567375      1.134751
     -1.946947      1.103593      1.103593      2.207187
     -1.936937      2.007942      2.007942      4.015884
     -1.926927      3.401422      3.401422      6.802844
     -1.916917      5.371956      5.371956     10.743912
     -1.906907      7.933385      7.933385     15.866770
     -1.896897     10.998549     10.998549     21.997098
     -1.886887     14.381915     14.381915     28.763829
     -1.876877     17.834238     17.834238     35.668477
     -1.866867     21.094700     21.094700     42.189400
     -1.856857     23.937343     23.937343     47.874687
     -1.846847     26.195429     26.195429     52.390859
     -1.836837     27.763638     27.763638     55.527275
     -1.826827     28.589825     28.589825     57.179649
     -1.816817     28.666618     28.666618     57.333235
     -1.806807     28.023585     28.023585     56.047169
     -1.796797     26.715901     26.715901     53.431802
     -1.786787     24.811113     24.811113     49.622227
     -1.776777     22.383930     22.383930     44.767860
     -1.766767     19.527319     19.527319     39.054638
     -1.756757     16.374429     16.374429     32.748859
     -1.746747     13.112217     13.112217     26.224433
     -1.736737      9.968833      9.968833     19.937666
     -1.726727      7.174432      7.174432     14.348864
     -1.716717      4.914965      4.914965      9.829931
     -1.706707      3.304219      3.304219      6.608437
     -1.696697      2.386214      2.386214      4.772429
     -1.686687      2.158646      2.158646      4.317291
     -1.676677      2.593974      2.593974      5.187948
     -1.666667      3.637626      3.637626      7.275252
     -1.656657      5.180630      5.180630     10.361259
     -1.646647      7.026269      7.026269     14.052538
     -1.636637      8.883015      8.883015     17.766031
     -1.626627     10.408926     10.408926     20.817852
