# EIG2DOS: Utility for SIESTA to obtain the electronic density of states
#  E. Artacho, Apr 1999, A. Garcia, Apr 2012
#  Nick R. Papior, Feb 2017
# ------------------------------------------
# Eigenvalues calculated from a non-polarized calculation
# Eigenvalues read from siesta.EIG
# Kpoint weights read from siesta.KP
# Using smearing parameter:   0.0500
# Using 1000 points in the energy range
# Selected bands: 1 to: 2981
# Emin, Emax in file for selected band(s):    -27.2162792    218.3929760
# Nbands, Nspin, Nk   =   2981     1     1
# E_F                 =    -4.2005 eV --> (shifted to ZERO)
# Broadening          =     0.0500 eV
#
#        E            N(up)  (=)   N(down)         Ntot
     -5.000000     32.710768     32.710768     65.421536
     -4.989990     37.855661     37.855661     75.711321
     -4.979980     42.538471     42.538471     85.076942
     -4.969970     45.921558     45.921558     91.843116
     -4.959960     47.358420     47.358420     94.716840
     -4.949950     46.612068     46.612068     93.224137
     -4.939940     43.937455     43.937455     87.874910
     -4.929930     40.013032     40.013032     80.026064
     -4.919920     35.773399     35.773399     71.546797
     -4.909910     32.215143     32.215143     64.430287
     -4.899900     30.219626     30.219626     60.439252
     -4.889890     30.396468     30.396468     60.792936
     -4.879880     32.941949     32.941949     65.883898
     -4.869870     37.536143     37.536143     75.072287
     -4.859860     43.338252     43.338252     86.676503
     -4.849850     49.135568     49.135568     98.271135
     -4.839840     53.641971     53.641971    107.283943
     -4.829830     55.858201     55.858201    111.716402
     -4.819820     55.355260     55.355260    110.710520
     -4.809810     52.363693     52.363693    104.727386
     -4.799800     47.637687     47.637687     95.275373
     -4.789790     42.164690     42.164690     84.329380
     -4.779780     36.851212     36.851212     73.702424
     -4.769770     32.305329     32.305329     64.610657
     -4.759760     28.771653     28.771653     57.543305
     -4.749750     26.198605     26.198605     52.397209
     -4.739740     24.370858     24.370858     48.741716
     -4.729730     23.036064     23.036064     46.072128
     -4.719720     21.982860     21.982860     43.965720
     -4.709710     21.065060     21.065060     42.130121
     -4.699700     20.196173     20.196173     40.392346
     -4.689690     19.347551     19.347551     38.695101
     -4.679680     18.569505     18.569505     37.139010
     -4.669670     18.026292     18.026292     36.052584
     -4.659660     18.012538     18.012538     36.025077
     -4.649650     18.918450     18.918450     37.836900
     -4.639640     21.135023     21.135023     42.270046
     -4.629630     24.921085     24.921085     49.842169
     -4.619620     30.272229     30.272229     60.544457
     -4.609610     36.833515     36.833515     73.667029
     -4.599600     43.892131     43.892131     87.784262
     -4.589590     50.476979     50.476979    100.953958
     -4.579580     55.569665     55.569665    111.139331
     -4.569570     58.386877     58.386877    116.773755
     -4.559560     58.642068     58.642068    117.284137
     -4.549550     56.671986     56.671986    113.343973
     -4.539540     53.351198     53.351198    106.702396
     -4.529530     49.806955     49.806955     99.613910
     -4.519520     47.040421     47.040421     94.080842
     -4.509510     45.605073     45.605073     91.210145
     -4.499499     45.465743     45.465743     90.931485
     -4.489489     46.079951     46.079951     92.159902
     -4.479479     46.649793     46.649793     93.299585
     -4.469469     46.430205     46.430205     92.860411
     -4.459459     44.971398     44.971398     89.942795
     -4.449449     42.217161     42.217161     84.434321
     -4.439439     38.452357     38.452357     76.904715
     -4.429429     34.157135     34.157135     68.314271
     -4.419419     29.852271     29.852271     59.704542
     -4.409409     25.999324     25.999324     51.998647
     -4.399399     22.967637     22.967637     45.935275
     -4.389389     21.033283     21.033283     42.066567
     -4.379379     20.364591     20.364591     40.729182
     -4.369369     20.979502     20.979502     41.959005
     -4.359359     22.704294     22.704294     45.408589
     -4.349349     25.183139     25.183139     50.366278
     -4.339339     27.965258     27.965258     55.930515
     -4.329329     30.646860     30.646860     61.293720
     -4.319319     33.004800     33.004800     66.009599
     -4.309309     35.055567     35.055567     70.111133
     -4.299299     37.007101     37.007101     74.014202
     -4.289289     39.119600     39.119600     78.239200
     -4.279279     41.530149     41.530149     83.060298
     -4.269269     44.112408     44.112408     88.224816
     -4.259259     46.435833     46.435833     92.871665
     -4.249249     47.859937     47.859937     95.719874
     -4.239239     47.749323     47.749323     95.498646
     -4.229229     45.736458     45.736458     91.472916
     -4.219219     41.919915     41.919915     83.839830
     -4.209209     36.897240     36.897240     73.794479
     -4.199199     31.600704     31.600704     63.201409
     -4.189189     26.998906     26.998906     53.997813
     -4.179179     23.793525     23.793525     47.587051
     -4.169169     22.239988     22.239988     44.479976
     -4.159159     22.156295     22.156295     44.312590
     -4.149149     23.094772     23.094772     46.189544
     -4.139139     24.582806     24.582806     49.165612
     -4.129129     26.317695     26.317695     52.635391
     -4.119119     28.229455     28.229455     56.458910
     -4.109109     30.389244     30.389244     60.778488
     -4.099099     32.816831     32.816831     65.633661
     -4.089089     35.298103     35.298103     70.596206
     -4.079079     37.330838     37.330838     74.661676
     -4.069069     38.257631     38.257631     76.515263
     -4.059059     37.540485     37.540485     75.080969
     -4.049049     35.040965     35.040965     70.081930
     -4.039039     31.154356     31.154356     62.308711
     -4.029029     26.721754     26.721754     53.443508
     -4.019019     22.764054     22.764054     45.528108
     -4.009009     20.169556     20.169556     40.339112
     -3.998999     19.472492     19.472492     38.944984
     -3.988989     20.791591     20.791591     41.583183
     -3.978979     23.908761     23.908761     47.817521
     -3.968969     28.412732     28.412732     56.825465
     -3.958959     33.833017     33.833017     67.666034
     -3.948949     39.728503     39.728503     79.457006
     -3.938939     45.735375     45.735375     91.470751
     -3.928929     51.591986     51.591986    103.183972
     -3.918919     57.143171     57.143171    114.286342
     -3.908909     62.308091     62.308091    124.616182
     -3.898899     67.000919     67.000919    134.001837
     -3.888889     71.026117     71.026117    142.052235
     -3.878879     74.004792     74.004792    148.009583
     -3.868869     75.393044     75.393044    150.786087
     -3.858859     74.615464     74.615464    149.230929
     -3.848849     71.276006     71.276006    142.552012
     -3.838839     65.360938     65.360938    130.721877
     -3.828829     57.342604     57.342604    114.685208
     -3.818819     48.131278     48.131278     96.262557
     -3.808809     38.884319     38.884319     77.768638
     -3.798799     30.736291     30.736291     61.472582
     -3.788789     24.538080     24.538080     49.076160
     -3.778779     20.682092     20.682092     41.364185
     -3.768769     19.055620     19.055620     38.111240
     -3.758759     19.123223     19.123223     38.246446
     -3.748749     20.105946     20.105946     40.211891
     -3.738739     21.206573     21.206573     42.413146
     -3.728729     21.825199     21.825199     43.650398
     -3.718719     21.714696     21.714696     43.429392
     -3.708709     21.038375     21.038375     42.076750
     -3.698699     20.311253     20.311253     40.622506
     -3.688689     20.232056     20.232056     40.464111
     -3.678679     21.443989     21.443989     42.887978
     -3.668669     24.291873     24.291873     48.583746
     -3.658659     28.658269     28.658269     57.316537
     -3.648649     33.946823     33.946823     67.893646
     -3.638639     39.232014     39.232014     78.464028
     -3.628629     43.526249     43.526249     87.052497
     -3.618619     46.062075     46.062075     92.124150
     -3.608609     46.482181     46.482181     92.964362
     -3.598599     44.878621     44.878621     89.757242
     -3.588589     41.695191     41.695191     83.390382
     -3.578579     37.557924     37.557924     75.115849
     -3.568569     33.103594     33.103594     66.207189
     -3.558559     28.847543     28.847543     57.695086
     -3.548549     25.103055     25.103055     50.206111
     -3.538539     21.955059     21.955059     43.910119
     -3.528529     19.292972     19.292972     38.585944
     -3.518519     16.900188     16.900188     33.800376
     -3.508509     14.574912     14.574912     29.149824
     -3.498498     12.235658     12.235658     24.471316
     -3.488488      9.966797      9.966797     19.933595
     -3.478478      7.988209      7.988209     15.976418
     -3.468468      6.568967      6.568967     13.137933
     -3.458458      5.924745      5.924745     11.849491
     -3.448448      6.135390      6.135390     12.270780
     -3.438438      7.104413      7.104413     14.208825
     -3.428428      8.570165      8.570165     17.140331
     -3.418418     10.171035     10.171035     20.342070
     -3.408408     11.555820     11.555820     23.111640
     -3.398398     12.511118     12.511118     25.022235
     -3.388388     13.059916     13.059916     26.119832
     -3.378378     13.486696     13.486696     26.973392
     -3.368368     14.271085     14.271085     28.542170
     -3.358358     15.950557     15.950557     31.901113
     -3.348348     18.957945     18.957945     37.915890
     -3.338338     23.477518     23.477518     46.955036
     -3.328328     29.344317     29.344317     58.688633
     -3.318318     35.999796     35.999796     71.999593
     -3.308308     42.524404     42.524404     85.048809
     -3.298298     47.777075     47.777075     95.554150
     -3.288288     50.650436     50.650436    101.300872
     -3.278278     50.389091     50.389091    100.778181
     -3.268268     46.852703     46.852703     93.705406
     -3.258258     40.595097     40.595097     81.190194
     -3.248248     32.703491     32.703491     65.406981
     -3.238238     24.461374     24.461374     48.922748
     -3.228228     16.985961     16.985961     33.971922
     -3.218218     10.989972     10.989972     21.979945
     -3.208208      6.736334      6.736334     13.472668
     -3.198198      4.153427      4.153427      8.306854
     -3.188188      3.018028      3.018028      6.036057
     -3.178178      3.113105      3.113105      6.226210
     -3.168168      4.307919      4.307919      8.615837
     -3.158158      6.555036      6.555036     13.110073
     -3.148148      9.830678      9.830678     19.661356
     -3.138138     14.056093     14.056093     28.112186
     -3.128128     19.033235     19.033235     38.066469
     -3.118118     24.415570     24.415570     48.831139
     -3.108108     29.721975     29.721975     59.443949
     -3.098098     34.393088     34.393088     68.786177
     -3.088088     37.883987     37.883987     75.767974
     -3.078078     39.778295     39.778295     79.556589
     -3.068068     39.893828     39.893828     79.787656
     -3.058058     38.337362     38.337362     76.674724
     -3.048048     35.473405     35.473405     70.946810
     -3.038038     31.807210     31.807210     63.614420
     -3.028028     27.829900     27.829900     55.659800
     -3.018018     23.900161     23.900161     47.800323
     -3.008008     20.218419     20.218419     40.436838
     -2.997998     16.894600     16.894600     33.789199
     -2.987988     14.056588     14.056588     28.113176
     -2.977978     11.928761     11.928761     23.857522
     -2.967968     10.834773     10.834773     21.669547
     -2.957958     11.122722     11.122722     22.245445
     -2.947948     13.044945     13.044945     26.089890
     -2.937938     16.636869     16.636869     33.273738
     -2.927928     21.635947     21.635947     43.271894
     -2.917918     27.472557     27.472557     54.945115
     -2.907908     33.350881     33.350881     66.701761
     -2.897898     38.413808     38.413808     76.827617
     -2.887888     41.952598     41.952598     83.905195
     -2.877878     43.592525     43.592525     87.185050
     -2.867868     43.380448     43.380448     86.760895
     -2.857858     41.731020     41.731020     83.462039
     -2.847848     39.247415     39.247415     78.494829
     -2.837838     36.491863     36.491863     72.983726
     -2.827828     33.807647     33.807647     67.615295
     -2.817818     31.268943     31.268943     62.537885
     -2.807808     28.768606     28.768606     57.537213
     -2.797798     26.182563     26.182563     52.365125
     -2.787788     23.513257     23.513257     47.026514
     -2.777778     20.934095     20.934095     41.868190
     -2.767768     18.719378     18.719378     37.438757
     -2.757758     17.112427     17.112427     34.224854
     -2.747748     16.217906     16.217906     32.435813
     -2.737738     15.983429     15.983429     31.966858
     -2.727728     16.273792     16.273792     32.547583
     -2.717718     16.978359     16.978359     33.956718
     -2.707708     18.070233     18.070233     36.140465
     -2.697698     19.571939     19.571939     39.143878
     -2.687688     21.453676     21.453676     42.907352
     -2.677678     23.546369     23.546369     47.092738
     -2.667668     25.549380     25.549380     51.098760
     -2.657658     27.148410     27.148410     54.296820
     -2.647648     28.176854     28.176854     56.353709
     -2.637638     28.714525     28.714525     57.429050
     -2.627628     29.053100     29.053100     58.106200
     -2.617618     29.544096     29.544096     59.088192
     -2.607608     30.419666     30.419666     60.839332
     -2.597598     31.686138     31.686138     63.372276
     -2.587588     33.133053     33.133053     66.266105
     -2.577578     34.425258     34.425258     68.850516
     -2.567568     35.209504     35.209504     70.419007
     -2.557558     35.188718     35.188718     70.377436
     -2.547548     34.165776     34.165776     68.331552
     -2.537538     32.085548     32.085548     64.171096
     -2.527528     29.087495     29.087495     58.174990
     -2.517518     25.542497     25.542497     51.084994
     -2.507508     22.027767     22.027767     44.055534
     -2.497497     19.214644     19.214644     38.429288
     -2.487487     17.692041     17.692041     35.384081
     -2.477477     17.789633     17.789633     35.579265
     -2.467467     19.473877     19.473877     38.947754
     -2.457457     22.363578     22.363578     44.727155
     -2.447447     25.864334     25.864334     51.728667
     -2.437437     29.372726     29.372726     58.745452
     -2.427427     32.469739     32.469739     64.939478
     -2.417417     35.022340     35.022340     70.044679
     -2.407407     37.146859     37.146859     74.293718
     -2.397397     39.048119     39.048119     78.096239
     -2.387387     40.809966     40.809966     81.619933
     -2.377377     42.245612     42.245612     84.491224
     -2.367367     42.897434     42.897434     85.794868
     -2.357357     42.205950     42.205950     84.411900
     -2.347347     39.777374     39.777374     79.554748
     -2.337337     35.619199     35.619199     71.238397
     -2.327327     30.223715     30.223715     60.447431
     -2.317317     24.458187     24.458187     48.916374
     -2.307307     19.318971     19.318971     38.637942
     -2.297297     15.664381     15.664381     31.328763
     -2.287287     14.029032     14.029032     28.058065
     -2.277277     14.561915     14.561915     29.123830
     -2.267267     17.068250     17.068250     34.136501
     -2.257257     21.105234     21.105234     42.210468
     -2.247247     26.086541     26.086541     52.173082
     -2.237237     31.371178     31.371178     62.742355
     -2.227227     36.330764     36.330764     72.661529
     -2.217217     40.399518     40.399518     80.799035
     -2.207207     43.115580     43.115580     86.231161
     -2.197197     44.163179     44.163179     88.326358
     -2.187187     43.420032     43.420032     86.840065
     -2.177177     41.000862     41.000862     82.001725
     -2.167167     37.270682     37.270682     74.541365
     -2.157157     32.795419     32.795419     65.590838
     -2.147147     28.216682     28.216682     56.433364
     -2.137137     24.079617     24.079617     48.159234
     -2.127127     20.682250     20.682250     41.364501
     -2.117117     18.018968     18.018968     36.037936
     -2.107107     15.848203     15.848203     31.696405
     -2.097097     13.848487     13.848487     27.696974
     -2.087087     11.781199     11.781199     23.562399
     -2.077077      9.582464      9.582464     19.164927
     -2.067067      7.354793      7.354793     14.709585
     -2.057057      5.286219      5.286219     10.572438
     -2.047047      3.555073      3.555073      7.110146
     -2.037037      2.270336      2.270336      4.540673
     -2.027027      1.465152      1.465152      2.930303
     -2.017017      1.129221      1.129221      2.258442
     -2.007007      1.250532      1.250532      2.501063
     -1.996997      1.839577      1.839577      3.679154
     -1.986987      2.922793      2.922793      5.845586
     -1.976977      4.508772      4.508772      9.017543
     -1.966967      6.545869      6.545869     13.091737
     -1.956957      8.897683      8.897683     17.795365
     -1.946947     11.357600     11.357600     22.715201
     -1.936937     13.703415     13.703415     27.406829
     -1.926927     15.767043     15.767043     31.534085
     -1.916917     17.480212     17.480212     34.960423
     -1.906907     18.868040     18.868040     37.736080
     -1.896897     19.994276     19.994276     39.988553
     -1.886887     20.892821     20.892821     41.785642
     -1.876877     21.528106     21.528106     43.056213
     -1.866867     21.807638     21.807638     43.615277
     -1.856857     21.638583     21.638583     43.277166
     -1.846847     20.996395     20.996395     41.992789
     -1.836837     19.967385     19.967385     39.934771
     -1.826827     18.738359     18.738359     37.476718
     -1.816817     17.530297     17.530297     35.060595
     -1.806807     16.502346     16.502346     33.004693
     -1.796797     15.674063     15.674063     31.348126
     -1.786787     14.911960     14.911960     29.823920
     -1.776777     13.995004     13.995004     27.990009
     -1.766767     12.728315     12.728315     25.456629
     -1.756757     11.044790     11.044790     22.089579
     -1.746747      9.042378      9.042378     18.084757
     -1.736737      6.944749      6.944749     13.889498
     -1.726727      5.016746      5.016746     10.033492
     -1.716717      3.484535      3.484535      6.969070
     -1.706707      2.495790      2.495790      4.991580
     -1.696697      2.122853      2.122853      4.245705
     -1.686687      2.384965      2.384965      4.769930
     -1.676677      3.259702      3.259702      6.519403
     -1.666667      4.668894      4.668894      9.337787
     -1.656657      6.449307      6.449307     12.898614
     -1.646647      8.337501      8.337501     16.675001
     -1.636637      9.998879      9.998879     19.997757
     -1.626627     11.109960     11.109960     22.219919
