# EIG2DOS: Utility for SIESTA to obtain the electronic density of states
#  E. Artacho, Apr 1999, A. Garcia, Apr 2012
#  Nick R. Papior, Feb 2017
# ------------------------------------------
# Eigenvalues calculated from a non-polarized calculation
# Eigenvalues read from siesta.EIG
# Kpoint weights read from siesta.KP
# Using smearing parameter:   0.0500
# Using 1000 points in the energy range
# Selected bands: 1 to: 2981
# Emin, Emax in file for selected band(s):    -27.1799164    218.3540310
# Nbands, Nspin, Nk   =   2981     1     1
# E_F                 =    -4.2578 eV --> (shifted to ZERO)
# Broadening          =     0.0500 eV
#
#        E            N(up)  (=)   N(down)         Ntot
     -5.000000     33.076587     33.076587     66.153175
     -4.989990     36.946556     36.946556     73.893111
     -4.979980     40.488164     40.488164     80.976328
     -4.969970     43.118889     43.118889     86.237778
     -4.959960     44.366591     44.366591     88.733182
     -4.949950     44.004264     44.004264     88.008528
     -4.939940     42.123451     42.123451     84.246902
     -4.929930     39.127038     39.127038     78.254076
     -4.919920     35.658556     35.658556     71.317112
     -4.909910     32.500483     32.500483     65.000967
     -4.899900     30.460218     30.460218     60.920436
     -4.889890     30.236940     30.236940     60.473879
     -4.879880     32.256994     32.256994     64.513987
     -4.869870     36.497419     36.497419     72.994838
     -4.859860     42.368651     42.368651     84.737302
     -4.849850     48.751258     48.751258     97.502516
     -4.839840     54.238904     54.238904    108.477807
     -4.829830     57.538066     57.538066    115.076132
     -4.819820     57.873856     57.873856    115.747713
     -4.809810     55.223070     55.223070    110.446140
     -4.799800     50.270270     50.270270    100.540539
     -4.789790     44.119530     44.119530     88.239060
     -4.779780     37.908431     37.908431     75.816862
     -4.769770     32.494566     32.494566     64.989132
     -4.759760     28.315890     28.315890     56.631779
     -4.749750     25.422263     25.422263     50.844525
     -4.739740     23.603942     23.603942     47.207883
     -4.729730     22.532427     22.532427     45.064854
     -4.719720     21.862443     21.862443     43.724886
     -4.709710     21.285404     21.285404     42.570808
     -4.699700     20.551459     20.551459     41.102919
     -4.689690     19.485074     19.485074     38.970149
     -4.679680     18.012434     18.012434     36.024868
     -4.669670     16.202709     16.202709     32.405419
     -4.659660     14.306661     14.306661     28.613323
     -4.649650     12.765339     12.765339     25.530678
     -4.639640     12.165276     12.165276     24.330551
     -4.629630     13.131919     13.131919     26.263837
     -4.619620     16.172446     16.172446     32.344893
     -4.609610     21.498782     21.498782     42.997565
     -4.599600     28.881158     28.881158     57.762316
     -4.589590     37.595579     37.595579     75.191157
     -4.579580     46.518571     46.518571     93.037142
     -4.569570     54.376628     54.376628    108.753256
     -4.559560     60.086802     60.086802    120.173603
     -4.549550     63.066903     63.066903    126.133806
     -4.539540     63.389427     63.389427    126.778854
     -4.529530     61.713244     61.713244    123.426488
     -4.519520     59.021520     59.021520    118.043041
     -4.509510     56.273454     56.273454    112.546908
     -4.499499     54.104457     54.104457    108.208914
     -4.489489     52.678021     52.678021    105.356042
     -4.479479     51.723314     51.723314    103.446629
     -4.469469     50.718080     50.718080    101.436159
     -4.459459     49.127052     49.127052     98.254104
     -4.449449     46.599746     46.599746     93.199492
     -4.439439     43.066392     43.066392     86.132785
     -4.429429     38.726131     38.726131     77.452263
     -4.419419     33.967023     33.967023     67.934046
     -4.409409     29.270482     29.270482     58.540965
     -4.399399     25.132301     25.132301     50.264602
     -4.389389     21.999609     21.999609     43.999218
     -4.379379     20.205969     20.205969     40.411938
     -4.369369     19.898796     19.898796     39.797592
     -4.359359     20.982124     20.982124     41.964248
     -4.349349     23.115319     23.115319     46.230639
     -4.339339     25.794138     25.794138     51.588275
     -4.329329     28.499612     28.499612     56.999224
     -4.319319     30.859725     30.859725     61.719450
     -4.309309     32.756337     32.756337     65.512675
     -4.299299     34.332839     34.332839     68.665679
     -4.289289     35.900127     35.900127     71.800254
     -4.279279     37.775963     37.775963     75.551927
     -4.269269     40.112574     40.112574     80.225147
     -4.259259     42.771652     42.771652     85.543305
     -4.249249     45.299498     45.299498     90.598996
     -4.239239     47.033099     47.033099     94.066198
     -4.229229     47.322691     47.322691     94.645382
     -4.219219     45.795862     45.795862     91.591723
     -4.209209     42.546319     42.546319     85.092638
     -4.199199     38.145792     38.145792     76.291584
     -4.189189     33.457575     33.457575     66.915150
     -4.179179     29.333698     29.333698     58.667396
     -4.169169     26.339374     26.339374     52.678747
     -4.159159     24.628491     24.628491     49.256982
     -4.149149     24.007956     24.007956     48.015913
     -4.139139     24.132471     24.132471     48.264943
     -4.129129     24.717694     24.717694     49.435389
     -4.119119     25.666411     25.666411     51.332823
     -4.109109     27.053803     27.053803     54.107606
     -4.099099     28.986713     28.986713     57.973427
     -4.089089     31.413571     31.413571     62.827143
     -4.079079     33.994023     33.994023     67.988047
     -4.069069     36.119905     36.119905     72.239810
     -4.059059     37.107416     37.107416     74.214833
     -4.049049     36.483244     36.483244     72.966489
     -4.039039     34.221976     34.221976     68.443953
     -4.029029     30.806581     30.806581     61.613163
     -4.019019     27.076641     27.076641     54.153281
     -4.009009     23.943549     23.943549     47.887099
     -3.998999     22.115130     22.115130     44.230260
     -3.988989     21.947864     21.947864     43.895728
     -3.978979     23.457731     23.457731     46.915462
     -3.968969     26.433298     26.433298     52.866597
     -3.958959     30.561383     30.561383     61.122765
     -3.948949     35.505670     35.505670     71.011341
     -3.938939     40.936625     40.936625     81.873249
     -3.928929     46.547574     46.547574     93.095147
     -3.918919     52.082941     52.082941    104.165882
     -3.908909     57.366921     57.366921    114.733842
     -3.898899     62.294807     62.294807    124.589613
     -3.888889     66.762998     66.762998    133.525997
     -3.878879     70.560337     70.560337    141.120673
     -3.868869     73.287223     73.287223    146.574446
     -3.858859     74.373988     74.373988    148.747976
     -3.848849     73.226356     73.226356    146.452711
     -3.838839     69.456249     69.456249    138.912498
     -3.828829     63.100726     63.100726    126.201453
     -3.818819     54.723902     54.723902    109.447804
     -3.808809     45.342864     45.342864     90.685728
     -3.798799     36.194853     36.194853     72.389706
     -3.788789     28.429233     28.429233     56.858465
     -3.778779     22.832237     22.832237     45.664474
     -3.768769     19.669427     19.669427     39.338854
     -3.758759     18.679840     18.679840     37.359681
     -3.748749     19.205019     19.205019     38.410037
     -3.738739     20.403919     20.403919     40.807838
     -3.728729     21.493605     21.493605     42.987209
     -3.718719     21.958506     21.958506     43.917012
     -3.708709     21.680891     21.680891     43.361782
     -3.698699     20.959980     20.959980     41.919961
     -3.688689     20.408648     20.408648     40.817297
     -3.678679     20.746117     20.746117     41.492234
     -3.668669     22.539210     22.539210     45.078419
     -3.658659     25.972703     25.972703     51.945406
     -3.648649     30.734630     30.734630     61.469260
     -3.638639     36.071243     36.071243     72.142486
     -3.628629     41.001714     41.001714     82.003427
     -3.618619     44.611677     44.611677     89.223354
     -3.608609     46.307961     46.307961     92.615922
     -3.598599     45.940157     45.940157     91.880314
     -3.588589     43.765245     43.765245     87.530490
     -3.578579     40.303535     40.303535     80.607071
     -3.568569     36.164109     36.164109     72.328219
     -3.558559     31.898907     31.898907     63.797814
     -3.548549     27.906742     27.906742     55.813485
     -3.538539     24.386547     24.386547     48.773095
     -3.528529     21.339961     21.339961     42.679922
     -3.518519     18.626886     18.626886     37.253771
     -3.508509     16.064592     16.064592     32.129184
     -3.498498     13.536548     13.536548     27.073097
     -3.488488     11.064761     11.064761     22.129522
     -3.478478      8.814660      8.814660     17.629319
     -3.468468      7.035448      7.035448     14.070896
     -3.458458      5.967096      5.967096     11.934192
     -3.448448      5.751593      5.751593     11.503186
     -3.438438      6.374888      6.374888     12.749775
     -3.428428      7.652526      7.652526     15.305051
     -3.418418      9.264805      9.264805     18.529610
     -3.408408     10.840755     10.840755     21.681509
     -3.398398     12.075227     12.075227     24.150454
     -3.388388     12.842218     12.842218     25.684436
     -3.378378     13.256317     13.256317     26.512633
     -3.368368     13.648632     13.648632     27.297264
     -3.358358     14.461036     14.461036     28.922071
     -3.348348     16.100259     16.100259     32.200519
     -3.338338     18.805659     18.805659     37.611318
     -3.328328     22.565679     22.565679     45.131357
     -3.318318     27.088452     27.088452     54.176903
     -3.308308     31.819074     31.819074     63.638147
     -3.298298     36.007073     36.007073     72.014146
     -3.288288     38.840084     38.840084     77.680168
     -3.278278     39.643639     39.643639     79.287277
     -3.268268     38.099570     38.099570     76.199141
     -3.258258     34.392513     34.392513     68.785027
     -3.248248     29.200491     29.200491     58.400982
     -3.238238     23.511473     23.511473     47.022947
     -3.228228     18.333449     18.333449     36.666899
     -3.218218     14.414224     14.414224     28.828447
     -3.208208     12.072254     12.072254     24.144509
     -3.198198     11.181325     11.181325     22.362649
     -3.188188     11.291063     11.291063     22.582126
     -3.178178     11.829032     11.829032     23.658063
     -3.168168     12.318930     12.318930     24.637859
     -3.158158     12.552702     12.552702     25.105405
     -3.148148     12.667120     12.667120     25.334240
     -3.138138     13.099575     13.099575     26.199150
     -3.128128     14.431990     14.431990     28.863981
     -3.118118     17.166584     17.166584     34.333167
     -3.108108     21.501520     21.501520     43.003041
     -3.098098     27.181532     27.181532     54.363063
     -3.088088     33.485200     33.485200     66.970400
     -3.078078     39.374203     39.374203     78.748406
     -3.068068     43.772411     43.772411     87.544823
     -3.058058     45.881821     45.881821     91.763642
     -3.048048     45.411157     45.411157     90.822314
     -3.038038     42.621187     42.621187     85.242374
     -3.028028     38.175239     38.175239     76.350478
     -3.018018     32.879331     32.879331     65.758662
     -3.008008     27.443890     27.443890     54.887780
     -2.997998     22.368483     22.368483     44.736967
     -2.987988     17.966798     17.966798     35.933595
     -2.977978     14.470067     14.470067     28.940134
     -2.967968     12.119981     12.119981     24.239961
     -2.957958     11.190259     11.190259     22.380518
     -2.947948     11.927809     11.927809     23.855619
     -2.937938     14.445315     14.445315     28.890630
     -2.927928     18.614210     18.614210     37.228421
     -2.917918     24.005800     24.005800     48.011599
     -2.907908     29.916127     29.916127     59.832253
     -2.897898     35.487013     35.487013     70.974026
     -2.887888     39.900842     39.900842     79.801683
     -2.877878     42.589621     42.589621     85.179243
     -2.867868     43.379550     43.379550     86.759100
     -2.857858     42.507898     42.507898     85.015795
     -2.847848     40.499237     40.499237     80.998474
     -2.837838     37.950960     37.950960     75.901920
     -2.827828     35.321059     35.321059     70.642118
     -2.817818     32.809798     32.809798     65.619597
     -2.807808     30.379561     30.379561     60.759122
     -2.797798     27.887404     27.887404     55.774808
     -2.787788     25.249499     25.249499     50.498998
     -2.777778     22.545469     22.545469     45.090938
     -2.767768     20.009555     20.009555     40.019110
     -2.757758     17.922560     17.922560     35.845119
     -2.747748     16.475501     16.475501     32.951003
     -2.737738     15.690020     15.690020     31.380040
     -2.727728     15.443098     15.443098     30.886196
     -2.717718     15.576600     15.576600     31.153200
     -2.707708     16.016572     16.016572     32.033144
     -2.697698     16.819400     16.819400     33.638800
     -2.687688     18.109404     18.109404     36.218808
     -2.677678     19.946635     19.946635     39.893270
     -2.667668     22.215630     22.215630     44.431260
     -2.657658     24.618245     24.618245     49.236491
     -2.647648     26.787569     26.787569     53.575137
     -2.637638     28.458023     28.458023     56.916046
     -2.627628     29.585955     29.585955     59.171909
     -2.617618     30.345848     30.345848     60.691696
     -2.607608     31.009083     31.009083     62.018165
     -2.597598     31.785854     31.785854     63.571707
     -2.587588     32.723902     32.723902     65.447805
     -2.577578     33.705540     33.705540     67.411080
     -2.567568     34.513683     34.513683     69.027365
     -2.557558     34.905395     34.905395     69.810790
     -2.547548     34.656477     34.656477     69.312955
     -2.537538     33.589797     33.589797     67.179594
     -2.527528     31.621981     31.621981     63.243962
     -2.517518     28.836951     28.836951     57.673903
     -2.507508     25.547597     25.547597     51.095193
     -2.497497     22.285916     22.285916     44.571833
     -2.487487     19.690696     19.690696     39.381393
     -2.477477     18.321263     18.321263     36.642525
     -2.467467     18.474335     18.474335     36.948671
     -2.457457     20.087566     20.087566     40.175131
     -2.447447     22.776046     22.776046     45.552092
     -2.437437     25.988124     25.988124     51.976249
     -2.427427     29.212772     29.212772     58.425544
     -2.417417     32.146251     32.146251     64.292503
     -2.407407     34.742716     34.742716     69.485433
     -2.397397     37.126615     37.126615     74.253230
     -2.387387     39.411858     39.411858     78.823715
     -2.377377     41.521908     41.521908     83.043816
     -2.367367     43.110402     43.110402     86.220805
     -2.357357     43.637317     43.637317     87.274634
     -2.347347     42.579437     42.579437     85.158874
     -2.337337     39.682708     39.682708     79.365415
     -2.327327     35.136604     35.136604     70.273208
     -2.317317     29.585049     29.585049     59.170099
     -2.307307     23.967413     23.967413     47.934826
     -2.297297     19.261590     19.261590     38.523179
     -2.287287     16.235568     16.235568     32.471136
     -2.277277     15.291826     15.291826     30.583652
     -2.267267     16.433941     16.433941     32.867881
     -2.257257     19.333607     19.333607     38.667215
     -2.247247     23.451331     23.451331     46.902663
     -2.237237     28.164565     28.164565     56.329130
     -2.227227     32.870449     32.870449     65.740897
     -2.217217     37.047020     37.047020     74.094040
     -2.207207     40.274357     40.274357     80.548713
     -2.197197     42.233942     42.233942     84.467883
     -2.187187     42.713732     42.713732     85.427465
     -2.177177     41.638619     41.638619     83.277239
     -2.167167     39.119710     39.119710     78.239420
     -2.157157     35.485426     35.485426     70.970853
     -2.147147     31.247741     31.247741     62.495483
     -2.137137     26.984239     26.984239     53.968478
     -2.127127     23.170111     23.170111     46.340222
     -2.117117     20.037214     20.037214     40.074428
     -2.107107     17.534450     17.534450     35.068901
     -2.097097     15.410959     15.410959     30.821918
     -2.087087     13.374665     13.374665     26.749330
     -2.077077     11.240281     11.240281     22.480561
     -2.067067      8.996396      8.996396     17.992792
     -2.057057      6.775509      6.775509     13.551018
     -2.047047      4.764391      4.764391      9.528781
     -2.037037      3.113141      3.113141      6.226281
     -2.027027      1.885232      1.885232      3.770463
     -2.017017      1.057500      1.057500      2.115000
     -2.007007      0.552690      0.552690      1.105379
     -1.996997      0.279713      0.279713      0.559425
     -1.986987      0.164759      0.164759      0.329517
     -1.976977      0.168783      0.168783      0.337567
     -1.966967      0.294915      0.294915      0.589831
     -1.956957      0.590125      0.590125      1.180251
     -1.946947      1.141446      1.141446      2.282892
     -1.936937      2.062511      2.062511      4.125021
     -1.926927      3.465570      3.465570      6.931140
     -1.916917      5.419772      5.419772     10.839543
     -1.906907      7.906668      7.906668     15.813336
     -1.896897     10.792596     10.792596     21.585193
     -1.886887     13.837217     13.837217     27.674435
     -1.876877     16.744974     16.744974     33.489948
     -1.866867     19.246544     19.246544     38.493087
     -1.856857     21.181000     21.181000     42.362000
     -1.846847     22.544889     22.544889     45.089778
     -1.836837     23.483454     23.483454     46.966907
     -1.826827     24.218678     24.218678     48.437356
     -1.816817     24.934226     24.934226     49.868452
     -1.806807     25.662133     25.662133     51.324266
     -1.796797     26.227616     26.227616     52.455232
     -1.786787     26.292198     26.292198     52.584395
     -1.776777     25.489817     25.489817     50.979634
     -1.766767     23.597345     23.597345     47.194691
     -1.756757     20.655190     20.655190     41.310379
     -1.746747     16.977107     16.977107     33.954214
     -1.736737     13.048531     13.048531     26.097063
     -1.726727      9.370682      9.370682     18.741364
     -1.716717      6.327525      6.327525     12.655051
     -1.706707      4.127248      4.127248      8.254496
     -1.696697      2.821754      2.821754      5.643507
     -1.686687      2.368335      2.368335      4.736670
     -1.676677      2.686035      2.686035      5.372069
     -1.666667      3.674741      3.674741      7.349483
     -1.656657      5.194658      5.194658     10.389317
     -1.646647      7.031404      7.031404     14.062807
     -1.636637      8.884553      8.884553     17.769107
     -1.626627     10.407989     10.407989     20.815978
