# EIG2DOS: Utility for SIESTA to obtain the electronic density of states
#  E. Artacho, Apr 1999, A. Garcia, Apr 2012
#  Nick R. Papior, Feb 2017
# ------------------------------------------
# Eigenvalues calculated from a non-polarized calculation
# Eigenvalues read from siesta.EIG
# Kpoint weights read from siesta.KP
# Using smearing parameter:   0.0500
# Using 1000 points in the energy range
# Selected bands: 1 to: 2981
# Emin, Emax in file for selected band(s):    -27.0983666    218.3569880
# Nbands, Nspin, Nk   =   2981     1     1
# E_F                 =    -4.2536 eV --> (shifted to ZERO)
# Broadening          =     0.0500 eV
#
#        E            N(up)  (=)   N(down)         Ntot
     -5.000000     34.698892     34.698892     69.397785
     -4.989990     38.407147     38.407147     76.814295
     -4.979980     41.466128     41.466128     82.932255
     -4.969970     43.400086     43.400086     86.800172
     -4.959960     43.895293     43.895293     87.790587
     -4.949950     42.889872     42.889872     85.779744
     -4.939940     40.600672     40.600672     81.201344
     -4.929930     37.489147     37.489147     74.978293
     -4.919920     34.191861     34.191861     68.383722
     -4.909910     31.439495     31.439495     62.878990
     -4.899900     29.965135     29.965135     59.930271
     -4.889890     30.381679     30.381679     60.763358
     -4.879880     33.016457     33.016457     66.032914
     -4.869870     37.735477     37.735477     75.470954
     -4.859860     43.841990     43.841990     87.683979
     -4.849850     50.146020     50.146020    100.292041
     -4.839840     55.242415     55.242415    110.484830
     -4.829830     57.925142     57.925142    115.850283
     -4.819820     57.572157     57.572157    115.144314
     -4.809810     54.326986     54.326986    108.653973
     -4.799800     48.996694     48.996694     97.993389
     -4.789790     42.727032     42.727032     85.454064
     -4.779780     36.616283     36.616283     73.232565
     -4.769770     31.432138     31.432138     62.864275
     -4.759760     27.513111     27.513111     55.026223
     -4.749750     24.832482     24.832482     49.664964
     -4.739740     23.141742     23.141742     46.283483
     -4.729730     22.110827     22.110827     44.221653
     -4.719720     21.420116     21.420116     42.840232
     -4.709710     20.800000     20.800000     41.600000
     -4.699700     20.039162     20.039162     40.078324
     -4.689690     18.990387     18.990387     37.980773
     -4.679680     17.595243     17.595243     35.190486
     -4.669670     15.929525     15.929525     31.859049
     -4.659660     14.248238     14.248238     28.496476
     -4.649650     12.995583     12.995583     25.991167
     -4.639640     12.750819     12.750819     25.501639
     -4.629630     14.102432     14.102432     28.204863
     -4.619620     17.470772     17.470772     34.941544
     -4.609610     22.925293     22.925293     45.850586
     -4.599600     30.061695     30.061695     60.123390
     -4.589590     38.007194     38.007194     76.014389
     -4.579580     45.594175     45.594175     91.188351
     -4.569570     51.678583     51.678583    103.357167
     -4.559560     55.501323     55.501323    111.002645
     -4.549550     56.943932     56.943932    113.887864
     -4.539540     56.553956     56.553956    113.107913
     -4.529530     55.311582     55.311582    110.623164
     -4.519520     54.230851     54.230851    108.461702
     -4.509510     53.968779     53.968779    107.937558
     -4.499499     54.608553     54.608553    109.217106
     -4.489489     55.693538     55.693538    111.387076
     -4.479479     56.468471     56.468471    112.936942
     -4.469469     56.198313     56.198313    112.396627
     -4.459459     54.423803     54.423803    108.847605
     -4.449449     51.069817     51.069817    102.139635
     -4.439439     46.406154     46.406154     92.812307
     -4.429429     40.922462     40.922462     81.844924
     -4.419419     35.194109     35.194109     70.388218
     -4.409409     29.788106     29.788106     59.576213
     -4.399399     25.213413     25.213413     50.426825
     -4.389389     21.887482     21.887482     43.774963
     -4.379379     20.089514     20.089514     40.179029
     -4.369369     19.898150     19.898150     39.796300
     -4.359359     21.145224     21.145224     42.290448
     -4.349349     23.429814     23.429814     46.859627
     -4.339339     26.214515     26.214515     52.429029
     -4.329329     28.980959     28.980959     57.961918
     -4.319319     31.383850     31.383850     62.767701
     -4.309309     33.337920     33.337920     66.675839
     -4.299299     35.002415     35.002415     70.004830
     -4.289289     36.672340     36.672340     73.344679
     -4.279279     38.619211     38.619211     77.238421
     -4.269269     40.936083     40.936083     81.872165
     -4.259259     43.438503     43.438503     86.877006
     -4.249249     45.663091     45.663091     91.326181
     -4.239239     46.984801     46.984801     93.969601
     -4.229229     46.833228     46.833228     93.666456
     -4.219219     44.934051     44.934051     89.868103
     -4.209209     41.466062     41.466062     82.932124
     -4.199199     37.044077     37.044077     74.088153
     -4.189189     32.518240     32.518240     65.036481
     -4.179179     28.677995     28.677995     57.355991
     -4.169169     26.001305     26.001305     52.002610
     -4.159159     24.561926     24.561926     49.123853
     -4.149149     24.119552     24.119552     48.239105
     -4.139139     24.325470     24.325470     48.650940
     -4.129129     24.929272     24.929272     49.858544
     -4.119119     25.884507     25.884507     51.769015
     -4.109109     27.306795     27.306795     54.613591
     -4.099099     29.310069     29.310069     58.620139
     -4.089089     31.809317     31.809317     63.618634
     -4.079079     34.405747     34.405747     68.811494
     -4.069069     36.441345     36.441345     72.882690
     -4.059059     37.225333     37.225333     74.450666
     -4.049049     36.333980     36.333980     72.667960
     -4.039039     33.830065     33.830065     67.660130
     -4.029029     30.282216     30.282216     60.564432
     -4.019019     26.572476     26.572476     53.144953
     -4.009009     23.594777     23.594777     47.189555
     -3.998999     21.994517     21.994517     43.989035
     -3.988989     22.055532     22.055532     44.111064
     -3.978979     23.743378     23.743378     47.486756
     -3.968969     26.831742     26.831742     53.663485
     -3.958959     31.020400     31.020400     62.040800
     -3.948949     35.996298     35.996298     71.992596
     -3.938939     41.449703     41.449703     82.899407
     -3.928929     47.086201     47.086201     94.172401
     -3.918919     52.656598     52.656598    105.313197
     -3.908909     57.985665     57.985665    115.971331
     -3.898899     62.959091     62.959091    125.918182
     -3.888889     67.448874     67.448874    134.897748
     -3.878879     71.206610     71.206610    142.413220
     -3.868869     73.794184     73.794184    147.588368
     -3.858859     74.619829     74.619829    149.239657
     -3.848849     73.099532     73.099532    146.199065
     -3.838839     68.894140     68.894140    137.788279
     -3.828829     62.120571     62.120571    124.241143
     -3.818819     53.432858     53.432858    106.865716
     -3.808809     43.920256     43.920256     87.840513
     -3.798799     34.849756     34.849756     69.699512
     -3.788789     27.346451     27.346451     54.692903
     -3.778779     22.124902     22.124902     44.249803
     -3.768769     19.354023     19.354023     38.708046
     -3.758759     18.680899     18.680899     37.361798
     -3.748749     19.386230     19.386230     38.772460
     -3.738739     20.614507     20.614507     41.229013
     -3.728729     21.615570     21.615570     43.231140
     -3.718719     21.941438     21.941438     43.882877
     -3.708709     21.555002     21.555002     43.110003
     -3.698699     20.823572     20.823572     41.647144
     -3.688689     20.392754     20.392754     40.785508
     -3.678679     20.965989     20.965989     41.931978
     -3.668669     23.048100     23.048100     46.096200
     -3.658659     26.735153     26.735153     53.470307
     -3.648649     31.631270     31.631270     63.262540
     -3.638639     36.934913     36.934913     73.869827
     -3.628629     41.670383     41.670383     83.340766
     -3.618619     44.975400     44.975400     89.950800
     -3.608609     46.331021     46.331021     92.662041
     -3.598599     45.653800     45.653800     91.307600
     -3.588589     43.241647     43.241647     86.483294
     -3.578579     39.627775     39.627775     79.255549
     -3.568569     35.415473     35.415473     70.830947
     -3.558559     31.142352     31.142352     62.284705
     -3.548549     27.189114     27.189114     54.378228
     -3.538539     23.733788     23.733788     47.467577
     -3.528529     20.756829     20.756829     41.513657
     -3.518519     18.102822     18.102822     36.205644
     -3.508509     15.586016     15.586016     31.172031
     -3.498498     13.100493     13.100493     26.200986
     -3.488488     10.686794     10.686794     21.373588
     -3.478478      8.526986      8.526986     17.053972
     -3.468468      6.876235      6.876235     13.752471
     -3.458458      5.965502      5.965502     11.931004
     -3.448448      5.913510      5.913510     11.827020
     -3.438438      6.673640      6.673640     13.347281
     -3.428428      8.028220      8.028220     16.056441
     -3.418418      9.635129      9.635129     19.270258
     -3.408408     11.122984     11.122984     22.245969
     -3.398398     12.213918     12.213918     24.427835
     -3.388388     12.832467     12.832467     25.664933
     -3.378378     13.152564     13.152564     26.305129
     -3.368368     13.554580     13.554580     27.109161
     -3.358358     14.503956     14.503956     29.007912
     -3.348348     16.397612     16.397612     32.795225
     -3.338338     19.431550     19.431550     38.863100
     -3.328328     23.522267     23.522267     47.044533
     -3.318318     28.287497     28.287497     56.574994
     -3.308308     33.081814     33.081814     66.163629
     -3.298298     37.091078     37.091078     74.182157
     -3.288288     39.493272     39.493272     78.986545
     -3.278278     39.669063     39.669063     79.338125
     -3.268268     37.400446     37.400446     74.800892
     -3.258258     32.968729     32.968729     65.937458
     -3.248248     27.089911     27.089911     54.179822
     -3.238238     20.701507     20.701507     41.403014
     -3.228228     14.691682     14.691682     29.383364
     -3.218218      9.686425      9.686425     19.372850
     -3.208208      5.969810      5.969810     11.939620
     -3.198198      3.539023      3.539023      7.078045
     -3.188188      2.238093      2.238093      4.476185
     -3.178178      1.898485      1.898485      3.796969
     -3.168168      2.434155      2.434155      4.868310
     -3.158158      3.869852      3.869852      7.739703
     -3.148148      6.306247      6.306247     12.612493
     -3.138138      9.840267      9.840267     19.680535
     -3.128128     14.468170     14.468170     28.936339
     -3.118118     20.004861     20.004861     40.009721
     -3.108108     26.052568     26.052568     52.105136
     -3.098098     32.040412     32.040412     64.080823
     -3.088088     37.333532     37.333532     74.667065
     -3.078078     41.382362     41.382362     82.764724
     -3.068068     43.860027     43.860027     87.720055
     -3.058058     44.730790     44.730790     89.461581
     -3.048048     44.213757     44.213757     88.427514
     -3.038038     42.652432     42.652432     85.304864
     -3.028028     40.352729     40.352729     80.705458
     -3.018018     37.477139     37.477139     74.954278
     -3.008008     34.056334     34.056334     68.112669
     -2.997998     30.110206     30.110206     60.220413
     -2.987988     25.801765     25.801765     51.603529
     -2.977978     21.527046     21.527046     43.054091
     -2.967968     17.884591     17.884591     35.769183
     -2.957958     15.536841     15.536841     31.073681
     -2.947948     15.025249     15.025249     30.050497
     -2.937938     16.607667     16.607667     33.215333
     -2.927928     20.163245     20.163245     40.326491
     -2.917918     25.184236     25.184236     50.368473
     -2.907908     30.858733     30.858733     61.717466
     -2.897898     36.235916     36.235916     72.471832
     -2.887888     40.443755     40.443755     80.887511
     -2.877878     42.901218     42.901218     85.802435
     -2.867868     43.452013     43.452013     86.904025
     -2.857858     42.363970     42.363970     84.727940
     -2.847848     40.188383     40.188383     80.376765
     -2.837838     37.535156     37.535156     75.070313
     -2.827828     34.859505     34.859505     69.719009
     -2.817818     32.350223     32.350223     64.700445
     -2.807808     29.958620     29.958620     59.917239
     -2.797798     27.536588     27.536588     55.073177
     -2.787788     24.999613     24.999613     49.999226
     -2.777778     22.424135     22.424135     44.848270
     -2.767768     20.031692     20.031692     40.063384
     -2.757758     18.080035     18.080035     36.160070
     -2.747748     16.735012     16.735012     33.470023
     -2.737738     16.004977     16.004977     32.009953
     -2.727728     15.776665     15.776665     31.553330
     -2.717718     15.923778     15.923778     31.847557
     -2.707708     16.409942     16.409942     32.819883
     -2.697698     17.310043     17.310043     34.620087
     -2.687688     18.729446     18.729446     37.458891
     -2.677678     20.673936     20.673936     41.347871
     -2.667668     22.964123     22.964123     45.928246
     -2.657658     25.264780     25.264780     50.529559
     -2.647648     27.224238     27.224238     54.448477
     -2.637638     28.641788     28.641788     57.283575
     -2.627628     29.557356     29.557356     59.114713
     -2.617618     30.206825     30.206825     60.413650
     -2.607608     30.874161     30.874161     61.748323
     -2.597598     31.734657     31.734657     63.469314
     -2.587588     32.777462     32.777462     65.554923
     -2.577578     33.830581     33.830581     67.661163
     -2.567568     34.643026     34.643026     69.286052
     -2.557558     34.959889     34.959889     69.919777
     -2.547548     34.562787     34.562787     69.125574
     -2.537538     33.297476     33.297476     66.594951
     -2.527528     31.123125     31.123125     62.246250
     -2.517518     28.183307     28.183307     56.366613
     -2.507508     24.852822     24.852822     49.705645
     -2.497497     21.703281     21.703281     43.406562
     -2.487487     19.368512     19.368512     38.737024
     -2.477477     18.351734     18.351734     36.703468
     -2.467467     18.857378     18.857378     37.714755
     -2.457457     20.726049     20.726049     41.452098
     -2.447447     23.505766     23.505766     47.011532
     -2.437437     26.630993     26.630993     53.261986
     -2.427427     29.631983     29.631983     59.263967
     -2.417417     32.281938     32.281938     64.563876
     -2.407407     34.615950     34.615950     69.231899
     -2.397397     36.813845     36.813845     73.627690
     -2.387387     39.003887     39.003887     78.007774
     -2.377377     41.085938     41.085938     82.171875
     -2.367367     42.669807     42.669807     85.339615
     -2.357357     43.174724     43.174724     86.349448
     -2.347347     42.058595     42.058595     84.117190
     -2.337337     39.077275     39.077275     78.154550
     -2.327327     34.452003     34.452003     68.904006
     -2.317317     28.864012     28.864012     57.728024
     -2.307307     23.278707     23.278707     46.557414
     -2.297297     18.679739     18.679739     37.359478
     -2.287287     15.822239     15.822239     31.644477
     -2.277277     15.085831     15.085831     30.171663
     -2.267267     16.450016     16.450016     32.900031
     -2.257257     19.565360     19.565360     39.130720
     -2.247247     23.873703     23.873703     47.747406
     -2.237237     28.734385     28.734385     57.468771
     -2.227227     33.526900     33.526900     67.053799
     -2.217217     37.714767     37.714767     75.429534
     -2.207207     40.870976     40.870976     81.741952
     -2.197197     42.681623     42.681623     85.363245
     -2.187187     42.953848     42.953848     85.907696
     -2.177177     41.646152     41.646152     83.292305
     -2.167167     38.912460     38.912460     77.824920
     -2.157157     35.122052     35.122052     70.244105
     -2.147147     30.811494     30.811494     61.622988
     -2.137137     26.556073     26.556073     53.112145
     -2.127127     22.801995     22.801995     45.603990
     -2.117117     19.738392     19.738392     39.476785
     -2.107107     17.277431     17.277431     34.554862
     -2.097097     15.153308     15.153308     30.306615
     -2.087087     13.084257     13.084257     26.168514
     -2.077077     10.910976     10.910976     21.821952
     -2.067067      8.648077      8.648077     17.296153
     -2.057057      6.441733      6.441733     12.883466
     -2.047047      4.476566      4.476566      8.953131
     -2.037037      2.889537      2.889537      5.779073
     -2.027027      1.728324      1.728324      3.456648
     -2.017017      0.958059      0.958059      1.916118
     -2.007007      0.496632      0.496632      0.993264
     -1.996997      0.254307      0.254307      0.508615
     -1.986987      0.162760      0.162760      0.325521
     -1.976977      0.190723      0.190723      0.381446
     -1.966967      0.350188      0.350188      0.700377
     -1.956957      0.696823      0.696823      1.393646
     -1.946947      1.323815      1.323815      2.647631
     -1.936937      2.344523      2.344523      4.689046
     -1.926927      3.860109      3.860109      7.720219
     -1.916917      5.915365      5.915365     11.830730
     -1.906907      8.456068      8.456068     16.912135
     -1.896897     11.307717     11.307717     22.615435
     -1.886887     14.191739     14.191739     28.383477
     -1.876877     16.781091     16.781091     33.562183
     -1.866867     18.780476     18.780476     37.560953
     -1.856857     20.006800     20.006800     40.013599
     -1.846847     20.446524     20.446524     40.893047
     -1.836837     20.272871     20.272871     40.545741
     -1.826827     19.811915     19.811915     39.623831
     -1.816817     19.454486     19.454486     38.908972
     -1.806807     19.527361     19.527361     39.054722
     -1.796797     20.161866     20.161866     40.323732
     -1.786787     21.215644     21.215644     42.431288
     -1.776777     22.294562     22.294562     44.589124
     -1.766767     22.881331     22.881331     45.762662
     -1.756757     22.524392     22.524392     45.048784
     -1.746747     21.007102     21.007102     42.014205
     -1.736737     18.425359     18.425359     36.850719
     -1.726727     15.147634     15.147634     30.295267
     -1.716717     11.687487     11.687487     23.374974
     -1.706707      8.553040      8.553040     17.106080
     -1.696697      6.134265      6.134265     12.268530
     -1.686687      4.655311      4.655311      9.310622
     -1.676677      4.179723      4.179723      8.359446
     -1.666667      4.635532      4.635532      9.271063
     -1.656657      5.834031      5.834031     11.668062
     -1.646647      7.481121      7.481121     14.962242
     -1.636637      9.202337      9.202337     18.404675
     -1.626627     10.604143     10.604143     21.208286
