# EIG2DOS: Utility for SIESTA to obtain the electronic density of states
#  E. Artacho, Apr 1999, A. Garcia, Apr 2012
#  Nick R. Papior, Feb 2017
# ------------------------------------------
# Eigenvalues calculated from a non-polarized calculation
# Eigenvalues read from siesta.EIG
# Kpoint weights read from siesta.KP
# Using smearing parameter:   0.0500
# Using 1000 points in the energy range
# Selected bands: 1 to: 2981
# Emin, Emax in file for selected band(s):    -27.0822278    218.3501380
# Nbands, Nspin, Nk   =   2981     1     1
# E_F                 =    -4.2564 eV --> (shifted to ZERO)
# Broadening          =     0.0500 eV
#
#        E            N(up)  (=)   N(down)         Ntot
     -5.000000     33.640370     33.640370     67.280740
     -4.989990     37.458723     37.458723     74.917446
     -4.979980     40.867791     40.867791     81.735582
     -4.969970     43.298642     43.298642     86.597284
     -4.959960     44.314836     44.314836     88.629672
     -4.949950     43.736900     43.736900     87.473800
     -4.939940     41.701325     41.701325     83.402650
     -4.929930     38.641742     38.641742     77.283484
     -4.919920     35.213643     35.213643     70.427286
     -4.909910     32.194271     32.194271     64.388542
     -4.899900     30.371825     30.371825     60.743650
     -4.889890     30.413328     30.413328     60.826656
     -4.879880     32.699366     32.699366     65.398732
     -4.869870     37.150243     37.150243     74.300485
     -4.859860     43.119518     43.119518     86.239037
     -4.849850     49.449298     49.449298     98.898595
     -4.839840     54.731630     54.731630    109.463260
     -4.829830     57.715432     57.715432    115.430864
     -4.819820     57.701419     57.701419    115.402838
     -4.809810     54.749244     54.749244    109.498489
     -4.799800     49.604688     49.604688     99.209377
     -4.789790     43.393300     43.393300     86.786599
     -4.779780     37.234216     37.234216     74.468432
     -4.769770     31.941446     31.941446     63.882891
     -4.759760     27.904218     27.904218     55.808436
     -4.749750     25.134240     25.134240     50.268481
     -4.739740     23.401205     23.401205     46.802410
     -4.729730     22.372972     22.372972     44.745944
     -4.719720     21.712619     21.712619     43.425239
     -4.709710     21.125843     21.125843     42.251685
     -4.699700     20.377815     20.377815     40.755630
     -4.689690     19.305690     19.305690     38.611380
     -4.679680     17.845477     17.845477     35.690954
     -4.669670     16.074444     16.074444     32.148888
     -4.659660     14.250296     14.250296     28.500593
     -4.649650     12.817205     12.817205     25.634410
     -4.639640     12.353562     12.353562     24.707125
     -4.629630     13.454247     13.454247     26.908494
     -4.619620     16.562915     16.562915     33.125830
     -4.609610     21.792219     21.792219     43.584439
     -4.599600     28.789849     28.789849     57.579698
     -4.589590     36.718002     36.718002     73.436004
     -4.579580     44.396755     44.396755     88.793509
     -4.569570     50.606741     50.606741    101.213483
     -4.559560     54.467613     54.467613    108.935226
     -4.549550     55.747635     55.747635    111.495271
     -4.539540     54.961031     54.961031    109.922062
     -4.529530     53.186835     53.186835    106.373669
     -4.519520     51.664054     51.664054    103.328108
     -4.509510     51.322324     51.322324    102.644648
     -4.499499     52.440905     52.440905    104.881811
     -4.489489     54.573693     54.573693    109.147386
     -4.479479     56.759757     56.759757    113.519513
     -4.469469     57.914920     57.914920    115.829839
     -4.459459     57.229837     57.229837    114.459673
     -4.449449     54.416092     54.416092    108.832184
     -4.439439     49.730394     49.730394     99.460788
     -4.429429     43.816167     43.816167     87.632334
     -4.419419     37.472240     37.472240     74.944480
     -4.409409     31.458217     31.458217     62.916434
     -4.399399     26.388758     26.388758     52.777516
     -4.389389     22.700468     22.700468     45.400937
     -4.379379     20.641444     20.641444     41.282887
     -4.369369     20.249829     20.249829     40.499658
     -4.359359     21.331159     21.331159     42.662318
     -4.349349     23.474439     23.474439     46.948879
     -4.339339     26.138052     26.138052     52.276105
     -4.329329     28.795351     28.795351     57.590702
     -4.319319     31.087702     31.087702     62.175404
     -4.309309     32.919918     32.919918     65.839837
     -4.299299     34.456371     34.456371     68.912743
     -4.289289     36.018078     36.018078     72.036157
     -4.279279     37.917510     37.917510     75.835020
     -4.269269     40.286724     40.286724     80.573449
     -4.259259     42.958271     42.958271     85.916542
     -4.249249     45.450982     45.450982     90.901964
     -4.239239     47.088688     47.088688     94.177377
     -4.229229     47.231964     47.231964     94.463928
     -4.219219     45.542101     45.542101     91.084202
     -4.209209     42.158332     42.158332     84.316664
     -4.199199     37.691192     37.691192     75.382384
     -4.189189     33.019799     33.019799     66.039597
     -4.179179     28.983483     28.983483     57.966966
     -4.169169     26.113756     26.113756     52.227513
     -4.159159     24.525518     24.525518     49.051035
     -4.149149     23.996965     23.996965     47.993930
     -4.139139     24.173024     24.173024     48.346049
     -4.129129     24.777843     24.777843     49.555687
     -4.119119     25.732725     25.732725     51.465450
     -4.109109     27.129765     27.129765     54.259531
     -4.099099     29.081236     29.081236     58.162473
     -4.089089     31.526080     31.526080     63.052160
     -4.079079     34.104901     34.104901     68.209802
     -4.069069     36.193026     36.193026     72.386052
     -4.059059     37.104977     37.104977     74.209954
     -4.049049     36.385481     36.385481     72.770962
     -4.039039     34.040588     34.040588     68.081176
     -4.029029     30.583835     30.583835     61.167670
     -4.019019     26.870453     26.870453     53.740906
     -4.009009     23.806835     23.806835     47.613671
     -3.998999     22.080169     22.080169     44.160338
     -3.988989     22.022218     22.022218     44.044435
     -3.978979     23.630768     23.630768     47.261536
     -3.968969     26.686903     26.686903     53.373805
     -3.958959     30.878010     30.878010     61.756021
     -3.948949     35.870872     35.870872     71.741744
     -3.938939     41.337718     41.337718     82.675437
     -3.928929     46.972034     46.972034     93.944067
     -3.918919     52.518571     52.518571    105.037142
     -3.908909     57.803113     57.803113    115.606225
     -3.898899     62.722658     62.722658    125.445316
     -3.888889     67.172595     67.172595    134.345191
     -3.878879     70.935344     70.935344    141.870688
     -3.868869     73.598935     73.598935    147.197870
     -3.858859     74.578632     74.578632    149.157265
     -3.848849     73.269912     73.269912    146.539823
     -3.838839     69.288937     69.288937    138.577875
     -3.828829     62.698191     62.698191    125.396381
     -3.818819     54.106189     54.106189    108.212378
     -3.808809     44.580232     44.580232     89.160464
     -3.798799     35.394221     35.394221     70.788442
     -3.788789     27.704787     27.704787     55.409574
     -3.778779     22.272211     22.272211     44.544422
     -3.768769     19.312889     19.312889     38.625778
     -3.758759     18.511823     18.511823     37.023646
     -3.748749     19.169642     19.169642     38.339283
     -3.738739     20.428402     20.428402     40.856804
     -3.728729     21.513835     21.513835     43.027669
     -3.718719     21.938394     21.938394     43.876787
     -3.708709     21.620994     21.620994     43.241988
     -3.698699     20.894111     20.894111     41.788222
     -3.688689     20.389956     20.389956     40.779913
     -3.678679     20.826669     20.826669     41.653338
     -3.668669     22.749264     22.749264     45.498528
     -3.658659     26.306848     26.306848     52.613696
     -3.648649     31.150383     31.150383     62.300766
     -3.638639     36.501191     36.501191     73.002382
     -3.628629     41.374280     41.374280     82.748559
     -3.618619     44.871444     44.871444     89.742888
     -3.608609     46.427159     46.427159     92.854319
     -3.598599     45.918354     45.918354     91.836707
     -3.588589     43.620877     43.620877     87.241754
     -3.578579     40.064057     40.064057     80.128114
     -3.568569     35.859483     35.859483     71.718967
     -3.558559     31.558537     31.558537     63.117073
     -3.548549     27.557157     27.557157     55.114314
     -3.538539     24.048186     24.048186     48.096372
     -3.528529     21.024391     21.024391     42.048782
     -3.518519     18.337184     18.337184     36.674368
     -3.508509     15.799872     15.799872     31.599744
     -3.498498     13.298472     13.298472     26.596944
     -3.488488     10.862239     10.862239     21.724479
     -3.478478      8.664032      8.664032     17.328064
     -3.468468      6.956008      6.956008     13.912016
     -3.458458      5.973846      5.973846     11.947691
     -3.448448      5.847749      5.847749     11.695497
     -3.438438      6.546539      6.546539     13.093077
     -3.428428      7.867746      7.867746     15.735492
     -3.418418      9.479036      9.479036     18.958073
     -3.408408     11.008486     11.008486     22.016972
     -3.398398     12.164847     12.164847     24.329694
     -3.388388     12.848184     12.848184     25.696368
     -3.378378     13.202827     13.202827     26.405654
     -3.368368     13.582551     13.582551     27.165103
     -3.358358     14.436926     14.436926     28.873852
     -3.348348     16.163632     16.163632     32.327264
     -3.338338     18.980044     18.980044     37.960088
     -3.328328     22.845905     22.845905     45.691810
     -3.318318     27.439659     27.439659     54.879317
     -3.308308     32.180483     32.180483     64.360967
     -3.298298     36.300464     36.300464     72.600927
     -3.288288     38.982303     38.982303     77.964607
     -3.278278     39.558871     39.558871     79.117743
     -3.268268     37.722700     37.722700     75.445401
     -3.258258     33.654807     33.654807     67.309615
     -3.248248     27.996472     27.996472     55.992944
     -3.238238     21.659501     21.659501     43.319003
     -3.228228     15.555022     15.555022     31.110043
     -3.218218     10.359355     10.359355     20.718710
     -3.208208      6.404881      6.404881     12.809762
     -3.198198      3.711518      3.711518      7.423035
     -3.188188      2.111172      2.111172      4.222344
     -3.178178      1.395457      1.395457      2.790914
     -3.168168      1.432991      1.432991      2.865982
     -3.158158      2.231278      2.231278      4.462556
     -3.148148      3.937674      3.937674      7.875349
     -3.138138      6.780490      6.780490     13.560981
     -3.128128     10.956317     10.956317     21.912635
     -3.118118     16.485358     16.485358     32.970716
     -3.108108     23.082149     23.082149     46.164297
     -3.098098     30.107333     30.107333     60.214667
     -3.088088     36.654102     36.654102     73.308204
     -3.078078     41.771321     41.771321     83.542642
     -3.068068     44.753121     44.753121     89.506242
     -3.058058     45.373160     45.373160     90.746319
     -3.048048     43.949353     43.949353     87.898706
     -3.038038     41.198112     41.198112     82.396224
     -3.028028     37.940653     37.940653     75.881306
     -3.018018     34.799760     34.799760     69.599519
     -3.008008     32.028595     32.028595     64.057189
     -2.997998     29.541376     29.541376     59.082753
     -2.987988     27.110294     27.110294     54.220589
     -2.977978     24.613118     24.613118     49.226235
     -2.967968     22.201685     22.201685     44.403371
     -2.957958     20.312487     20.312487     40.624974
     -2.947948     19.521671     19.521671     39.043342
     -2.937938     20.314590     20.314590     40.629180
     -2.927928     22.868043     22.868043     45.736087
     -2.917918     26.930376     26.930376     53.860752
     -2.907908     31.844882     31.844882     63.689764
     -2.897898     36.711836     36.711836     73.423671
     -2.887888     40.637029     40.637029     81.274057
     -2.877878     42.982123     42.982123     85.964245
     -2.867868     43.527065     43.527065     87.054130
     -2.857858     42.484616     42.484616     84.969233
     -2.847848     40.364963     40.364963     80.729926
     -2.837838     37.751312     37.751312     75.502624
     -2.827828     35.085232     35.085232     70.170463
     -2.817818     32.552589     32.552589     65.105179
     -2.807808     30.109238     30.109238     60.218477
     -2.797798     27.615539     27.615539     55.231078
     -2.787788     24.996677     24.996677     49.993355
     -2.777778     22.338952     22.338952     44.677903
     -2.767768     19.873874     19.873874     39.747747
     -2.757758     17.868578     17.868578     35.737157
     -2.747748     16.494923     16.494923     32.989846
     -2.737738     15.759617     15.759617     31.519234
     -2.727728     15.537372     15.537372     31.074743
     -2.717718     15.682060     15.682060     31.364120
     -2.707708     16.138842     16.138842     32.277685
     -2.697698     16.977750     16.977750     33.955500
     -2.687688     18.320758     18.320758     36.641517
     -2.677678     20.208264     20.208264     40.416528
     -2.667668     22.497682     22.497682     44.995365
     -2.657658     24.871992     24.871992     49.743984
     -2.647648     26.965608     26.965608     53.931216
     -2.637638     28.534972     28.534972     57.069945
     -2.627628     29.567784     29.567784     59.135569
     -2.617618     30.263403     30.263403     60.526806
     -2.607608     30.901208     30.901208     61.802416
     -2.597598     31.682890     31.682890     63.365780
     -2.587588     32.639801     32.639801     65.279602
     -2.577578     33.639392     33.639392     67.278785
     -2.567568     34.455486     34.455486     68.910972
     -2.557558     34.840669     34.840669     69.681338
     -2.547548     34.568752     34.568752     69.137503
     -2.537538     33.463944     33.463944     66.927888
     -2.527528     31.450959     31.450959     62.901919
     -2.517518     28.630311     28.630311     57.260622
     -2.507508     25.336248     25.336248     50.672496
     -2.497497     22.117882     22.117882     44.235764
     -2.487487     19.617037     19.617037     39.234075
     -2.477477     18.377064     18.377064     36.754128
     -2.467467     18.662984     18.662984     37.325969
     -2.457457     20.375844     20.375844     40.751688
     -2.447447     23.103234     23.103234     46.206468
     -2.437437     26.286276     26.286276     52.572552
     -2.427427     29.430033     29.430033     58.860066
     -2.417417     32.263037     32.263037     64.526073
     -2.407407     34.773270     34.773270     69.546539
     -2.397397     37.105279     37.105279     74.210557
     -2.387387     39.371075     39.371075     78.742151
     -2.377377     41.473359     41.473359     82.946718
     -2.367367     43.038993     43.038993     86.077986
     -2.357357     43.510789     43.510789     87.021578
     -2.347347     42.367959     42.367959     84.735919
     -2.337337     39.377840     39.377840     78.755681
     -2.327327     34.760182     34.760182     69.520364
     -2.317317     29.184775     29.184775     58.369551
     -2.307307     23.603121     23.603121     47.206243
     -2.297297     18.989869     18.989869     37.979739
     -2.287287     16.099015     16.099015     32.198031
     -2.277277     15.314595     15.314595     30.629191
     -2.267267     16.621226     16.621226     33.242451
     -2.257257     19.671873     19.671873     39.343746
     -2.247247     23.908293     23.908293     47.816586
     -2.237237     28.690557     28.690557     57.381114
     -2.227227     33.403398     33.403398     66.806795
     -2.217217     37.521340     37.521340     75.042679
     -2.207207     40.631529     40.631529     81.263058
     -2.197197     42.431706     42.431706     84.863412
     -2.187187     42.732110     42.732110     85.464221
     -2.177177     41.482730     41.482730     82.965459
     -2.167167     38.819495     38.819495     77.638990
     -2.157157     35.091200     35.091200     70.182400
     -2.147147     30.820146     30.820146     61.640291
     -2.137137     26.579529     26.579529     53.159058
     -2.127127     22.825501     22.825501     45.651002
     -2.117117     19.762879     19.762879     39.525757
     -2.107107     17.316335     17.316335     34.632670
     -2.097097     15.222855     15.222855     30.445710
     -2.087087     13.193023     13.193023     26.386046
     -2.077077     11.054365     11.054365     22.108730
     -2.067067      8.809934      8.809934     17.619868
     -2.057057      6.601132      6.601132     13.202263
     -2.047047      4.615503      4.615503      9.231006
     -2.037037      2.997813      2.997813      5.995625
     -2.027027      1.804250      1.804250      3.608501
     -2.017017      1.005989      1.005989      2.011977
     -2.007007      0.523307      0.523307      1.046614
     -1.996997      0.265634      0.265634      0.531268
     -1.986987      0.161618      0.161618      0.323236
     -1.976977      0.175644      0.175644      0.351287
     -1.966967      0.314636      0.314636      0.629273
     -1.956957      0.629249      0.629249      1.258498
     -1.946947      1.209250      1.209250      2.418500
     -1.936937      2.168591      2.168591      4.337182
     -1.926927      3.615520      3.615520      7.231041
     -1.916917      5.609162      5.609162     11.218324
     -1.906907      8.114127      8.114127     16.228254
     -1.896897     10.972608     10.972608     21.945216
     -1.886887     13.912038     13.912038     27.824076
     -1.876877     16.593940     16.593940     33.187880
     -1.866867     18.692275     18.692275     37.384550
     -1.856857     19.977327     19.977327     39.954654
     -1.846847     20.379528     20.379528     40.759056
     -1.836837     20.014001     20.014001     40.028002
     -1.826827     19.155882     19.155882     38.311764
     -1.816817     18.167609     18.167609     36.335217
     -1.806807     17.394798     17.394798     34.789596
     -1.796797     17.063900     17.063900     34.127800
     -1.786787     17.220743     17.220743     34.441486
     -1.776777     17.733794     17.733794     35.467587
     -1.766767     18.354533     18.354533     36.709067
     -1.756757     18.801016     18.801016     37.602031
     -1.746747     18.828802     18.828802     37.657603
     -1.736737     18.274514     18.274514     36.549028
     -1.726727     17.079835     17.079835     34.159670
     -1.716717     15.307894     15.307894     30.615788
     -1.706707     13.150250     13.150250     26.300501
     -1.696697     10.909483     10.909483     21.818967
     -1.686687      8.945457      8.945457     17.890915
     -1.676677      7.590913      7.590913     15.181825
     -1.666667      7.059695      7.059695     14.119391
     -1.656657      7.377391      7.377391     14.754782
     -1.646647      8.359151      8.359151     16.718303
     -1.636637      9.648110      9.648110     19.296219
     -1.626627     10.812082     10.812082     21.624163
