# EIG2DOS: Utility for SIESTA to obtain the electronic density of states
#  E. Artacho, Apr 1999, A. Garcia, Apr 2012
#  Nick R. Papior, Feb 2017
# ------------------------------------------
# Eigenvalues calculated from a non-polarized calculation
# Eigenvalues read from siesta.EIG
# Kpoint weights read from siesta.KP
# Using smearing parameter:   0.0500
# Using 1000 points in the energy range
# Selected bands: 1 to: 2981
# Emin, Emax in file for selected band(s):    -27.2729552    218.3887200
# Nbands, Nspin, Nk   =   2981     1     1
# E_F                 =    -4.2067 eV --> (shifted to ZERO)
# Broadening          =     0.0500 eV
#
#        E            N(up)  (=)   N(down)         Ntot
     -5.000000     31.577186     31.577186     63.154371
     -4.989990     36.686090     36.686090     73.372180
     -4.979980     41.527018     41.527018     83.054037
     -4.969970     45.262396     45.262396     90.524792
     -4.959960     47.181634     47.181634     94.363268
     -4.949950     46.938208     46.938208     93.876416
     -4.939940     44.669953     44.669953     89.339907
     -4.929930     40.968403     40.968403     81.936805
     -4.919920     36.732385     36.732385     73.464770
     -4.909910     32.973856     32.973856     65.947713
     -4.899900     30.627898     30.627898     61.255795
     -4.889890     30.381785     30.381785     60.763570
     -4.879880     32.521812     32.521812     65.043624
     -4.869870     36.818028     36.818028     73.636056
     -4.859860     42.501469     42.501469     85.002939
     -4.849850     48.391327     48.391327     96.782655
     -4.839840     53.178150     53.178150    106.356300
     -4.829830     55.786736     55.786736    111.573472
     -4.819820     55.683314     55.683314    111.366628
     -4.809810     53.000849     53.000849    106.001699
     -4.799800     48.435287     48.435287     96.870575
     -4.789790     42.969901     42.969901     85.939802
     -4.779780     37.555102     37.555102     75.110204
     -4.769770     32.871578     32.871578     65.743155
     -4.759760     29.244447     29.244447     58.488893
     -4.749750     26.697359     26.697359     53.394717
     -4.739740     25.081306     25.081306     50.162612
     -4.729730     24.201846     24.201846     48.403692
     -4.719720     23.891909     23.891909     47.783817
     -4.709710     24.015762     24.015762     48.031523
     -4.699700     24.426538     24.426538     48.853076
     -4.689690     24.923692     24.923692     49.847384
     -4.679680     25.258333     25.258333     50.516666
     -4.669670     25.209275     25.209275     50.418551
     -4.659660     24.709125     24.709125     49.418249
     -4.649650     23.959356     23.959356     47.918712
     -4.639640     23.459908     23.459908     46.919815
     -4.629630     23.903822     23.903822     47.807644
     -4.619620     25.944068     25.944068     51.888135
     -4.609610     29.905715     29.905715     59.811431
     -4.599600     35.562544     35.562544     71.125088
     -4.589590     42.095439     42.095439     84.190878
     -4.579580     48.288532     48.288532     96.577065
     -4.569570     52.914990     52.914990    105.829981
     -4.559560     55.165499     55.165499    110.330997
     -4.549550     54.935580     54.935580    109.871160
     -4.539540     52.841841     52.841841    105.683681
     -4.529530     49.959039     49.959039     99.918078
     -4.519520     47.395745     47.395745     94.791489
     -4.509510     45.891465     45.891465     91.782929
     -4.499499     45.594907     45.594907     91.189814
     -4.489489     46.091422     46.091422     92.182844
     -4.479479     46.637428     46.637428     93.274855
     -4.469469     46.481432     46.481432     92.962865
     -4.459459     45.134471     45.134471     90.268943
     -4.449449     42.496234     42.496234     84.992468
     -4.439439     38.820141     38.820141     77.640281
     -4.429429     34.572163     34.572163     69.144326
     -4.419419     30.271195     30.271195     60.542389
     -4.409409     26.381278     26.381278     52.762557
     -4.399399     23.273986     23.273986     46.547972
     -4.389389     21.228630     21.228630     42.457260
     -4.379379     20.422548     20.422548     40.845096
     -4.369369     20.891139     20.891139     41.782278
     -4.359359     22.482820     22.482820     44.965640
     -4.349349     24.858885     24.858885     49.717771
     -4.339339     27.570715     27.570715     55.141429
     -4.329329     30.198724     30.198724     60.397447
     -4.319319     32.493811     32.493811     64.987622
     -4.309309     34.452451     34.452451     68.904902
     -4.299299     36.285138     36.285138     72.570276
     -4.289289     38.285200     38.285200     76.570400
     -4.279279     40.646885     40.646885     81.293771
     -4.269269     43.304422     43.304422     86.608845
     -4.259259     45.863825     45.863825     91.727650
     -4.249249     47.674736     47.674736     95.349473
     -4.239239     48.039386     48.039386     96.078772
     -4.229229     46.490810     46.490810     92.981620
     -4.219219     43.023277     43.023277     86.046555
     -4.209209     38.160603     38.160603     76.321207
     -4.199199     32.815058     32.815058     65.630115
     -4.189189     27.990560     27.990560     55.981121
     -4.179179     24.461099     24.461099     48.922198
     -4.169169     22.563394     22.563394     45.126789
     -4.159159     22.180258     22.180258     44.360517
     -4.149149     22.897474     22.897474     45.794948
     -4.139139     24.242635     24.242635     48.485269
     -4.129129     25.889637     25.889637     51.779275
     -4.119119     27.739171     27.739171     55.478341
     -4.109109     29.846892     29.846892     59.693783
     -4.099099     32.243878     32.243878     64.487757
     -4.089089     34.751600     34.751600     69.503200
     -4.079079     36.907404     36.907404     73.814808
     -4.069069     38.068476     38.068476     76.136953
     -4.059059     37.666079     37.666079     75.332158
     -4.049049     35.488674     35.488674     70.977347
     -4.039039     31.843321     31.843321     63.686642
     -4.029029     27.504716     27.504716     55.009432
     -4.019019     23.475202     23.475202     46.950404
     -4.009009     20.674631     20.674631     41.349263
     -3.998999     19.699469     19.699469     39.398938
     -3.988989     20.733777     20.733777     41.467553
     -3.978979     23.606802     23.606802     47.213605
     -3.968969     27.929117     27.929117     55.858234
     -3.958959     33.230387     33.230387     66.460774
     -3.948949     39.056143     39.056143     78.112287
     -3.938939     45.022844     45.022844     90.045687
     -3.928929     50.848351     50.848351    101.696701
     -3.918919     56.362820     56.362820    112.725640
     -3.908909     61.484941     61.484941    122.969882
     -3.898899     66.149188     66.149188    132.298375
     -3.888889     70.199518     70.199518    140.399035
     -3.878879     73.302453     73.302453    146.604906
     -3.868869     74.944005     74.944005    149.888010
     -3.858859     74.543397     74.543397    149.086795
     -3.848849     71.656404     71.656404    143.312809
     -3.838839     66.188032     66.188032    132.376064
     -3.828829     58.519963     58.519963    117.039926
     -3.818819     49.490550     49.490550     98.981101
     -3.808809     40.225801     40.225801     80.451602
     -3.798799     31.877771     31.877771     63.755543
     -3.788789     25.356794     25.356794     50.713587
     -3.778779     21.138234     21.138234     42.276467
     -3.768769     19.192395     19.192395     38.384790
     -3.758759     19.045363     19.045363     38.090727
     -3.748749     19.944036     19.944036     39.888071
     -3.738739     21.077437     21.077437     42.154874
     -3.728729     21.798811     21.798811     43.597623
     -3.718719     21.795988     21.795988     43.591976
     -3.708709     21.168629     21.168629     42.337257
     -3.698699     20.389137     20.389137     40.778274
     -3.688689     20.149223     20.149223     40.298447
     -3.678679     21.125229     21.125229     42.250458
     -3.668669     23.726670     23.726670     47.453339
     -3.658659     27.911583     27.911583     55.823167
     -3.648649     33.143502     33.143502     66.287003
     -3.638639     38.519921     38.519921     77.039841
     -3.628629     43.032931     43.032931     86.065861
     -3.618619     45.862464     45.862464     91.724929
     -3.608609     46.588244     46.588244     93.176488
     -3.598599     45.250055     45.250055     90.500109
     -3.588589     42.260994     42.260994     84.521988
     -3.578579     38.237420     38.237420     76.474839
     -3.568569     33.821130     33.821130     67.642260
     -3.558559     29.541542     29.541542     59.083084
     -3.548549     25.732083     25.732083     51.464165
     -3.538539     22.501130     22.501130     45.002260
     -3.528529     19.759655     19.759655     39.519310
     -3.518519     17.303954     17.303954     34.607907
     -3.508509     14.932136     14.932136     29.864272
     -3.498498     12.551042     12.551042     25.102083
     -3.488488     10.228630     10.228630     20.457259
     -3.478478      8.172281      8.172281     16.344563
     -3.468468      6.649044      6.649044     13.298087
     -3.458458      5.885783      5.885783     11.771567
     -3.448448      5.986260      5.986260     11.972521
     -3.438438      6.888160      6.888160     13.776321
     -3.428428      8.370847      8.370847     16.741695
     -3.418418     10.117166     10.117166     20.234333
     -3.408408     11.821422     11.821422     23.642845
     -3.398398     13.314600     13.314600     26.629199
     -3.388388     14.656217     14.656217     29.312434
     -3.378378     16.140454     16.140454     32.280907
     -3.368368     18.195178     18.195178     36.390356
     -3.358358     21.205031     21.205031     42.410063
     -3.348348     25.331890     25.331890     50.663780
     -3.338338     30.408424     30.408424     60.816849
     -3.328328     35.940996     35.940996     71.881992
     -3.318318     41.205658     41.205658     82.411317
     -3.308308     45.392134     45.392134     90.784267
     -3.298298     47.757740     47.757740     95.515480
     -3.288288     47.774653     47.774653     95.549306
     -3.278278     45.258104     45.258104     90.516208
     -3.268268     40.444332     40.444332     80.888663
     -3.258258     33.973451     33.973451     67.946901
     -3.248248     26.755183     26.755183     53.510366
     -3.238238     19.751335     19.751335     39.502670
     -3.228228     13.757549     13.757549     27.515099
     -3.218218      9.267829      9.267829     18.535658
     -3.208208      6.456177      6.456177     12.912353
     -3.198198      5.247316      5.247316     10.494632
     -3.188188      5.415902      5.415902     10.831805
     -3.178178      6.666075      6.666075     13.332150
     -3.168168      8.681342      8.681342     17.362685
     -3.158158     11.164290     11.164290     22.328580
     -3.148148     13.884214     13.884214     27.768428
     -3.138138     16.723343     16.723343     33.446686
     -3.128128     19.686239     19.686239     39.372479
     -3.118118     22.841087     22.841087     45.682175
     -3.108108     26.201814     26.201814     52.403628
     -3.098098     29.610410     29.610410     59.220820
     -3.088088     32.698348     32.698348     65.396697
     -3.078078     34.970942     34.970942     69.941883
     -3.068068     35.985258     35.985258     71.970516
     -3.058058     35.529277     35.529277     71.058554
     -3.048048     33.703195     33.703195     67.406389
     -3.038038     30.861139     30.861139     61.722277
     -3.028028     27.455399     27.455399     54.910797
     -3.018018     23.879111     23.879111     47.758222
     -3.008008     20.392946     20.392946     40.785893
     -2.997998     17.158813     17.158813     34.317626
     -2.987988     14.335407     14.335407     28.670813
     -2.977978     12.160665     12.160665     24.321330
     -2.967968     10.965583     10.965583     21.931166
     -2.957958     11.109028     11.109028     22.218055
     -2.947948     12.861918     12.861918     25.723835
     -2.937938     16.285394     16.285394     32.570788
     -2.927928     21.145887     21.145887     42.291773
     -2.917918     26.900549     26.900549     53.801098
     -2.907908     32.772077     32.772077     65.544155
     -2.897898     37.908185     37.908185     75.816371
     -2.887888     41.588300     41.588300     83.176601
     -2.877878     43.410732     43.410732     86.821465
     -2.867868     43.387002     43.387002     86.774005
     -2.857858     41.898471     41.898471     83.796943
     -2.847848     39.527079     39.527079     79.054159
     -2.837838     36.830793     36.830793     73.661586
     -2.827828     34.162796     34.162796     68.325593
     -2.817818     31.612405     31.612405     63.224811
     -2.807808     29.083130     29.083130     58.166260
     -2.797798     26.452422     26.452422     52.904843
     -2.787788     23.718148     23.718148     47.436297
     -2.777778     21.051066     21.051066     42.102132
     -2.767768     18.731507     18.731507     37.463013
     -2.757758     17.017269     17.017269     34.034538
     -2.747748     16.027819     16.027819     32.055638
     -2.737738     15.715164     15.715164     31.430328
     -2.727728     15.933389     15.933389     31.866778
     -2.717718     16.553288     16.553288     33.106576
     -2.707708     17.538504     17.538504     35.077008
     -2.697698     18.927052     18.927052     37.854104
     -2.687688     20.731075     20.731075     41.462150
     -2.677678     22.831470     22.831470     45.662940
     -2.667668     24.955380     24.955380     49.910759
     -2.657658     26.770738     26.770738     53.541475
     -2.647648     28.048094     28.048094     56.096189
     -2.637638     28.786208     28.786208     57.572416
     -2.627628     29.215872     29.215872     58.431745
     -2.617618     29.675163     29.675163     59.350325
     -2.607608     30.431783     30.431783     60.863566
     -2.597598     31.555160     31.555160     63.110320
     -2.587588     32.897094     32.897094     65.794187
     -2.577578     34.164599     34.164599     68.329198
     -2.567568     35.021440     35.021440     70.042880
     -2.557558     35.165293     35.165293     70.330586
     -2.547548     34.373947     34.373947     68.747895
     -2.537538     32.547596     32.547596     65.095193
     -2.527528     29.765094     29.765094     59.530188
     -2.517518     26.333615     26.333615     52.667230
     -2.507508     22.784191     22.784191     45.568382
     -2.497497     19.778913     19.778913     39.557825
     -2.487487     17.942112     17.942112     35.884223
     -2.477477     17.674733     17.674733     35.349466
     -2.467467     19.028205     19.028205     38.056411
     -2.457457     21.693402     21.693402     43.386804
     -2.447447     25.114003     25.114003     50.228006
     -2.437437     28.682301     28.682301     57.364602
     -2.427427     31.939140     31.939140     63.878280
     -2.417417     34.693658     34.693658     69.387316
     -2.407407     37.009209     37.009209     74.018418
     -2.397397     39.060874     39.060874     78.121749
     -2.387387     40.933391     40.933391     81.866781
     -2.377377     42.465064     42.465064     84.930127
     -2.367367     43.229868     43.229868     86.459736
     -2.357357     42.685444     42.685444     85.370888
     -2.347347     40.427153     40.427153     80.854306
     -2.337337     36.425482     36.425482     72.850964
     -2.327327     31.126170     31.126170     62.252340
     -2.317317     25.362201     25.362201     50.724403
     -2.307307     20.122422     20.122422     40.244844
     -2.297297     16.284433     16.284433     32.568867
     -2.287287     14.416956     14.416956     28.833912
     -2.277277     14.702963     14.702963     29.405925
     -2.267267     16.972298     16.972298     33.944596
     -2.257257     20.797016     20.797016     41.594031
     -2.247247     25.601419     25.601419     51.202838
     -2.237237     30.756847     30.756847     61.513693
     -2.227227     35.650856     35.650856     71.301713
     -2.217217     39.733667     39.733667     79.467334
     -2.207207     42.552052     42.552052     85.104104
     -2.197197     43.783508     43.783508     87.567016
     -2.187187     43.279176     43.279176     86.558351
     -2.177177     41.109907     41.109907     82.219814
     -2.167167     37.590504     37.590504     75.181008
     -2.157157     33.246956     33.246956     66.493911
     -2.147147     28.706489     28.706489     57.412979
     -2.137137     24.531099     24.531099     49.062199
     -2.127127     21.058638     21.058638     42.117276
     -2.117117     18.327553     18.327553     36.655106
     -2.107107     16.125276     16.125276     32.250552
     -2.097097     14.134953     14.134953     28.269905
     -2.087087     12.103399     12.103399     24.206798
     -2.077077      9.949138      9.949138     19.898275
     -2.067067      7.772470      7.772470     15.544940
     -2.057057      5.787153      5.787153     11.574306
     -2.047047      4.227239      4.227239      8.454478
     -2.037037      3.277103      3.277103      6.554206
     -2.027027      3.040808      3.040808      6.081616
     -2.017017      3.536456      3.536456      7.072912
     -2.007007      4.692721      4.692721      9.385443
     -1.996997      6.339813      6.339813     12.679627
     -1.986987      8.209974      8.209974     16.419947
     -1.976977      9.972654      9.972654     19.945307
     -1.966967     11.315484     11.315484     22.630968
     -1.956957     12.050577     12.050577     24.101153
     -1.946947     12.198100     12.198100     24.396200
     -1.936937     11.997581     11.997581     23.995161
     -1.926927     11.827962     11.827962     23.655923
     -1.916917     12.063834     12.063834     24.127668
     -1.906907     12.929322     12.929322     25.858643
     -1.896897     14.412482     14.412482     28.824963
     -1.886887     16.272446     16.272446     32.544893
     -1.876877     18.128574     18.128574     36.257148
     -1.866867     19.589636     19.589636     39.179271
     -1.856857     20.374168     20.374168     40.748336
     -1.846847     20.386048     20.386048     40.772096
     -1.836837     19.728425     19.728425     39.456849
     -1.826827     18.655060     18.655060     37.310120
     -1.816817     17.472202     17.472202     34.944404
     -1.806807     16.420878     16.420878     32.841755
     -1.796797     15.584469     15.584469     31.168939
     -1.786787     14.865156     14.865156     29.730311
     -1.776777     14.045267     14.045267     28.090533
     -1.766767     12.905781     12.905781     25.811561
     -1.756757     11.341663     11.341663     22.683327
     -1.746747      9.416523      9.416523     18.833046
     -1.736737      7.336412      7.336412     14.672823
     -1.726727      5.368649      5.368649     10.737299
     -1.716717      3.755892      3.755892      7.511785
     -1.706707      2.666126      2.666126      5.332252
     -1.696697      2.187871      2.187871      4.375742
     -1.686687      2.350229      2.350229      4.700459
     -1.676677      3.137237      3.137237      6.274474
     -1.666667      4.478180      4.478180      8.956361
     -1.656657      6.220137      6.220137     12.440274
     -1.646647      8.110097      8.110097     16.220195
     -1.636637      9.817818      9.817818     19.635636
     -1.626627     11.012146     11.012146     22.024293
