# EIG2DOS: Utility for SIESTA to obtain the electronic density of states
#  E. Artacho, Apr 1999, A. Garcia, Apr 2012
#  Nick R. Papior, Feb 2017
# ------------------------------------------
# Eigenvalues calculated from a non-polarized calculation
# Eigenvalues read from siesta.EIG
# Kpoint weights read from siesta.KP
# Using smearing parameter:   0.0500
# Using 1000 points in the energy range
# Selected bands: 1 to: 2981
# Emin, Emax in file for selected band(s):    -27.4191156    218.4135890
# Nbands, Nspin, Nk   =   2981     1     1
# E_F                 =    -4.1886 eV --> (shifted to ZERO)
# Broadening          =     0.0500 eV
#
#        E            N(up)  (=)   N(down)         Ntot
     -5.000000     32.919900     32.919900     65.839800
     -4.989990     38.179271     38.179271     76.358543
     -4.979980     42.932272     42.932272     85.864545
     -4.969970     46.314045     46.314045     92.628090
     -4.959960     47.674543     47.674543     95.349086
     -4.949950     46.799008     46.799008     93.598017
     -4.939940     43.982706     43.982706     87.965411
     -4.929930     39.950629     39.950629     79.901257
     -4.919920     35.680961     35.680961     71.361921
     -4.909910     32.208077     32.208077     64.416153
     -4.899900     30.447972     30.447972     60.895945
     -4.889890     31.046123     31.046123     62.092246
     -4.879880     34.237495     34.237495     68.474991
     -4.869870     39.738254     39.738254     79.476509
     -4.859860     46.725308     46.725308     93.450615
     -4.849850     53.959693     53.959693    107.919386
     -4.839840     60.058277     60.058277    120.116555
     -4.829830     63.842953     63.842953    127.685906
     -4.819820     64.645967     64.645967    129.291935
     -4.809810     62.457990     62.457990    124.915980
     -4.799800     57.869214     57.869214    115.738428
     -4.789790     51.838988     51.838988    103.677976
     -4.779780     45.393192     45.393192     90.786384
     -4.769770     39.363030     39.363030     78.726060
     -4.759760     34.243696     34.243696     68.487391
     -4.749750     30.189753     30.189753     60.379507
     -4.739740     27.107986     27.107986     54.215972
     -4.729730     24.781558     24.781558     49.563117
     -4.719720     22.967800     22.967800     45.935599
     -4.709710     21.445258     21.445258     42.890515
     -4.699700     20.023786     20.023786     40.047573
     -4.689690     18.553116     18.553116     37.106233
     -4.679680     16.958798     16.958798     33.917596
     -4.669670     15.304781     15.304781     30.609562
     -4.659660     13.849770     13.849770     27.699540
     -4.649650     13.051688     13.051688     26.103376
     -4.639640     13.488790     13.488790     26.977580
     -4.629630     15.698518     15.698518     31.397036
     -4.619620     19.971438     19.971438     39.942876
     -4.609610     26.166956     26.166956     52.333911
     -4.599600     33.630887     33.630887     67.261775
     -4.589590     41.279687     41.279687     82.559374
     -4.579580     47.862511     47.862511     95.725022
     -4.569570     52.331638     52.331638    104.663276
     -4.559560     54.183359     54.183359    108.366718
     -4.549550     53.622042     53.622042    107.244084
     -4.539540     51.467225     51.467225    102.934450
     -4.529530     48.836819     48.836819     97.673639
     -4.519520     46.738277     46.738277     93.476554
     -4.509510     45.733437     45.733437     91.466874
     -4.499499     45.800320     45.800320     91.600641
     -4.489489     46.424070     46.424070     92.848141
     -4.479479     46.854883     46.854883     93.709765
     -4.469469     46.412979     46.412979     92.825959
     -4.459459     44.718820     44.718820     89.437640
     -4.449449     41.775501     41.775501     83.551003
     -4.439439     37.903584     37.903584     75.807168
     -4.429429     33.591050     33.591050     67.182100
     -4.419419     29.343700     29.343700     58.687400
     -4.409409     25.596206     25.596206     51.192412
     -4.399399     22.690308     22.690308     45.380616
     -4.389389     20.880903     20.880903     41.761807
     -4.379379     20.323620     20.323620     40.647240
     -4.369369     21.030977     21.030977     42.061954
     -4.359359     22.829340     22.829340     45.658681
     -4.349349     25.367474     25.367474     50.734949
     -4.339339     28.202943     28.202943     56.405886
     -4.329329     30.942243     30.942243     61.884487
     -4.319319     33.370926     33.370926     66.741853
     -4.309309     35.507894     35.507894     71.015789
     -4.299299     37.552877     37.552877     75.105754
     -4.289289     39.745209     39.745209     79.490419
     -4.279279     42.190708     42.190708     84.381416
     -4.269269     44.729207     44.729207     89.458414
     -4.259259     46.906467     46.906467     93.812934
     -4.249249     48.081862     48.081862     96.163725
     -4.239239     47.650762     47.650762     95.301523
     -4.229229     45.302723     45.302723     90.605446
     -4.219219     41.202864     41.202864     82.405727
     -4.209209     36.002472     36.002472     72.004943
     -4.199199     30.657829     30.657829     61.315657
     -4.189189     26.128065     26.128065     52.256131
     -4.179179     23.081610     23.081610     46.163220
     -4.169169     21.733207     21.733207     43.466414
     -4.159159     21.867062     21.867062     43.734125
     -4.149149     23.015349     23.015349     46.030698
     -4.139139     24.697501     24.697501     49.395001
     -4.129129     26.608158     26.608158     53.216315
     -4.119119     28.671541     28.671541     57.343081
     -4.109109     30.943982     30.943982     61.887965
     -4.099099     33.421708     33.421708     66.843416
     -4.089089     35.866552     35.866552     71.733105
     -4.079079     37.765365     37.765365     75.530731
     -4.069069     38.474993     38.474993     76.949985
     -4.059059     37.499191     37.499191     74.998383
     -4.049049     34.757806     34.757806     69.515613
     -4.039039     30.701040     30.701040     61.402080
     -4.029029     26.203007     26.203007     52.406013
     -4.019019     22.287777     22.287777     44.575554
     -4.009009     19.822027     19.822027     39.644055
     -3.998999     19.306308     19.306308     38.612616
     -3.988989     20.825842     20.825842     41.651684
     -3.978979     24.135619     24.135619     48.271237
     -3.968969     28.804852     28.804852     57.609705
     -3.958959     34.349972     34.349972     68.699943
     -3.948949     40.323655     40.323655     80.647311
     -3.938939     46.364194     46.364194     92.728387
     -3.928929     52.219448     52.219448    104.438895
     -3.918919     57.745249     57.745249    115.490498
     -3.908909     62.864007     62.864007    125.728013
     -3.898899     67.479094     67.479094    134.958187
     -3.888889     71.373418     71.373418    142.746835
     -3.878879     74.149852     74.149852    148.299703
     -3.868869     75.267546     75.267546    150.535093
     -3.858859     74.185655     74.185655    148.371310
     -3.848849     70.568243     70.568243    141.136487
     -3.838839     64.466226     64.466226    128.932452
     -3.828829     56.395731     56.395731    112.791462
     -3.818819     47.273576     47.273576     94.547153
     -3.808809     38.226554     38.226554     76.453108
     -3.798799     30.335835     30.335835     60.671669
     -3.788789     24.395303     24.395303     48.790607
     -3.778779     20.751712     20.751712     41.503423
     -3.768769     19.264748     19.264748     38.529496
     -3.758759     19.389512     19.389512     38.779024
     -3.748749     20.353112     20.353112     40.706224
     -3.738739     21.377135     21.377135     42.754271
     -3.728729     21.890240     21.890240     43.780480
     -3.718719     21.679008     21.679008     43.358016
     -3.708709     20.938540     20.938540     41.877080
     -3.698699     20.205282     20.205282     40.410563
     -3.688689     20.182022     20.182022     40.364045
     -3.678679     21.496357     21.496357     42.992714
     -3.668669     24.462106     24.462106     48.924212
     -3.658659     28.925499     28.925499     57.850998
     -3.648649     34.260660     34.260660     68.521319
     -3.638639     39.528606     39.528606     79.057211
     -3.628629     43.747054     43.747054     87.494107
     -3.618619     46.168609     46.168609     92.337218
     -3.608609     46.463348     46.463348     92.926696
     -3.598599     44.752025     44.752025     89.504051
     -3.588589     41.507158     41.507158     83.014317
     -3.578579     37.387344     37.387344     74.774687
     -3.568569     33.072387     33.072387     66.144775
     -3.558559     29.136648     29.136648     58.273296
     -3.548549     25.967719     25.967719     51.935438
     -3.538539     23.727374     23.727374     47.454748
     -3.528529     22.355549     22.355549     44.711098
     -3.518519     21.618211     21.618211     43.236422
     -3.508509     21.189300     21.189300     42.378600
     -3.498498     20.745135     20.745135     41.490270
     -3.488488     20.047880     20.047880     40.095760
     -3.478478     19.001712     19.001712     38.003425
     -3.468468     17.671399     17.671399     35.342798
     -3.458458     16.254945     16.254945     32.509889
     -3.448448     15.008570     15.008570     30.017140
     -3.438438     14.141743     14.141743     28.283486
     -3.428428     13.724688     13.724688     27.449375
     -3.418418     13.659077     13.659077     27.318155
     -3.408408     13.738552     13.738552     27.477103
     -3.398398     13.777388     13.777388     27.554776
     -3.388388     13.743316     13.743316     27.486632
     -3.378378     13.823894     13.823894     27.647788
     -3.368368     14.390809     14.390809     28.781617
     -3.358358     15.879237     15.879237     31.758474
     -3.348348     18.635419     18.635419     37.270837
     -3.338338     22.785919     22.785919     45.571838
     -3.328328     28.157092     28.157092     56.314183
     -3.318318     34.250758     34.250758     68.501517
     -3.308308     40.280299     40.280299     80.560598
     -3.298298     45.280812     45.280812     90.561624
     -3.288288     48.300475     48.300475     96.600951
     -3.278278     48.643001     48.643001     97.286003
     -3.268268     46.082798     46.082798     92.165595
     -3.258258     40.957384     40.957384     81.914769
     -3.248248     34.082313     34.082313     68.164626
     -3.238238     26.515102     26.515102     53.030205
     -3.228228     19.265763     19.265763     38.531525
     -3.218218     13.068158     13.068158     26.136316
     -3.208208      8.283949      8.283949     16.567898
     -3.198198      4.942296      4.942296      9.884591
     -3.188188      2.865636      2.865636      5.731271
     -3.178178      1.816042      1.816042      3.632083
     -3.168168      1.611836      1.611836      3.223672
     -3.158158      2.189696      2.189696      4.379392
     -3.148148      3.606771      3.606771      7.213542
     -3.138138      5.987172      5.987172     11.974343
     -3.128128      9.424923      9.424923     18.849847
     -3.118118     13.868691     13.868691     27.737382
     -3.108108     19.030313     19.030313     38.060625
     -3.098098     24.366366     24.366366     48.732733
     -3.088088     29.164573     29.164573     58.329146
     -3.078078     32.722472     32.722472     65.444943
     -3.068068     34.553631     34.553631     69.107262
     -3.058058     34.529785     34.529785     69.059570
     -3.048048     32.890159     32.890159     65.780318
     -3.038038     30.115805     30.115805     60.231610
     -3.028028     26.738610     26.738610     53.477220
     -3.018018     23.185542     23.185542     46.371083
     -3.008008     19.728604     19.728604     39.457209
     -2.997998     16.541836     16.541836     33.083671
     -2.987988     13.805669     13.805669     27.611339
     -2.977978     11.782519     11.782519     23.565037
     -2.967968     10.816604     10.816604     21.633208
     -2.957958     11.257718     11.257718     22.515437
     -2.947948     13.342758     13.342758     26.685517
     -2.937938     17.079852     17.079852     34.159705
     -2.927928     22.175522     22.175522     44.351044
     -2.917918     28.035366     28.035366     56.070733
     -2.907908     33.853903     33.853903     67.707807
     -2.897898     38.784558     38.784558     77.569116
     -2.887888     42.147909     42.147909     84.295819
     -2.877878     43.608981     43.608981     87.217963
     -2.867868     43.252006     43.252006     86.504011
     -2.857858     41.514278     41.514278     83.028557
     -2.847848     39.000156     39.000156     78.000313
     -2.837838     36.253625     36.253625     72.507251
     -2.827828     33.590372     33.590372     67.180744
     -2.817818     31.061167     31.061167     62.122335
     -2.807808     28.550172     28.550172     57.100343
     -2.797798     25.941712     25.941712     51.883424
     -2.787788     23.257183     23.257183     46.514366
     -2.777778     20.688092     20.688092     41.376183
     -2.767768     18.516508     18.516508     37.033017
     -2.757758     16.980971     16.980971     33.961942
     -2.747748     16.174437     16.174437     32.348874
     -2.737738     16.034707     16.034707     32.069415
     -2.727728     16.423778     16.423778     32.847556
     -2.717718     17.232293     17.232293     34.464587
     -2.707708     18.429517     18.429517     36.859034
     -2.697698     20.020916     20.020916     40.041832
     -2.687688     21.947486     21.947486     43.894971
     -2.677678     24.011558     24.011558     48.023117
     -2.667668     25.902656     25.902656     51.805313
     -2.657658     27.327130     27.327130     54.654261
     -2.647648     28.165584     28.165584     56.331167
     -2.637638     28.552451     28.552451     57.104902
     -2.627628     28.817718     28.817718     57.635436
     -2.617618     29.320138     29.320138     58.640276
     -2.607608     30.269394     30.269394     60.538788
     -2.597598     31.633607     31.633607     63.267214
     -2.587588     33.164786     33.164786     66.329573
     -2.577578     34.501206     34.501206     69.002411
     -2.567568     35.276597     35.276597     70.553194
     -2.557558     35.193494     35.193494     70.386988
     -2.547548     34.066710     34.066710     68.133420
     -2.537538     31.865633     31.865633     63.731266
     -2.527528     28.764075     28.764075     57.528150
     -2.517518     25.168791     25.168791     50.337582
     -2.507508     21.682298     21.682298     43.364595
     -2.497497     18.980209     18.980209     37.960418
     -2.487487     17.631248     17.631248     35.262496
     -2.477477     17.925980     17.925980     35.851959
     -2.467467     19.785208     19.785208     39.570416
     -2.457457     22.789996     22.789996     45.579992
     -2.447447     26.327451     26.327451     52.654902
     -2.437437     29.799149     29.799149     59.598297
     -2.427427     32.810173     32.810173     65.620346
     -2.417417     35.259325     35.259325     70.518649
     -2.407407     37.288743     37.288743     74.577486
     -2.397397     39.112847     39.112847     78.225694
     -2.387387     40.807063     40.807063     81.614127
     -2.377377     42.165909     42.165909     84.331819
     -2.367367     42.716478     42.716478     85.432957
     -2.357357     41.899892     41.899892     83.799784
     -2.347347     39.343016     39.343016     78.686031
     -2.337337     35.087107     35.087107     70.174215
     -2.327327     29.656962     29.656962     59.313923
     -2.317317     23.937149     23.937149     47.874298
     -2.307307     18.919732     18.919732     37.839463
     -2.297297     15.440262     15.440262     30.880523
     -2.287287     14.001470     14.001470     28.002940
     -2.277277     14.721365     14.721365     29.442731
     -2.267267     17.381705     17.381705     34.763410
     -2.257257     21.525870     21.525870     43.051740
     -2.247247     26.562272     26.562272     53.124545
     -2.237237     31.851166     31.851166     63.702332
     -2.227227     36.771354     36.771354     73.542709
     -2.217217     40.772997     40.772997     81.545994
     -2.207207     43.425799     43.425799     86.851597
     -2.197197     44.470213     44.470213     88.940426
     -2.187187     43.870943     43.870943     87.741887
     -2.177177     41.855760     41.855760     83.711521
     -2.167167     38.905815     38.905815     77.811631
     -2.157157     35.663373     35.663373     71.326746
     -2.147147     32.753692     32.753692     65.507384
     -2.137137     30.572614     30.572614     61.145227
     -2.127127     29.135740     29.135740     58.271480
     -2.117117     28.078196     28.078196     56.156392
     -2.107107     26.824939     26.824939     53.649877
     -2.097097     24.857199     24.857199     49.714399
     -2.087087     21.943515     21.943515     43.887030
     -2.077077     18.224798     18.224798     36.449597
     -2.067067     14.127976     14.127976     28.255951
     -2.057057     10.174061     10.174061     20.348122
     -2.047047      6.787462      6.787462     13.574923
     -2.037037      4.188442      4.188442      8.376885
     -2.027027      2.389350      2.389350      4.778699
     -2.017017      1.261930      1.261930      2.523860
     -2.007007      0.624342      0.624342      1.248683
     -1.996997      0.309603      0.309603      0.619206
     -1.986987      0.202508      0.202508      0.405015
     -1.976977      0.251086      0.251086      0.502172
     -1.966967      0.464491      0.464491      0.928983
     -1.956957      0.904717      0.904717      1.809434
     -1.946947      1.671861      1.671861      3.343723
     -1.936937      2.878191      2.878191      5.756383
     -1.926927      4.608647      4.608647      9.217294
     -1.916917      6.874162      6.874162     13.748323
     -1.906907      9.574038      9.574038     19.148075
     -1.896897     12.486933     12.486933     24.973867
     -1.886887     15.301974     15.301974     30.603948
     -1.876877     17.685034     17.685034     35.370067
     -1.866867     19.360031     19.360031     38.720062
     -1.856857     20.179490     20.179490     40.358981
     -1.846847     20.163034     20.163034     40.326068
     -1.836837     19.491037     19.491037     38.982073
     -1.826827     18.449964     18.449964     36.899929
     -1.816817     17.338760     17.338760     34.677520
     -1.806807     16.363990     16.363990     32.727980
     -1.796797     15.566697     15.566697     31.133395
     -1.786787     14.819880     14.819880     29.639761
     -1.776777     13.904742     13.904742     27.809484
     -1.766767     12.630734     12.630734     25.261467
     -1.756757     10.938112     10.938112     21.876224
     -1.746747      8.932588      8.932588     17.865177
     -1.736737      6.842961      6.842961     13.685923
     -1.726727      4.935444      4.935444      9.870888
     -1.716717      3.434915      3.434915      6.869831
     -1.706707      2.487074      2.487074      4.974147
     -1.696697      2.162598      2.162598      4.325196
     -1.686687      2.478506      2.478506      4.957011
     -1.676677      3.407424      3.407424      6.814848
     -1.666667      4.861885      4.861885      9.723770
     -1.656657      6.665935      6.665935     13.331869
     -1.646647      8.544288      8.544288     17.088577
     -1.636637     10.157697     10.157697     20.315394
     -1.626627     11.190296     11.190296     22.380592
