# EIG2DOS: Utility for SIESTA to obtain the electronic density of states
#  E. Artacho, Apr 1999, A. Garcia, Apr 2012
#  Nick R. Papior, Feb 2017
# ------------------------------------------
# Eigenvalues calculated from a non-polarized calculation
# Eigenvalues read from siesta.EIG
# Kpoint weights read from siesta.KP
# Using smearing parameter:   0.0500
# Using 1000 points in the energy range
# Selected bands: 1 to: 2981
# Emin, Emax in file for selected band(s):    -27.1076746    218.3312160
# Nbands, Nspin, Nk   =   2981     1     1
# E_F                 =    -4.2759 eV --> (shifted to ZERO)
# Broadening          =     0.0500 eV
#
#        E            N(up)  (=)   N(down)         Ntot
     -5.000000     43.164738     43.164738     86.329477
     -4.989990     44.574648     44.574648     89.149296
     -4.979980     45.319795     45.319795     90.639591
     -4.969970     45.288865     45.288865     90.577730
     -4.959960     44.374973     44.374973     88.749946
     -4.949950     42.555640     42.555640     85.111279
     -4.939940     39.956362     39.956362     79.912724
     -4.929930     36.877877     36.877877     73.755754
     -4.919920     33.788060     33.788060     67.576119
     -4.909910     31.284647     31.284647     62.569293
     -4.899900     30.023146     30.023146     60.046293
     -4.889890     30.592517     30.592517     61.185034
     -4.879880     33.333495     33.333495     66.666991
     -4.869870     38.139293     38.139293     76.278587
     -4.859860     44.331145     44.331145     88.662291
     -4.849850     50.713806     50.713806    101.427611
     -4.839840     55.854894     55.854894    111.709788
     -4.829830     58.515114     58.515114    117.030228
     -4.819820     58.054153     58.054153    116.108306
     -4.809810     54.625271     54.625271    109.250543
     -4.799800     49.070518     49.070518     98.141036
     -4.789790     42.580468     42.580468     85.160937
     -4.779780     36.290812     36.290812     72.581624
     -4.769770     30.989934     30.989934     61.979867
     -4.759760     27.021119     27.021119     54.042238
     -4.749750     24.352403     24.352403     48.704806
     -4.739740     22.724865     22.724865     45.449729
     -4.729730     21.794454     21.794454     43.588908
     -4.719720     21.224379     21.224379     42.448758
     -4.709710     20.726507     20.726507     41.453015
     -4.699700     20.072964     20.072964     40.145929
     -4.689690     19.104382     19.104382     38.208763
     -4.679680     17.754097     17.754097     35.508194
     -4.669670     16.090769     16.090769     32.181538
     -4.659660     14.361047     14.361047     28.722095
     -4.649650     13.000681     13.000681     26.001362
     -4.639640     12.585810     12.585810     25.171621
     -4.629630     13.714895     13.714895     27.429790
     -4.619620     16.836925     16.836925     33.673849
     -4.609610     22.066184     22.066184     44.132367
     -4.599600     29.044153     29.044153     58.088306
     -4.589590     36.917182     36.917182     73.834365
     -4.579580     44.479298     44.479298     88.958596
     -4.569570     50.473897     50.473897    100.947794
     -4.559560     53.971353     53.971353    107.942707
     -4.549550     54.682654     54.682654    109.365307
     -4.539540     53.073563     53.073563    106.147125
     -4.529530     50.218372     50.218372    100.436743
     -4.519520     47.442130     47.442130     94.884260
     -4.509510     45.887810     45.887810     91.775621
     -4.499499     46.167241     46.167241     92.334482
     -4.489489     48.207932     48.207932     96.415865
     -4.479479     51.323844     51.323844    102.647688
     -4.469469     54.459494     54.459494    108.918988
     -4.459459     56.512568     56.512568    113.025137
     -4.449449     56.635349     56.635349    113.270698
     -4.439439     54.438745     54.438745    108.877489
     -4.429429     50.060302     50.060302    100.120603
     -4.419419     44.098365     44.098365     88.196730
     -4.409409     37.448489     37.448489     74.896977
     -4.399399     31.095556     31.095556     62.191112
     -4.389389     25.912274     25.912274     51.824547
     -4.379379     22.499596     22.499596     44.999191
     -4.369369     21.090697     21.090697     42.181394
     -4.359359     21.533412     21.533412     43.066823
     -4.349349     23.359443     23.359443     46.718886
     -4.339339     25.931188     25.931188     51.862376
     -4.329329     28.629169     28.629169     57.258337
     -4.319319     31.020817     31.020817     62.041635
     -4.309309     32.953237     32.953237     65.906474
     -4.299299     34.541940     34.541940     69.083879
     -4.289289     36.067957     36.067957     72.135914
     -4.279279     37.824665     37.824665     75.649330
     -4.269269     39.963714     39.963714     79.927428
     -4.259259     42.384809     42.384809     84.769619
     -4.249249     44.707592     44.707592     89.415183
     -4.239239     46.352500     46.352500     92.704999
     -4.229229     46.727049     46.727049     93.454098
     -4.219219     45.462139     45.462139     90.924278
     -4.209209     42.596749     42.596749     85.193498
     -4.199199     38.610589     38.610589     77.221178
     -4.189189     34.270709     34.270709     68.541418
     -4.179179     30.357449     30.357449     60.714899
     -4.169169     27.403047     27.403047     54.806095
     -4.159159     25.566402     25.566402     51.132803
     -4.149149     24.688228     24.688228     49.376456
     -4.139139     24.475084     24.475084     48.950168
     -4.129129     24.703360     24.703360     49.406721
     -4.119119     25.336971     25.336971     50.673942
     -4.109109     26.502708     26.502708     53.005416
     -4.099099     28.338362     28.338362     56.676724
     -4.089089     30.794390     30.794390     61.588780
     -4.079079     33.504012     33.504012     67.008025
     -4.069069     35.815917     35.815917     71.631833
     -4.059059     37.004878     37.004878     74.009757
     -4.049049     36.572743     36.572743     73.145486
     -4.039039     34.487745     34.487745     68.975491
     -4.029029     31.232912     31.232912     62.465825
     -4.019019     27.637535     27.637535     55.275071
     -4.009009     24.584647     24.584647     49.169294
     -3.998999     22.744973     22.744973     45.489947
     -3.988989     22.451179     22.451179     44.902358
     -3.978979     23.728843     23.728843     47.457685
     -3.968969     26.413358     26.413358     52.826715
     -3.958959     30.259166     30.259166     60.518331
     -3.948949     34.991128     34.991128     69.982256
     -3.938939     40.311968     40.311968     80.623936
     -3.928929     45.911800     45.911800     91.823601
     -3.918919     51.506276     51.506276    103.012551
     -3.908909     56.883658     56.883658    113.767316
     -3.898899     61.912891     61.912891    123.825783
     -3.888889     66.481443     66.481443    132.962887
     -3.878879     70.383158     70.383158    140.766315
     -3.868869     73.225184     73.225184    146.450369
     -3.858859     74.432721     74.432721    148.865443
     -3.848849     73.388786     73.388786    146.777573
     -3.838839     69.673045     69.673045    139.346089
     -3.828829     63.299243     63.299243    126.598486
     -3.818819     54.834297     54.834297    109.668594
     -3.808809     45.327585     45.327585     90.655170
     -3.798799     36.064192     36.064192     72.128384
     -3.788789     28.233958     28.233958     56.467916
     -3.778779     22.638233     22.638233     45.276466
     -3.768769     19.528838     19.528838     39.057676
     -3.758759     18.612956     18.612956     37.225912
     -3.748749     19.199198     19.199198     38.398396
     -3.738739     20.426639     20.426639     40.853278
     -3.728729     21.511402     21.511402     43.022804
     -3.718719     21.953274     21.953274     43.906548
     -3.708709     21.657810     21.657810     43.315621
     -3.698699     20.945033     20.945033     41.890066
     -3.688689     20.437019     20.437019     40.874038
     -3.678679     20.845722     20.845722     41.691444
     -3.668669     22.715739     22.715739     45.431478
     -3.658659     26.202993     26.202993     52.405987
     -3.648649     30.972555     30.972555     61.945110
     -3.638639     36.264726     36.264726     72.529453
     -3.628629     41.113330     41.113330     82.226660
     -3.618619     44.632516     44.632516     89.265031
     -3.608609     46.257660     46.257660     92.515321
     -3.598599     45.853889     45.853889     91.707778
     -3.588589     43.675850     43.675850     87.351700
     -3.578579     40.228815     40.228815     80.457631
     -3.568569     36.104506     36.104506     72.209012
     -3.558559     31.843477     31.843477     63.686953
     -3.548549     27.841174     27.841174     55.682349
     -3.538539     24.298339     24.298339     48.596678
     -3.528529     21.220337     21.220337     42.440675
     -3.518519     18.472112     18.472112     36.944223
     -3.508509     15.878663     15.878663     31.757325
     -3.498498     13.334386     13.334386     26.668773
     -3.488488     10.873161     10.873161     21.746323
     -3.478478      8.668895      8.668895     17.337789
     -3.468468      6.971624      6.971624     13.943247
     -3.458458      6.012104      6.012104     12.024208
     -3.448448      5.913131      5.913131     11.826263
     -3.438438      6.634263      6.634263     13.268526
     -3.428428      7.963354      7.963354     15.926708
     -3.418418      9.560420      9.560420     19.120841
     -3.408408     11.050727     11.050727     22.101454
     -3.398398     12.147011     12.147011     24.294021
     -3.388388     12.760100     12.760100     25.520200
     -3.378378     13.049684     13.049684     26.099368
     -3.368368     13.385855     13.385855     26.771710
     -3.358358     14.231362     14.231362     28.462723
     -3.348348     15.990041     15.990041     31.980082
     -3.338338     18.875351     18.875351     37.750703
     -3.328328     22.832039     22.832039     45.664078
     -3.318318     27.515191     27.515191     55.030381
     -3.308308     32.319312     32.319312     64.638624
     -3.298298     36.459805     36.459805     72.919611
     -3.288288     39.117709     39.117709     78.235417
     -3.278278     39.639733     39.639733     79.279466
     -3.268268     37.741009     37.741009     75.482017
     -3.258258     33.623716     33.623716     67.247432
     -3.248248     27.941107     27.941107     55.882215
     -3.238238     21.606509     21.606509     43.213018
     -3.228228     15.527402     15.527402     31.054804
     -3.218218     10.380070     10.380070     20.760140
     -3.208208      6.508920      6.508920     13.017841
     -3.198198      3.963099      3.963099      7.926199
     -3.188188      2.619837      2.619837      5.239674
     -3.178178      2.321028      2.321028      4.642057
     -3.168168      2.965959      2.965959      5.931917
     -3.158158      4.537234      4.537234      9.074469
     -3.148148      7.067878      7.067878     14.135756
     -3.138138     10.575667     10.575667     21.151334
     -3.128128     14.995789     14.995789     29.991578
     -3.118118     20.137409     20.137409     40.274818
     -3.108108     25.677674     25.677674     51.355348
     -3.098098     31.193518     31.193518     62.387036
     -3.088088     36.222505     36.222505     72.445009
     -3.078078     40.339297     40.339297     80.678595
     -3.068068     43.230098     43.230098     86.460196
     -3.058058     44.742129     44.742129     89.484257
     -3.048048     44.886116     44.886116     89.772233
     -3.038038     43.786682     43.786682     87.573364
     -3.028028     41.605976     41.605976     83.211952
     -3.018018     38.488821     38.488821     76.977643
     -3.008008     34.569136     34.569136     69.138271
     -2.997998     30.036260     30.036260     60.072520
     -2.987988     25.214536     25.214536     50.429072
     -2.977978     20.595474     20.595474     41.190947
     -2.967968     16.789311     16.789311     33.578622
     -2.957958     14.408358     14.408358     28.816716
     -2.947948     13.924761     13.924761     27.849522
     -2.937938     15.546438     15.546438     31.092876
     -2.927928     19.139680     19.139680     38.279360
     -2.917918     24.215017     24.215017     48.430035
     -2.907908     29.989151     29.989151     59.978303
     -2.897898     35.527809     35.527809     71.055617
     -2.887888     39.950483     39.950483     79.900966
     -2.877878     42.643832     42.643832     85.287664
     -2.867868     43.408549     43.408549     86.817098
     -2.857858     42.476767     42.476767     84.953535
     -2.847848     40.385908     40.385908     80.771815
     -2.837838     37.758433     37.758433     75.516866
     -2.827828     35.081285     35.081285     70.162571
     -2.817818     32.578326     32.578326     65.156652
     -2.807808     30.222221     30.222221     60.444443
     -2.797798     27.862606     27.862606     55.725213
     -2.787788     25.391402     25.391402     50.782804
     -2.777778     22.853392     22.853392     45.706783
     -2.767768     20.446940     20.446940     40.893879
     -2.757758     18.425398     18.425398     36.850796
     -2.747748     16.967105     16.967105     33.934209
     -2.737738     16.097652     16.097652     32.195304
     -2.727728     15.712348     15.712348     31.424696
     -2.717718     15.680591     15.680591     31.361183
     -2.707708     15.958548     15.958548     31.917096
     -2.697698     16.628840     16.628840     33.257680
     -2.687688     17.833486     17.833486     35.666972
     -2.677678     19.639931     19.639931     39.279862
     -2.667668     21.930768     21.930768     43.861537
     -2.657658     24.398979     24.398979     48.797958
     -2.647648     26.664301     26.664301     53.328602
     -2.637638     28.445180     28.445180     56.890360
     -2.627628     29.680814     29.680814     59.361627
     -2.617618     30.528925     30.528925     61.057849
     -2.607608     31.246566     31.246566     62.493132
     -2.597598     32.034665     32.034665     64.069330
     -2.587588     32.939587     32.939587     65.879174
     -2.577578     33.852111     33.852111     67.704221
     -2.567568     34.572905     34.572905     69.145810
     -2.557558     34.882017     34.882017     69.764034
     -2.547548     34.576889     34.576889     69.153777
     -2.537538     33.494512     33.494512     66.989023
     -2.527528     31.555387     31.555387     63.110774
     -2.517518     28.838500     28.838500     57.677000
     -2.507508     25.646378     25.646378     51.292756
     -2.497497     22.497189     22.497189     44.994377
     -2.487487     20.011382     20.011382     40.022765
     -2.477477     18.723352     18.723352     37.446704
     -2.467467     18.899296     18.899296     37.798593
     -2.457457     20.447886     20.447886     40.895772
     -2.447447     22.968831     22.968831     45.937662
     -2.437437     25.920051     25.920051     51.840102
     -2.427427     28.828796     28.828796     57.657592
     -2.417417     31.450839     31.450839     62.901678
     -2.407407     33.804717     33.804717     67.609435
     -2.397397     36.065857     36.065857     72.131714
     -2.387387     38.372813     38.372813     76.745626
     -2.377377     40.643357     40.643357     81.286713
     -2.367367     42.498973     42.498973     84.997946
     -2.357357     43.349519     43.349519     86.699038
     -2.347347     42.614082     42.614082     85.228163
     -2.337337     39.984422     39.984422     79.968845
     -2.327327     35.610143     35.610143     71.220286
     -2.317317     30.117990     30.117990     60.235979
     -2.307307     24.456009     24.456009     48.912019
     -2.297297     19.632848     19.632848     39.265696
     -2.287287     16.459351     16.459351     32.918703
     -2.277277     15.379855     15.379855     30.759710
     -2.267267     16.426651     16.426651     32.853302
     -2.257257     19.279886     19.279886     38.559773
     -2.247247     23.389042     23.389042     46.778083
     -2.237237     28.109967     28.109967     56.219934
     -2.227227     32.820831     32.820831     65.641663
     -2.217217     36.993903     36.993903     73.987805
     -2.207207     40.218422     40.218422     80.436845
     -2.197197     42.191957     42.191957     84.383914
     -2.187187     42.713270     42.713270     85.426541
     -2.177177     41.704572     41.704572     83.409144
     -2.167167     39.261415     39.261415     78.522831
     -2.157157     35.691737     35.691737     71.383473
     -2.147147     31.491555     31.491555     62.983110
     -2.137137     27.232601     27.232601     54.465201
     -2.127127     23.394219     23.394219     46.788439
     -2.117117     20.218476     20.218476     40.436952
     -2.107107     17.665792     17.665792     35.331583
     -2.097097     15.494762     15.494762     30.989525
     -2.087087     13.419292     13.419292     26.838583
     -2.077077     11.256626     11.256626     22.513252
     -2.067067      8.995210      8.995210     17.990421
     -2.057057      6.765685      6.765685     13.531371
     -2.047047      4.752187      4.752187      9.504373
     -2.037037      3.102186      3.102186      6.204372
     -2.027027      1.877083      1.877083      3.754167
     -2.017017      1.052486      1.052486      2.104971
     -2.007007      0.550833      0.550833      1.101665
     -1.996997      0.281685      0.281685      0.563369
     -1.986987      0.172929      0.172929      0.345858
     -1.976977      0.188435      0.188435      0.376870
     -1.966967      0.335431      0.335431      0.670863
     -1.956957      0.665456      0.665456      1.330913
     -1.946947      1.268654      1.268654      2.537308
     -1.936937      2.257137      2.257137      4.514275
     -1.926927      3.733519      3.733519      7.467038
     -1.916917      5.747237      5.747237     11.494473
     -1.906907      8.251399      8.251399     16.502799
     -1.896897     11.079678     11.079678     22.159356
     -1.886887     13.959580     13.959580     27.919161
     -1.876877     16.564518     16.564518     33.129036
     -1.866867     18.590016     18.590016     37.180033
     -1.856857     19.829482     19.829482     39.658965
     -1.846847     20.226397     20.226397     40.452794
     -1.836837     19.888070     19.888070     39.776140
     -1.826827     19.054955     19.054955     38.109910
     -1.816817     18.029059     18.029059     36.058118
     -1.806807     17.079479     17.079479     34.158957
     -1.796797     16.359876     16.359876     32.719752
     -1.786787     15.877744     15.877744     31.755488
     -1.776777     15.534769     15.534769     31.069537
     -1.766767     15.216441     15.216441     30.432882
     -1.756757     14.874488     14.874488     29.748977
     -1.746747     14.547298     14.547298     29.094595
     -1.736737     14.305924     14.305924     28.611848
     -1.726727     14.168056     14.168056     28.336113
     -1.716717     14.048220     14.048220     28.096441
     -1.706707     13.788603     13.788603     27.577206
     -1.696697     13.257424     13.257424     26.514848
     -1.686687     12.451983     12.451983     24.903966
     -1.676677     11.536014     11.536014     23.072028
     -1.666667     10.779814     10.779814     21.559627
     -1.656657     10.430043     10.430043     20.860086
     -1.646647     10.577758     10.577758     21.155516
     -1.636637     11.095592     11.095592     22.191184
     -1.626627     11.679725     11.679725     23.359451
