# EIG2DOS: Utility for SIESTA to obtain the electronic density of states
#  E. Artacho, Apr 1999, A. Garcia, Apr 2012
#  Nick R. Papior, Feb 2017
# ------------------------------------------
# Eigenvalues calculated from a non-polarized calculation
# Eigenvalues read from siesta.EIG
# Kpoint weights read from siesta.KP
# Using smearing parameter:   0.0500
# Using 1000 points in the energy range
# Selected bands: 1 to: 2981
# Emin, Emax in file for selected band(s):    -27.0475210    218.3022040
# Nbands, Nspin, Nk   =   2981     1     1
# E_F                 =    -4.3101 eV --> (shifted to ZERO)
# Broadening          =     0.0500 eV
#
#        E            N(up)  (=)   N(down)         Ntot
     -5.000000     46.836348     46.836348     93.672695
     -4.989990     49.647278     49.647278     99.294556
     -4.979980     50.768447     50.768447    101.536894
     -4.969970     50.219778     50.219778    100.439555
     -4.959960     48.249200     48.249200     96.498401
     -4.949950     45.241100     45.241100     90.482200
     -4.939940     41.629559     41.629559     83.259118
     -4.929930     37.856588     37.856588     75.713175
     -4.919920     34.380862     34.380862     68.761724
     -4.909910     31.706771     31.706771     63.413541
     -4.899900     30.383318     30.383318     60.766636
     -4.889890     30.926297     30.926297     61.852594
     -4.879880     33.650432     33.650432     67.300864
     -4.869870     38.457385     38.457385     76.914770
     -4.859860     44.685169     44.685169     89.370338
     -4.849850     51.139275     51.139275    102.278551
     -4.839840     56.362169     56.362169    112.724338
     -4.829830     59.072629     59.072629    118.145259
     -4.819820     58.592856     58.592856    117.185712
     -4.809810     55.062240     55.062240    110.124480
     -4.799800     49.338174     49.338174     98.676348
     -4.789790     42.646462     42.646462     85.292925
     -4.779780     36.162011     36.162011     72.324021
     -4.769770     30.704158     30.704158     61.408317
     -4.759760     26.634785     26.634785     53.269570
     -4.749750     23.929629     23.929629     47.859258
     -4.739740     22.328656     22.328656     44.657312
     -4.729730     21.478411     21.478411     42.956822
     -4.719720     21.024989     21.024989     42.049977
     -4.709710     20.658335     20.658335     41.316670
     -4.699700     20.128682     20.128682     40.257364
     -4.689690     19.258577     19.258577     38.517155
     -4.679680     17.967269     17.967269     35.934538
     -4.669670     16.310507     16.310507     32.621013
     -4.659660     14.520973     14.520973     29.041945
     -4.649650     13.021545     13.021545     26.043090
     -4.639640     12.384459     12.384459     24.768918
     -4.629630     13.224383     13.224383     26.448767
     -4.619620     16.035326     16.035326     32.070651
     -4.609610     21.004307     21.004307     42.008614
     -4.599600     27.856888     27.856888     55.713776
     -4.589590     35.804151     35.804151     71.608301
     -4.579580     43.651001     43.651001     87.302002
     -4.569570     50.076703     50.076703    100.153405
     -4.559560     54.019073     54.019073    108.038146
     -4.549550     55.023579     55.023579    110.047158
     -4.539540     53.406675     53.406675    106.813350
     -4.529530     50.149638     50.149638    100.299276
     -4.519520     46.556110     46.556110     93.112220
     -4.509510     43.811286     43.811286     87.622573
     -4.499499     42.617696     42.617696     85.235393
     -4.489489     43.037098     43.037098     86.074196
     -4.479479     44.570531     44.570531     89.141062
     -4.469469     46.411474     46.411474     92.822948
     -4.459459     47.753166     47.753166     95.506331
     -4.449449     48.034520     48.034520     96.069039
     -4.439439     47.055619     47.055619     94.111238
     -4.429429     44.955752     44.955752     89.911503
     -4.419419     42.097992     42.097992     84.195985
     -4.409409     38.927499     38.927499     77.854997
     -4.399399     35.861084     35.861084     71.722168
     -4.389389     33.231824     33.231824     66.463649
     -4.379379     31.275032     31.275032     62.550063
     -4.369369     30.124164     30.124164     60.248328
     -4.359359     29.797143     29.797143     59.594287
     -4.349349     30.182614     30.182614     60.365229
     -4.339339     31.054758     31.054758     62.109516
     -4.329329     32.135373     32.135373     64.270746
     -4.319319     33.189386     33.189386     66.378772
     -4.309309     34.111486     34.111486     68.222972
     -4.299299     34.960335     34.960335     69.920669
     -4.289289     35.922309     35.922309     71.844617
     -4.279279     37.218271     37.218271     74.436543
     -4.269269     38.985495     38.985495     77.970989
     -4.259259     41.171639     41.171639     82.343278
     -4.249249     43.478722     43.478722     86.957443
     -4.239239     45.393467     45.393467     90.786934
     -4.229229     46.322064     46.322064     92.644127
     -4.219219     45.801448     45.801448     91.602897
     -4.209209     43.703389     43.703389     87.406777
     -4.199199     40.325006     40.325006     80.650012
     -4.189189     36.302598     36.302598     72.605196
     -4.179179     32.379355     32.379355     64.758710
     -4.169169     29.141798     29.141798     58.283595
     -4.159159     26.855903     26.855903     53.711806
     -4.149149     25.472289     25.472289     50.944579
     -4.139139     24.774399     24.774399     49.548798
     -4.129129     24.573311     24.573311     49.146622
     -4.119119     24.839962     24.839962     49.679925
     -4.109109     25.705620     25.705620     51.411240
     -4.099099     27.329912     27.329912     54.659824
     -4.089089     29.705317     29.705317     59.410635
     -4.079079     32.510126     32.510126     65.020252
     -4.069069     35.112436     35.112436     70.224872
     -4.059059     36.756946     36.756946     73.513891
     -4.049049     36.862461     36.862461     73.724921
     -4.039039     35.282515     35.282515     70.565030
     -4.029029     32.389781     32.389781     64.779562
     -4.019019     28.940270     28.940270     57.880540
     -4.009009     25.796278     25.796278     51.592556
     -3.998999     23.656408     23.656408     47.312815
     -3.988989     22.914410     22.914410     45.828819
     -3.978979     23.673002     23.673002     47.346004
     -3.968969     25.846505     25.846505     51.693011
     -3.958959     29.257919     29.257919     58.515837
     -3.948949     33.678573     33.678573     67.357145
     -3.938939     38.826019     38.826019     77.652038
     -3.928929     44.371350     44.371350     88.742701
     -3.918919     49.987294     49.987294     99.974588
     -3.908909     55.417051     55.417051    110.834103
     -3.898899     60.508061     60.508061    121.016122
     -3.888889     65.166283     65.166283    130.332566
     -3.878879     69.239470     69.239470    138.478940
     -3.868869     72.396247     72.396247    144.792493
     -3.858859     74.091159     74.091159    148.182318
     -3.848849     73.673809     73.673809    147.347618
     -3.838839     70.624850     70.624850    141.249699
     -3.828829     64.822939     64.822939    129.645877
     -3.818819     56.712278     56.712278    113.424556
     -3.808809     47.275754     47.275754     94.551508
     -3.798799     37.807819     37.807819     75.615638
     -3.788789     29.573711     29.573711     59.147422
     -3.778779     23.486130     23.486130     46.972261
     -3.768769     19.909371     19.909371     39.818743
     -3.758759     18.636993     18.636993     37.273986
     -3.748749     19.023205     19.023205     38.046411
     -3.738739     20.208813     20.208813     40.417625
     -3.728729     21.373363     21.373363     42.746727
     -3.718719     21.953619     21.953619     43.907238
     -3.708709     21.782094     21.782094     43.564188
     -3.698699     21.114587     21.114587     42.229173
     -3.688689     20.535476     20.535476     41.070951
     -3.678679     20.757434     20.757434     41.514867
     -3.668669     22.365771     22.365771     44.731543
     -3.658659     25.586077     25.586077     51.172154
     -3.648649     30.160465     30.160465     60.320930
     -3.638639     35.388640     35.388640     70.777280
     -3.628629     40.327539     40.327539     80.655078
     -3.618619     44.073525     44.073525     88.147051
     -3.608609     46.013532     46.013532     92.027064
     -3.598599     45.952090     45.952090     91.904181
     -3.588589     44.088403     44.088403     88.176805
     -3.578579     40.887443     40.887443     81.774885
     -3.568569     36.918621     36.918621     73.837241
     -3.558559     32.717600     32.717600     65.435200
     -3.548549     28.690930     28.690930     57.381859
     -3.538539     25.063412     25.063412     50.126824
     -3.528529     21.871013     21.871013     43.742026
     -3.518519     19.006625     19.006625     38.013250
     -3.508509     16.312415     16.312415     32.624831
     -3.498498     13.686241     13.686241     27.372483
     -3.488488     11.155162     11.155162     22.310324
     -3.478478      8.883092      8.883092     17.766184
     -3.468468      7.113514      7.113514     14.227029
     -3.458458      6.077368      6.077368     12.154736
     -3.448448      5.904020      5.904020     11.808040
     -3.438438      6.563156      6.563156     13.126312
     -3.428428      7.852249      7.852249     15.704498
     -3.418418      9.436030      9.436030     18.872060
     -3.408408     10.936011     10.936011     21.872021
     -3.398398     12.051615     12.051615     24.103229
     -3.388388     12.673528     12.673528     25.347057
     -3.378378     12.940677     12.940677     25.881354
     -3.368368     13.209025     13.209025     26.418050
     -3.358358     13.938955     13.938955     27.877910
     -3.348348     15.545014     15.545014     31.090028
     -3.338338     18.262914     18.262914     36.525827
     -3.328328     22.069046     22.069046     44.138092
     -3.318318     26.657324     26.657324     53.314648
     -3.308308     31.463440     31.463440     62.926880
     -3.298298     35.735551     35.735551     71.471102
     -3.288288     38.663068     38.663068     77.326135
     -3.278278     39.563200     39.563200     79.126401
     -3.268268     38.083418     38.083418     76.166836
     -3.258258     34.338262     34.338262     68.676524
     -3.248248     28.903595     28.903595     57.807190
     -3.238238     22.652239     22.652239     45.304478
     -3.228228     16.496301     16.496301     32.992601
     -3.218218     11.147365     11.147365     22.294731
     -3.208208      6.986609      6.986609     13.973218
     -3.198198      4.071509      4.071509      8.143018
     -3.188188      2.241051      2.241051      4.482102
     -3.178178      1.253231      1.253231      2.506462
     -3.168168      0.900523      0.900523      1.801046
     -3.158158      1.079053      1.079053      2.158105
     -3.148148      1.811247      1.811247      3.622493
     -3.138138      3.229765      3.229765      6.459530
     -3.128128      5.527905      5.527905     11.055809
     -3.118118      8.880445      8.880445     17.760889
     -3.108108     13.347007     13.347007     26.694014
     -3.098098     18.785158     18.785158     37.570316
     -3.088088     24.810929     24.810929     49.621857
     -3.078078     30.836769     30.836769     61.673538
     -3.068068     36.187334     36.187334     72.374668
     -3.058058     40.254883     40.254883     80.509765
     -3.048048     42.632914     42.632914     85.265829
     -3.038038     43.177858     43.177858     86.355715
     -3.028028     41.990224     41.990224     83.980449
     -3.018018     39.350748     39.350748     78.701496
     -3.008008     35.661710     35.661710     71.323421
     -2.997998     31.419458     31.419458     62.838917
     -2.987988     27.202845     27.202845     54.405690
     -2.977978     23.639155     23.639155     47.278309
     -2.967968     21.322541     21.322541     42.645083
     -2.957958     20.697601     20.697601     41.395202
     -2.947948     21.951345     21.951345     43.902691
     -2.937938     24.958024     24.958024     49.916047
     -2.927928     29.295650     29.295650     58.591299
     -2.917918     34.322884     34.322884     68.645769
     -2.907908     39.290754     39.290754     78.581508
     -2.897898     43.468102     43.468102     86.936203
     -2.887888     46.268116     46.268116     92.536231
     -2.877878     47.360678     47.360678     94.721357
     -2.867868     46.742267     46.742267     93.484533
     -2.857858     44.728661     44.728661     89.457321
     -2.847848     41.852980     41.852980     83.705960
     -2.837838     38.691761     38.691761     77.383523
     -2.827828     35.682883     35.682883     71.365766
     -2.817818     33.012576     33.012576     66.025151
     -2.807808     30.620709     30.620709     61.241417
     -2.797798     28.315946     28.315946     56.631892
     -2.787788     25.936516     25.936516     51.873032
     -2.777778     23.470261     23.470261     46.940521
     -2.767768     21.072880     21.072880     42.145760
     -2.757758     18.982614     18.982614     37.965228
     -2.747748     17.389523     17.389523     34.779046
     -2.737738     16.342766     16.342766     32.685532
     -2.727728     15.753671     15.753671     31.507342
     -2.717718     15.490135     15.490135     30.980270
     -2.707708     15.497203     15.497203     30.994406
     -2.697698     15.858964     15.858964     31.717927
     -2.687688     16.753053     16.753053     33.506107
     -2.677678     18.319835     18.319835     36.639670
     -2.667668     20.528312     20.528312     41.056624
     -2.657658     23.129350     23.129350     46.258700
     -2.647648     25.735133     25.735133     51.470267
     -2.637638     27.983407     27.983407     55.966813
     -2.627628     29.689030     29.689030     59.378061
     -2.617618     30.893266     30.893266     61.786532
     -2.607608     31.789006     31.789006     63.578012
     -2.597598     32.579916     32.579916     65.159833
     -2.587588     33.365325     33.365325     66.730651
     -2.577578     34.108875     34.108875     68.217751
     -2.567568     34.680036     34.680036     69.360072
     -2.557558     34.912852     34.912852     69.825703
     -2.547548     34.639179     34.639179     69.278359
     -2.537538     33.703065     33.703065     67.406129
     -2.527528     31.995136     31.995136     63.990272
     -2.517518     29.527138     29.527138     59.054276
     -2.507508     26.514552     26.514552     53.029105
     -2.497497     23.400537     23.400537     46.801073
     -2.487487     20.773114     20.773114     41.546228
     -2.477477     19.189628     19.189628     38.379256
     -2.467467     18.983442     18.983442     37.966884
     -2.457457     20.146445     20.146445     40.292889
     -2.447447     22.346906     22.346906     44.693811
     -2.437437     25.076938     25.076938     50.153876
     -2.427427     27.861682     27.861682     55.723363
     -2.417417     30.432732     30.432732     60.865464
     -2.407407     32.784433     32.784433     65.568867
     -2.397397     35.086669     35.086669     70.173338
     -2.387387     37.497088     37.497088     74.994176
     -2.377377     39.967125     39.967125     79.934250
     -2.367367     42.144501     42.144501     84.289002
     -2.357357     43.434084     43.434084     86.868168
     -2.347347     43.205408     43.205408     86.410816
     -2.337337     41.062022     41.062022     82.124045
     -2.327327     37.052013     37.052013     74.104027
     -2.317317     31.722013     31.722013     63.444026
     -2.307307     25.989370     25.989370     51.978740
     -2.297297     20.889688     20.889688     41.779376
     -2.287287     17.304275     17.304275     34.608551
     -2.277277     15.763558     15.763558     31.527116
     -2.267267     16.373851     16.373851     32.747702
     -2.257257     18.861063     18.861063     37.722127
     -2.247247     22.691652     22.691652     45.383304
     -2.237237     27.221597     27.221597     54.443195
     -2.227227     31.828542     31.828542     63.657084
     -2.217217     35.994272     35.994272     71.988544
     -2.207207     39.325858     39.325858     78.651715
     -2.197197     41.532727     41.532727     83.065454
     -2.187187     42.400689     42.400689     84.801378
     -2.177177     41.803228     41.803228     83.606456
     -2.167167     39.757992     39.757992     79.515984
     -2.157157     36.490213     36.490213     72.980426
     -2.147147     32.440000     32.440000     64.880000
     -2.137137     28.172625     28.172625     56.345251
     -2.127127     24.211611     24.211611     48.423221
     -2.117117     20.872230     20.872230     41.744461
     -2.107107     18.183950     18.183950     36.367900
     -2.097097     15.942672     15.942672     31.885343
     -2.087087     13.859040     13.859040     27.718080
     -2.077077     11.718083     11.718083     23.436165
     -2.067067      9.469582      9.469582     18.939164
     -2.057057      7.218910      7.218910     14.437820
     -2.047047      5.146339      5.146339     10.292678
     -2.037037      3.412509      3.412509      6.825019
     -2.027027      2.098336      2.098336      4.196671
     -2.017017      1.195538      1.195538      2.391075
     -2.007007      0.634580      0.634580      1.269159
     -1.996997      0.325280      0.325280      0.650560
     -1.986987      0.190914      0.190914      0.381829
     -1.976977      0.188864      0.188864      0.377728
     -1.966967      0.319874      0.319874      0.639747
     -1.956957      0.629854      0.629854      1.259709
     -1.946947      1.204695      1.204695      2.409390
     -1.936937      2.154367      2.154367      4.308734
     -1.926927      3.582446      3.582446      7.164892
     -1.916917      5.543152      5.543152     11.086304
     -1.906907      7.997941      7.997941     15.995881
     -1.896897     10.790874     10.790874     21.581748
     -1.886887     13.659460     13.659460     27.318920
     -1.876877     16.284130     16.284130     32.568260
     -1.866867     18.362310     18.362310     36.724620
     -1.856857     19.682741     19.682741     39.365483
     -1.846847     20.177101     20.177101     40.354203
     -1.836837     19.934519     19.934519     39.869039
     -1.826827     19.173173     19.173173     38.346347
     -1.816817     18.171282     18.171282     36.342565
     -1.806807     17.172610     17.172610     34.345220
     -1.796797     16.298711     16.298711     32.597422
     -1.786787     15.509018     15.509018     31.018037
     -1.776777     14.635393     14.635393     29.270787
     -1.766767     13.480527     13.480527     26.961054
     -1.756757     11.932073     11.932073     23.864147
     -1.746747     10.034528     10.034528     20.069056
     -1.736737      7.987504      7.987504     15.975009
     -1.726727      6.083019      6.083019     12.166039
     -1.716717      4.624255      4.624255      9.248510
     -1.706707      3.865633      3.865633      7.731266
     -1.696697      3.986258      3.986258      7.972516
     -1.686687      5.080026      5.080026     10.160052
     -1.676677      7.137348      7.137348     14.274697
     -1.666667     10.009910     10.009910     20.019821
     -1.656657     13.377544     13.377544     26.755087
     -1.646647     16.753892     16.753892     33.507785
     -1.636637     19.559715     19.559715     39.119430
     -1.626627     21.260320     21.260320     42.520640
