# EIG2DOS: Utility for SIESTA to obtain the electronic density of states
#  E. Artacho, Apr 1999, A. Garcia, Apr 2012
#  Nick R. Papior, Feb 2017
# ------------------------------------------
# Eigenvalues calculated from a non-polarized calculation
# Eigenvalues read from siesta.EIG
# Kpoint weights read from siesta.KP
# Using smearing parameter:   0.0500
# Using 1000 points in the energy range
# Selected bands: 1 to: 2981
# Emin, Emax in file for selected band(s):    -27.1251576    218.3310780
# Nbands, Nspin, Nk   =   2981     1     1
# E_F                 =    -4.2790 eV --> (shifted to ZERO)
# Broadening          =     0.0500 eV
#
#        E            N(up)  (=)   N(down)         Ntot
     -5.000000     41.378633     41.378633     82.757266
     -4.989990     43.049169     43.049169     86.098339
     -4.979980     44.301000     44.301000     88.602001
     -4.969970     44.940811     44.940811     89.881623
     -4.959960     44.731433     44.731433     89.462866
     -4.949950     43.513078     43.513078     87.026155
     -4.939940     41.307124     41.307124     82.614248
     -4.929930     38.364363     38.364363     76.728727
     -4.919920     35.153871     35.153871     70.307741
     -4.909910     32.308586     32.308586     64.617172
     -4.899900     30.538200     30.538200     61.076401
     -4.889890     30.502270     30.502270     61.004540
     -4.879880     32.635202     32.635202     65.270404
     -4.869870     36.948093     36.948093     73.896187
     -4.859860     42.885203     42.885203     85.770405
     -4.849850     49.339086     49.339086     98.678172
     -4.839840     54.886028     54.886028    109.772056
     -4.829830     58.196262     58.196262    116.392524
     -4.819820     58.462218     58.462218    116.924436
     -4.809810     55.652183     55.652183    111.304366
     -4.799800     50.472872     50.472872    100.945745
     -4.789790     44.071315     44.071315     88.142630
     -4.779780     37.631123     37.631123     75.262246
     -4.769770     32.044889     32.044889     64.089777
     -4.759760     27.769753     27.769753     55.539507
     -4.749750     24.861020     24.861020     49.722041
     -4.739740     23.103659     23.103659     46.207319
     -4.729730     22.154107     22.154107     44.308214
     -4.719720     21.642884     21.642884     43.285768
     -4.709710     21.231633     21.231633     42.463265
     -4.699700     20.642133     20.642133     41.284267
     -4.689690     19.679006     19.679006     39.358012
     -4.679680     18.260131     18.260131     36.520261
     -4.669670     16.455054     16.455054     32.910107
     -4.659660     14.516570     14.516570     29.033139
     -4.649650     12.881856     12.881856     25.763713
     -4.639640     12.122818     12.122818     24.245636
     -4.629630     12.839095     12.839095     25.678190
     -4.619620     15.504980     15.504980     31.009959
     -4.609610     20.299428     20.299428     40.598855
     -4.599600     26.966557     26.966557     53.933113
     -4.589590     34.767515     34.767515     69.535029
     -4.579580     42.578326     42.578326     85.156652
     -4.569570     49.147303     49.147303     98.294606
     -4.559560     53.455045     53.455045    106.910089
     -4.549550     55.053243     55.053243    110.106486
     -4.539540     54.239477     54.239477    108.478955
     -4.529530     51.976607     51.976607    103.953214
     -4.519520     49.568692     49.568692     99.137384
     -4.509510     48.210017     48.210017     96.420034
     -4.499499     48.577875     48.577875     97.155750
     -4.489489     50.619470     50.619470    101.238941
     -4.479479     53.602059     53.602059    107.204117
     -4.469469     56.392097     56.392097    112.784194
     -4.459459     57.847215     57.847215    115.694431
     -4.449449     57.174432     57.174432    114.348863
     -4.439439     54.137026     54.137026    108.274052
     -4.429429     49.064655     49.064655     98.129310
     -4.419419     42.702094     42.702094     85.404187
     -4.409409     35.983290     35.983290     71.966580
     -4.399399     29.818156     29.818156     59.636312
     -4.389389     24.939834     24.939834     49.879668
     -4.379379     21.814525     21.814525     43.629050
     -4.369369     20.596347     20.596347     41.192693
     -4.359359     21.121080     21.121080     42.242160
     -4.349349     22.951850     22.951850     45.903700
     -4.339339     25.489327     25.489327     50.978655
     -4.329329     28.132509     28.132509     56.265018
     -4.319319     30.443123     30.443123     60.886245
     -4.309309     32.254170     32.254170     64.508339
     -4.299299     33.681976     33.681976     67.363952
     -4.289289     35.038928     35.038928     70.077856
     -4.279279     36.678417     36.678417     73.356834
     -4.269269     38.821441     38.821441     77.642882
     -4.259259     41.418547     41.418547     82.837095
     -4.249249     44.097878     44.097878     88.195756
     -4.239239     46.236117     46.236117     92.472233
     -4.229229     47.152594     47.152594     94.305188
     -4.219219     46.368807     46.368807     92.737614
     -4.209209     43.824636     43.824636     87.649273
     -4.199199     39.940743     39.940743     79.881485
     -4.189189     35.482616     35.482616     70.965232
     -4.179179     31.284697     31.284697     62.569394
     -4.169169     27.968294     27.968294     55.936589
     -4.159159     25.784950     25.784950     51.569899
     -4.149149     24.641442     24.641442     49.282884
     -4.139139     24.265465     24.265465     48.530930
     -4.129129     24.409001     24.409001     48.818001
     -4.119119     24.983708     24.983708     49.967417
     -4.109109     26.066959     26.066959     52.133918
     -4.099099     27.781654     27.781654     55.563309
     -4.089089     30.114193     30.114193     60.228385
     -4.079079     32.772522     32.772522     65.545044
     -4.069069     35.179523     35.179523     70.359046
     -4.059059     36.636314     36.636314     73.272629
     -4.049049     36.596520     36.596520     73.193040
     -4.039039     34.918728     34.918728     69.837456
     -4.029029     31.962969     31.962969     63.925937
     -4.019019     28.477623     28.477623     56.955246
     -4.009009     25.337751     25.337751     50.675503
     -3.998999     23.270413     23.270413     46.540826
     -3.988989     22.691380     22.691380     45.382759
     -3.978979     23.695819     23.695819     47.391638
     -3.968969     26.154371     26.154371     52.308742
     -3.958959     29.825797     29.825797     59.651594
     -3.948949     34.424349     34.424349     68.848699
     -3.938939     39.640301     39.640301     79.280602
     -3.928929     45.152905     45.152905     90.305810
     -3.918919     50.667236     50.667236    101.334472
     -3.908909     55.964337     55.964337    111.928675
     -3.898899     60.919738     60.919738    121.839476
     -3.888889     65.452026     65.452026    130.904051
     -3.878879     69.409805     69.409805    138.819609
     -3.868869     72.459435     72.459435    144.918870
     -3.858859     74.057831     74.057831    148.115662
     -3.848849     73.563751     73.563751    147.127501
     -3.838839     70.469181     70.469181    140.938361
     -3.828829     64.658150     64.658150    129.316301
     -3.818819     56.568432     56.568432    113.136864
     -3.808809     47.165608     47.165608     94.331216
     -3.798799     37.723577     37.723577     75.447155
     -3.788789     29.493605     29.493605     58.987209
     -3.778779     23.387386     23.387386     46.774772
     -3.768769     19.780919     19.780919     39.561837
     -3.758759     18.485916     18.485916     36.971832
     -3.748749     18.872366     18.872366     37.744732
     -3.738739     20.087078     20.087078     40.174157
     -3.728729     21.302703     21.302703     42.605405
     -3.718719     21.938257     21.938257     43.876514
     -3.708709     21.804068     21.804068     43.608137
     -3.698699     21.137910     21.137910     42.275820
     -3.688689     20.518268     20.518268     41.036535
     -3.678679     20.668404     20.668404     41.336809
     -3.668669     22.199030     22.199030     44.398061
     -3.658659     25.367635     25.367635     50.735271
     -3.648649     29.942114     29.942114     59.884227
     -3.638639     35.230148     35.230148     70.460296
     -3.628629     40.274166     40.274166     80.548333
     -3.618619     44.139036     44.139036     88.278071
     -3.608609     46.176602     46.176602     92.353203
     -3.598599     46.167050     46.167050     92.334100
     -3.588589     44.303932     44.303932     88.607865
     -3.578579     41.063824     41.063824     82.127648
     -3.568569     37.036888     37.036888     74.073776
     -3.558559     32.779631     32.779631     65.559261
     -3.548549     28.713833     28.713833     57.427665
     -3.538539     25.072171     25.072171     50.144342
     -3.528529     21.891342     21.891342     43.782683
     -3.518519     19.058265     19.058265     38.116530
     -3.508509     16.403186     16.403186     32.806372
     -3.498498     13.808282     13.808282     27.616564
     -3.488488     11.285162     11.285162     22.570324
     -3.478478      8.987169      8.987169     17.974338
     -3.468468      7.155696      7.155696     14.311392
     -3.458458      6.029656      6.029656     12.059312
     -3.448448      5.755938      5.755938     11.511877
     -3.438438      6.328668      6.328668     12.657337
     -3.428428      7.571477      7.571477     15.142954
     -3.418418      9.169223      9.169223     18.338447
     -3.408408     10.749046     10.749046     21.498091
     -3.398398     11.996046     11.996046     23.992091
     -3.388388     12.767736     12.767736     25.535472
     -3.378378     13.159260     13.159260     26.318520
     -3.368368     13.484499     13.484499     26.968998
     -3.358358     14.175249     14.175249     28.350498
     -3.348348     15.639284     15.639284     31.278568
     -3.338338     18.131671     18.131671     36.263343
     -3.328328     21.674512     21.674512     43.349024
     -3.318318     26.027950     26.027950     52.055899
     -3.308308     30.699703     30.699703     61.399407
     -3.298298     34.992814     34.992814     69.985628
     -3.288288     38.110970     38.110970     76.221939
     -3.278278     39.333553     39.333553     78.667106
     -3.268268     38.227825     38.227825     76.455650
     -3.258258     34.814903     34.814903     69.629806
     -3.248248     29.599187     29.599187     59.198374
     -3.238238     23.428363     23.428363     46.856726
     -3.228228     17.240010     17.240010     34.480021
     -3.218218     11.809334     11.809334     23.618667
     -3.208208      7.601935      7.601935     15.203870
     -3.198198      4.768993      4.768993      9.537986
     -3.188188      3.248539      3.248539      6.497077
     -3.178178      2.898565      2.898565      5.797130
     -3.168168      3.595876      3.595876      7.191752
     -3.158158      5.270605      5.270605     10.541209
     -3.148148      7.884298      7.884298     15.768596
     -3.138138     11.381941     11.381941     22.763882
     -3.128128     15.650220     15.650220     31.300440
     -3.118118     20.500209     20.500209     41.000418
     -3.108108     25.673535     25.673535     51.347069
     -3.098098     30.859667     30.859667     61.719335
     -3.088088     35.714947     35.714947     71.429894
     -3.078078     39.885428     39.885428     79.770856
     -3.068068     43.041530     43.041530     86.083061
     -3.058058     44.924120     44.924120     89.848241
     -3.048048     45.386390     45.386390     90.772779
     -3.038038     44.410990     44.410990     88.821981
     -3.028028     42.096235     42.096235     84.192469
     -3.018018     38.627790     38.627790     77.255580
     -3.008008     34.261758     34.261758     68.523516
     -2.997998     29.331036     29.331036     58.662072
     -2.987988     24.261297     24.261297     48.522595
     -2.977978     19.568358     19.568358     39.136715
     -2.967968     15.816489     15.816489     31.632978
     -2.957958     13.538640     13.538640     27.077279
     -2.947948     13.136820     13.136820     26.273639
     -2.937938     14.785605     14.785605     29.571211
     -2.927928     18.359712     18.359712     36.719423
     -2.917918     23.406958     23.406958     46.813917
     -2.907908     29.189498     29.189498     58.378997
     -2.897898     34.807358     34.807358     69.614716
     -2.887888     39.390957     39.390957     78.781915
     -2.877878     42.311628     42.311628     84.623257
     -2.867868     43.334438     43.334438     86.668876
     -2.857858     42.647658     42.647658     85.295317
     -2.847848     40.750446     40.750446     81.500892
     -2.837838     38.243260     38.243260     76.486519
     -2.827828     35.610920     35.610920     71.221841
     -2.817818     33.090617     33.090617     66.181234
     -2.807808     30.674091     30.674091     61.348183
     -2.797798     28.226406     28.226406     56.452812
     -2.787788     25.647512     25.647512     51.295024
     -2.777778     22.986386     22.986386     45.972773
     -2.767768     20.449116     20.449116     40.898231
     -2.757758     18.304736     18.304736     36.609472
     -2.747748     16.751385     16.751385     33.502771
     -2.737738     15.826934     15.826934     31.653868
     -2.727728     15.419324     15.419324     30.838649
     -2.717718     15.368474     15.368474     30.736948
     -2.707708     15.591889     15.591889     31.183777
     -2.697698     16.148399     16.148399     32.296798
     -2.687688     17.192438     17.192438     34.384875
     -2.677678     18.843140     18.843140     37.686281
     -2.667668     21.052462     21.052462     42.104923
     -2.657658     23.563373     23.563373     47.126746
     -2.647648     25.995029     25.995029     51.990058
     -2.637638     28.009709     28.009709     56.019417
     -2.627628     29.461201     29.461201     58.922402
     -2.617618     30.435360     30.435360     60.870721
     -2.607608     31.164480     31.164480     62.328961
     -2.597598     31.877577     31.877577     63.755153
     -2.587588     32.680804     32.680804     65.361607
     -2.577578     33.526179     33.526179     67.052357
     -2.567568     34.256874     34.256874     68.513747
     -2.557558     34.672470     34.672470     69.344941
     -2.547548     34.570041     34.570041     69.140082
     -2.537538     33.765486     33.765486     67.530972
     -2.527528     32.131894     32.131894     64.263789
     -2.517518     29.674618     29.674618     59.349236
     -2.507508     26.612761     26.612761     53.225522
     -2.497497     23.402630     23.402630     46.805261
     -2.487487     20.655599     20.655599     41.311199
     -2.477477     18.962283     18.962283     37.924565
     -2.467467     18.694871     18.694871     37.389742
     -2.457457     19.880016     19.880016     39.760033
     -2.447447     22.204531     22.204531     44.409062
     -2.437437     25.153696     25.153696     50.307393
     -2.427427     28.219211     28.219211     56.438422
     -2.417417     31.080144     31.080144     62.160287
     -2.407407     33.671929     33.671929     67.343859
     -2.397397     36.112085     36.112085     72.224171
     -2.387387     38.522864     38.522864     77.045728
     -2.377377     40.845255     40.845255     81.690511
     -2.367367     42.747027     42.747027     85.494054
     -2.357357     43.683929     43.683929     87.367859
     -2.347347     43.098228     43.098228     86.196456
     -2.337337     40.669054     40.669054     81.338107
     -2.327327     36.500020     36.500020     73.000040
     -2.317317     31.156881     31.156881     62.313763
     -2.307307     25.537699     25.537699     51.075398
     -2.297297     20.632386     20.632386     41.264773
     -2.287287     17.268559     17.268559     34.537118
     -2.277277     15.930748     15.930748     31.861497
     -2.267267     16.695506     16.695506     33.391012
     -2.257257     19.276156     19.276156     38.552311
     -2.247247     23.140070     23.140070     46.280139
     -2.237237     27.651622     27.651622     55.303245
     -2.227227     32.198005     32.198005     64.396011
     -2.217217     36.267583     36.267583     72.535166
     -2.207207     39.471350     39.471350     78.942700
     -2.197197     41.524640     41.524640     83.049280
     -2.187187     42.226589     42.226589     84.453179
     -2.177177     41.472816     41.472816     82.945631
     -2.167167     39.306857     39.306857     78.613715
     -2.157157     35.974386     35.974386     71.948772
     -2.147147     31.922473     31.922473     63.844946
     -2.137137     27.707601     27.707601     55.415202
     -2.127127     23.833070     23.833070     47.666140
     -2.117117     20.590590     20.590590     41.181180
     -2.107107     17.990362     17.990362     35.980724
     -2.097097     15.817517     15.817517     31.635034
     -2.087087     13.780506     13.780506     27.561011
     -2.077077     11.668003     11.668003     23.336005
     -2.067067      9.435727      9.435727     18.871454
     -2.057057      7.194501      7.194501     14.389002
     -2.047047      5.128229      5.128229     10.256458
     -2.037037      3.399307      3.399307      6.798614
     -2.027027      2.089129      2.089129      4.178257
     -2.017017      1.189272      1.189272      2.378544
     -2.007007      0.629786      0.629786      1.259571
     -1.996997      0.319740      0.319740      0.639481
     -1.986987      0.180968      0.180968      0.361937
     -1.976977      0.168253      0.168253      0.336506
     -1.966967      0.278411      0.278411      0.556822
     -1.956957      0.552729      0.552729      1.105459
     -1.946947      1.073727      1.073727      2.147454
     -1.936937      1.952529      1.952529      3.905059
     -1.926927      3.301859      3.301859      6.603719
     -1.916917      5.194444      5.194444     10.388887
     -1.906907      7.616328      7.616328     15.232657
     -1.896897     10.433573     10.433573     20.867146
     -1.886887     13.391704     13.391704     26.783409
     -1.876877     16.156852     16.156852     32.313705
     -1.866867     18.390282     18.390282     36.780565
     -1.856857     19.833824     19.833824     39.667649
     -1.846847     20.379489     20.379489     40.758978
     -1.836837     20.101567     20.101567     40.203135
     -1.826827     19.238897     19.238897     38.477793
     -1.816817     18.127050     18.127050     36.254101
     -1.806807     17.096873     17.096873     34.193747
     -1.796797     16.374369     16.374369     32.748738
     -1.786787     16.024886     16.024886     32.049773
     -1.776777     15.968149     15.968149     31.936299
     -1.766767     16.052284     16.052284     32.104567
     -1.756757     16.138779     16.138779     32.277558
     -1.746747     16.145680     16.145680     32.291361
     -1.736737     16.030707     16.030707     32.061415
     -1.726727     15.744451     15.744451     31.488902
     -1.716717     15.207281     15.207281     30.414563
     -1.706707     14.342468     14.342468     28.684937
     -1.696697     13.149233     13.149233     26.298467
     -1.686687     11.761957     11.761957     23.523914
     -1.676677     10.444126     10.444126     20.888252
     -1.666667      9.504529      9.504529     19.009057
     -1.656657      9.170500      9.170500     18.341000
     -1.646647      9.479289      9.479289     18.958578
     -1.636637     10.242012     10.242012     20.484025
     -1.626627     11.102187     11.102187     22.204373
