# EIG2DOS: Utility for SIESTA to obtain the electronic density of states
#  E. Artacho, Apr 1999, A. Garcia, Apr 2012
#  Nick R. Papior, Feb 2017
# ------------------------------------------
# Eigenvalues calculated from a non-polarized calculation
# Eigenvalues read from siesta.EIG
# Kpoint weights read from siesta.KP
# Using smearing parameter:   0.0500
# Using 1000 points in the energy range
# Selected bands: 1 to: 2981
# Emin, Emax in file for selected band(s):    -27.2154240    218.3542540
# Nbands, Nspin, Nk   =   2981     1     1
# E_F                 =    -4.2552 eV --> (shifted to ZERO)
# Broadening          =     0.0500 eV
#
#        E            N(up)  (=)   N(down)         Ntot
     -5.000000     33.269444     33.269444     66.538889
     -4.989990     37.470721     37.470721     74.941442
     -4.979980     41.162097     41.162097     82.324194
     -4.969970     43.764356     43.764356     87.528712
     -4.959960     44.834348     44.834348     89.668697
     -4.949950     44.204326     44.204326     88.408653
     -4.939940     42.042822     42.042822     84.085643
     -4.929930     38.826378     38.826378     77.652756
     -4.919920     35.250843     35.250843     70.501686
     -4.909910     32.120728     32.120728     64.241456
     -4.899900     30.233696     30.233696     60.467392
     -4.889890     30.249100     30.249100     60.498199
     -4.879880     32.527619     32.527619     65.055237
     -4.869870     36.965902     36.965902     73.931803
     -4.859860     42.900754     42.900754     85.801509
     -4.849850     49.173485     49.173485     98.346970
     -4.839840     54.393630     54.393630    108.787260
     -4.829830     57.338696     57.338696    114.677393
     -4.819820     57.335252     57.335252    114.670504
     -4.809810     54.453160     54.453160    108.906321
     -4.799800     49.428033     49.428033     98.856066
     -4.789790     43.360041     43.360041     86.720081
     -4.779780     37.338331     37.338331     74.676663
     -4.769770     32.151745     32.151745     64.303490
     -4.759760     28.173794     28.173794     56.347587
     -4.749750     25.410515     25.410515     50.821030
     -4.739740     23.635296     23.635296     47.270592
     -4.729730     22.528414     22.528414     45.056828
     -4.719720     21.772559     21.772559     43.545117
     -4.709710     21.096418     21.096418     42.192836
     -4.699700     20.285998     20.285998     40.571997
     -4.689690     19.192816     19.192816     38.385631
     -4.679680     17.761343     17.761343     35.522686
     -4.669670     16.078861     16.078861     32.157722
     -4.659660     14.427548     14.427548     28.855095
     -4.649650     13.303690     13.303690     26.607381
     -4.639640     13.370442     13.370442     26.740885
     -4.629630     15.327229     15.327229     30.654459
     -4.619620     19.705081     19.705081     39.410162
     -4.609610     26.630035     26.630035     53.260070
     -4.599600     35.632579     35.632579     71.265159
     -4.589590     45.602964     45.602964     91.205927
     -4.579580     54.970874     54.970874    109.941748
     -4.569570     62.106651     62.106651    124.213302
     -4.559560     65.825439     65.825439    131.650878
     -4.549550     65.792336     65.792336    131.584672
     -4.539540     62.640655     62.640655    125.281311
     -4.529530     57.735480     57.735480    115.470960
     -4.519520     52.678653     52.678653    105.357305
     -4.509510     48.766356     48.766356     97.532711
     -4.499499     46.616404     46.616404     93.232808
     -4.489489     46.086584     46.086584     92.173167
     -4.479479     46.468772     46.468772     92.937544
     -4.469469     46.836924     46.836924     93.673847
     -4.459459     46.392269     46.392269     92.784538
     -4.449449     44.685961     44.685961     89.371921
     -4.439439     41.676308     41.676308     83.352616
     -4.429429     37.652829     37.652829     75.305658
     -4.419419     33.100325     33.100325     66.200650
     -4.409409     28.571712     28.571712     57.143423
     -4.399399     24.600951     24.600951     49.201902
     -4.389389     21.645884     21.645884     43.291769
     -4.379379     20.033620     20.033620     40.067241
     -4.369369     19.897525     19.897525     39.795050
     -4.359359     21.127836     21.127836     42.255672
     -4.349349     23.376704     23.376704     46.753408
     -4.339339     26.143253     26.143253     52.286507
     -4.329329     28.922334     28.922334     57.844668
     -4.319319     31.360845     31.360845     62.721689
     -4.309309     33.355396     33.355396     66.710791
     -4.299299     35.050305     35.050305     70.100609
     -4.289289     36.737741     36.737741     73.475483
     -4.279279     38.698069     38.698069     77.396138
     -4.269269     41.036111     41.036111     82.072223
     -4.259259     43.571137     43.571137     87.142273
     -4.249249     45.829580     45.829580     91.659161
     -4.239239     47.165368     47.165368     94.330736
     -4.229229     46.986339     46.986339     93.972678
     -4.219219     45.007121     45.007121     90.014242
     -4.209209     41.413130     41.413130     82.826260
     -4.199199     36.843260     36.843260     73.686519
     -4.189189     32.182491     32.182491     64.364982
     -4.179179     28.255544     28.255544     56.511087
     -4.169169     25.565589     25.565589     51.131178
     -4.159159     24.194003     24.194003     48.388006
     -4.149149     23.888300     23.888300     47.776600
     -4.139139     24.271575     24.271575     48.543151
     -4.129129     25.057543     25.057543     50.115085
     -4.119119     26.166005     26.166005     52.332009
     -4.109109     27.689011     27.689011     55.378023
     -4.099099     29.731129     29.731129     59.462258
     -4.089089     32.211488     32.211488     64.422977
     -4.079079     34.744316     34.744316     69.488632
     -4.069069     36.686935     36.686935     73.373871
     -4.059059     37.360644     37.360644     74.721289
     -4.049049     36.348577     36.348577     72.697154
     -4.039039     33.717840     33.717840     67.435679
     -4.029029     30.044401     30.044401     60.088801
     -4.019019     26.225150     26.225150     52.450300
     -4.009009     23.175819     23.175819     46.351639
     -3.998999     21.563720     21.563720     43.127440
     -3.988989     21.684511     21.684511     43.369022
     -3.978979     23.497730     23.497730     46.995460
     -3.968969     26.752919     26.752919     53.505838
     -3.958959     31.115418     31.115418     62.230837
     -3.948949     36.239140     36.239140     72.478280
     -3.938939     41.792126     41.792126     83.584252
     -3.928929     47.471870     47.471870     94.943739
     -3.918919     53.032754     53.032754    106.065509
     -3.908909     58.309530     58.309530    116.619060
     -3.898899     63.199313     63.199313    126.398625
     -3.888889     67.584226     67.584226    135.168452
     -3.878879     71.225021     71.225021    142.450043
     -3.868869     73.694866     73.694866    147.389731
     -3.858859     74.418919     74.418919    148.837838
     -3.848849     72.835583     72.835583    145.671165
     -3.838839     68.626848     68.626848    137.253697
     -3.828829     61.918131     61.918131    123.836261
     -3.818819     53.350411     53.350411    106.700821
     -3.808809     43.979441     43.979441     87.958881
     -3.798799     35.030765     35.030765     70.061529
     -3.788789     27.597480     27.597480     55.194960
     -3.778779     22.383873     22.383873     44.767746
     -3.768769     19.571196     19.571196     39.142393
     -3.758759     18.832122     18.832122     37.664243
     -3.748749     19.473123     19.473123     38.946245
     -3.738739     20.654646     20.654646     41.309292
     -3.728729     21.629058     21.629058     43.258116
     -3.718719     21.939751     21.939751     43.879503
     -3.708709     21.535619     21.535619     43.071237
     -3.698699     20.771477     20.771477     41.542955
     -3.688689     20.288045     20.288045     40.576089
     -3.678679     20.795121     20.795121     41.590242
     -3.668669     22.814646     22.814646     45.629292
     -3.658659     26.465030     26.465030     52.930060
     -3.648649     31.368648     31.368648     62.737296
     -3.638639     36.728938     36.728938     73.457876
     -3.628629     41.557944     41.557944     83.115887
     -3.618619     44.968260     44.968260     89.936521
     -3.608609     46.413959     46.413959     92.827917
     -3.598599     45.794353     45.794353     91.588707
     -3.588589     43.405459     43.405459     86.810919
     -3.578579     39.790968     39.790968     79.581936
     -3.568569     35.568553     35.568553     71.137107
     -3.558559     31.286204     31.286204     62.572407
     -3.548549     27.328015     27.328015     54.656030
     -3.538539     23.870412     23.870412     47.740824
     -3.528529     20.890960     20.890960     41.781920
     -3.518519     18.232333     18.232333     36.464665
     -3.508509     15.707782     15.707782     31.415564
     -3.498498     13.210264     13.210264     26.420527
     -3.488488     10.778629     10.778629     21.557259
     -3.478478      8.593437      8.593437     17.186873
     -3.468468      6.909829      6.909829     13.819658
     -3.458458      5.961263      5.961263     11.922526
     -3.448448      5.871708      5.871708     11.743417
     -3.438438      6.601777      6.601777     13.203553
     -3.428428      7.941195      7.941195     15.882390
     -3.418418      9.552800      9.552800     19.105600
     -3.408408     11.065119     11.065119     22.130238
     -3.398398     12.193838     12.193838     24.387676
     -3.388388     12.851714     12.851714     25.703427
     -3.378378     13.198822     13.198822     26.397645
     -3.368368     13.603872     13.603872     27.207744
     -3.358358     14.526526     14.526526     29.053052
     -3.348348     16.366062     16.366062     32.732124
     -3.338338     19.329990     19.329990     38.659980
     -3.328328     23.355832     23.355832     46.711664
     -3.318318     28.091841     28.091841     56.183681
     -3.308308     32.932154     32.932154     65.864308
     -3.298298     37.110666     37.110666     74.221331
     -3.288288     39.861590     39.861590     79.723180
     -3.278278     40.628896     40.628896     81.257793
     -3.268268     39.258349     39.258349     78.516698
     -3.258258     36.076663     36.076663     72.153326
     -3.248248     31.793288     31.793288     63.586576
     -3.238238     27.248250     27.248250     54.496499
     -3.228228     23.119529     23.119529     46.239059
     -3.218218     19.730693     19.730693     39.461386
     -3.208208     17.042250     17.042250     34.084501
     -3.198198     14.807441     14.807441     29.614882
     -3.188188     12.792405     12.792405     25.584811
     -3.178178     10.947040     10.947040     21.894079
     -3.168168      9.461034      9.461034     18.922068
     -3.158158      8.706885      8.706885     17.413771
     -3.148148      9.114954      9.114954     18.229908
     -3.138138     11.030787     11.030787     22.061573
     -3.128128     14.588506     14.588506     29.177011
     -3.118118     19.621180     19.621180     39.242360
     -3.108108     25.629456     25.629456     51.258912
     -3.098098     31.832152     31.832152     63.664304
     -3.088088     37.309113     37.309113     74.618227
     -3.078078     41.212525     41.212525     82.425050
     -3.068068     42.983649     42.983649     85.967297
     -3.058058     42.493672     42.493672     84.987343
     -3.048048     40.048247     40.048247     80.096494
     -3.038038     36.251449     36.251449     72.502898
     -3.028028     31.789561     31.789561     63.579122
     -3.018018     27.232265     27.232265     54.464530
     -3.008008     22.935053     22.935053     45.870105
     -2.997998     19.068568     19.068568     38.137137
     -2.987988     15.732862     15.732862     31.465723
     -2.977978     13.077240     13.077240     26.154479
     -2.967968     11.356826     11.356826     22.713653
     -2.957958     10.900049     10.900049     21.800097
     -2.947948     12.005913     12.005913     24.011827
     -2.937938     14.814565     14.814565     29.629129
     -2.927928     19.198334     19.198334     38.396668
     -2.917918     24.713508     24.713508     49.427015
     -2.907908     30.640527     30.640527     61.281054
     -2.897898     36.118728     36.118728     72.237456
     -2.887888     40.348618     40.348618     80.697235
     -2.877878     42.799837     42.799837     85.599675
     -2.867868     43.346551     43.346551     86.693102
     -2.857858     42.270621     42.270621     84.541242
     -2.847848     40.125063     40.125063     80.250127
     -2.837838     37.513001     37.513001     75.026001
     -2.827828     34.877913     34.877913     69.755825
     -2.817818     32.395608     32.395608     64.791216
     -2.807808     30.007118     30.007118     60.014236
     -2.797798     27.560364     27.560364     55.120727
     -2.787788     24.975122     24.975122     49.950244
     -2.777778     22.339588     22.339588     44.679176
     -2.767768     19.890927     19.890927     39.781853
     -2.757758     17.901275     17.901275     35.802550
     -2.747748     16.544877     16.544877     33.089755
     -2.737738     15.829786     15.829786     31.659572
     -2.727728     15.634017     15.634017     31.268035
     -2.717718     15.817497     15.817497     31.634994
     -2.707708     16.330566     16.330566     32.661131
     -2.697698     17.241086     17.241086     34.482173
     -2.687688     18.657012     18.657012     37.314023
     -2.677678     20.595238     20.595238     41.190477
     -2.667668     22.890429     22.890429     45.780858
     -2.657658     25.216864     25.216864     50.433729
     -2.647648     27.222437     27.222437     54.444873
     -2.637638     28.695839     28.695839     57.391678
     -2.627628     29.661413     29.661413     59.322826
     -2.617618     30.342032     30.342032     60.684065
     -2.607608     31.016905     31.016905     62.033809
     -2.597598     31.865649     31.865649     63.731298
     -2.587588     32.886985     32.886985     65.773970
     -2.577578     33.918049     33.918049     67.836097
     -2.567568     34.712480     34.712480     69.424960
     -2.557558     35.014896     35.014896     70.029793
     -2.547548     34.603529     34.603529     69.207058
     -2.537538     33.320620     33.320620     66.641240
     -2.527528     31.123177     31.123177     62.246354
     -2.517518     28.153861     28.153861     56.307723
     -2.507508     24.787393     24.787393     49.574786
     -2.497497     21.596776     21.596776     43.193552
     -2.487487     19.220575     19.220575     38.441151
     -2.477477     18.171681     18.171681     36.343363
     -2.467467     18.668389     18.668389     37.336778
     -2.457457     20.565262     20.565262     41.130523
     -2.447447     23.418102     23.418102     46.836203
     -2.437437     26.657640     26.657640     53.315280
     -2.427427     29.797662     29.797662     59.595324
     -2.417417     32.586249     32.586249     65.172498
     -2.407407     35.032271     35.032271     70.064543
     -2.397397     37.295492     37.295492     74.590984
     -2.387387     39.494096     39.494096     78.988193
     -2.377377     41.527747     41.527747     83.055495
     -2.367367     43.013917     43.013917     86.027834
     -2.357357     43.385787     43.385787     86.771574
     -2.347347     42.120845     42.120845     84.241690
     -2.337337     38.998690     38.998690     77.997380
     -2.327327     34.264384     34.264384     68.528768
     -2.317317     28.616644     28.616644     57.233289
     -2.307307     23.026086     23.026086     46.052173
     -2.297297     18.467224     18.467224     36.934448
     -2.287287     15.675066     15.675066     31.350132
     -2.277277     15.005690     15.005690     30.011381
     -2.267267     16.420129     16.420129     32.840258
     -2.257257     19.561453     19.561453     39.122907
     -2.247247     23.875828     23.875828     47.751656
     -2.237237     28.734318     28.734318     57.468636
     -2.227227     33.528075     33.528075     67.056150
     -2.217217     37.725598     37.725598     75.451195
     -2.207207     40.895961     40.895961     81.791921
     -2.197197     42.715632     42.715632     85.431265
     -2.187187     42.982725     42.982725     85.965451
     -2.177177     41.652796     41.652796     83.305593
     -2.167167     38.884548     38.884548     77.769097
     -2.157157     35.057202     35.057202     70.114404
     -2.147147     30.717690     30.717690     61.435380
     -2.137137     26.447931     26.447931     52.895863
     -2.127127     22.695253     22.695253     45.390506
     -2.117117     19.645217     19.645217     39.290434
     -2.107107     17.204130     17.204130     34.408260
     -2.097097     15.100580     15.100580     30.201159
     -2.087087     13.049063     13.049063     26.098125
     -2.077077     10.888784     10.888784     21.777568
     -2.067067      8.634564      8.634564     17.269128
     -2.057057      6.433608      6.433608     12.867216
     -2.047047      4.471666      4.471666      8.943333
     -2.037037      2.886563      2.886563      5.773126
     -2.027027      1.726488      1.726488      3.452977
     -2.017017      0.956793      0.956793      1.913586
     -2.007007      0.495339      0.495339      0.990679
     -1.996997      0.252078      0.252078      0.504156
     -1.986987      0.157956      0.157956      0.315912
     -1.976977      0.180433      0.180433      0.360866
     -1.966967      0.329735      0.329735      0.659469
     -1.956957      0.659802      0.659802      1.319604
     -1.946947      1.263539      1.263539      2.527079
     -1.936937      2.257956      2.257956      4.515911
     -1.926927      3.755347      3.755347      7.510694
     -1.916917      5.823223      5.823223     11.646446
     -1.906907      8.445516      8.445516     16.891032
     -1.896897     11.503626     11.503626     23.007252
     -1.886887     14.791113     14.791113     29.582226
     -1.876877     18.059966     18.059966     36.119932
     -1.866867     21.078563     21.078563     42.157126
     -1.856857     23.674622     23.674622     47.349244
     -1.846847     25.746418     25.746418     51.492835
     -1.836837     27.244983     27.244983     54.489966
     -1.826827     28.144531     28.144531     56.289061
     -1.816817     28.419283     28.419283     56.838567
     -1.806807     28.035814     28.035814     56.071629
     -1.796797     26.960994     26.960994     53.921988
     -1.786787     25.182055     25.182055     50.364109
     -1.776777     22.734097     22.734097     45.468195
     -1.766767     19.726453     19.726453     39.452907
     -1.756757     16.354127     16.354127     32.708254
     -1.746747     12.881503     12.881503     25.763007
     -1.736737      9.597269      9.597269     19.194537
     -1.726727      6.756474      6.756474     13.512947
     -1.716717      4.535382      4.535382      9.070763
     -1.706707      3.018556      3.018556      6.037111
     -1.696697      2.218780      2.218780      4.437560
     -1.686687      2.111171      2.111171      4.222342
     -1.676677      2.655445      2.655445      5.310890
     -1.666667      3.789106      3.789106      7.578212
     -1.656657      5.394690      5.394690     10.789381
     -1.646647      7.265175      7.265175     14.530349
     -1.636637      9.100879      9.100879     18.201757
     -1.626627     10.560424     10.560424     21.120847
