# EIG2DOS: Utility for SIESTA to obtain the electronic density of states
#  E. Artacho, Apr 1999, A. Garcia, Apr 2012
#  Nick R. Papior, Feb 2017
# ------------------------------------------
# Eigenvalues calculated from a non-polarized calculation
# Eigenvalues read from siesta.EIG
# Kpoint weights read from siesta.KP
# Using smearing parameter:   0.0500
# Using 1000 points in the energy range
# Selected bands: 1 to: 2981
# Emin, Emax in file for selected band(s):    -27.0621188    218.3242610
# Nbands, Nspin, Nk   =   2981     1     1
# E_F                 =    -4.2849 eV --> (shifted to ZERO)
# Broadening          =     0.0500 eV
#
#        E            N(up)  (=)   N(down)         Ntot
     -5.000000     45.015175     45.015175     90.030350
     -4.989990     48.527263     48.527263     97.054526
     -4.979980     50.580823     50.580823    101.161646
     -4.969970     50.998777     50.998777    101.997553
     -4.959960     49.823267     49.823267     99.646534
     -4.949950     47.292128     47.292128     94.584257
     -4.939940     43.790104     43.790104     87.580207
     -4.929930     39.801806     39.801806     79.603611
     -4.919920     35.882741     35.882741     71.765482
     -4.909910     32.643123     32.643123     65.286246
     -4.899900     30.716881     30.716881     61.433762
     -4.889890     30.678626     30.678626     61.357252
     -4.879880     32.889258     32.889258     65.778515
     -4.869870     37.300611     37.300611     74.601222
     -4.859860     43.308979     43.308979     86.617958
     -4.849850     49.770886     49.770886     99.541772
     -4.839840     55.244628     55.244628    110.489256
     -4.829830     58.407045     58.407045    116.814091
     -4.819820     58.481641     58.481641    116.963282
     -4.809810     55.482045     55.482045    110.964091
     -4.799800     50.157750     50.157750    100.315500
     -4.789790     43.680710     43.680710     87.361419
     -4.779780     37.235282     37.235282     74.470563
     -4.769770     31.695084     31.695084     63.390168
     -4.759760     27.489671     27.489671     54.979341
     -4.749750     24.649395     24.649395     49.298789
     -4.739740     22.943732     22.943732     45.887465
     -4.729730     22.024533     22.024533     44.049066
     -4.719720     21.526301     21.526301     43.052602
     -4.709710     21.119178     21.119178     42.238357
     -4.699700     20.533691     20.533691     41.067381
     -4.689690     19.579971     19.579971     39.159942
     -4.679680     18.176388     18.176388     36.352776
     -4.669670     16.388465     16.388465     32.776931
     -4.659660     14.463269     14.463269     28.926538
     -4.649650     12.834767     12.834767     25.669534
     -4.639640     12.078211     12.078211     24.156422
     -4.629630     12.804946     12.804946     25.609893
     -4.619620     15.506882     15.506882     31.013763
     -4.609610     20.378898     20.378898     40.757796
     -4.599600     27.168244     27.168244     54.336489
     -4.589590     35.116725     35.116725     70.233450
     -4.579580     43.056629     43.056629     86.113258
     -4.569570     49.677281     49.677281     99.354563
     -4.559560     53.901401     53.901401    107.802802
     -4.549550     55.237295     55.237295    110.474591
     -4.539540     53.954608     53.954608    107.909217
     -4.529530     50.992582     50.992582    101.985164
     -4.519520     47.626103     47.626103     95.252206
     -4.509510     45.024799     45.024799     90.049597
     -4.499499     43.884840     43.884840     87.769679
     -4.489489     44.270952     44.270952     88.541904
     -4.479479     45.704183     45.704183     91.408367
     -4.469469     47.424005     47.424005     94.848009
     -4.459459     48.692222     48.692222     97.384444
     -4.449449     49.013069     49.013069     98.026138
     -4.439439     48.206052     48.206052     96.412104
     -4.429429     46.348689     46.348689     92.697378
     -4.419419     43.663362     43.663362     87.326724
     -4.409409     40.428880     40.428880     80.857759
     -4.399399     36.954470     36.954470     73.908941
     -4.389389     33.592995     33.592995     67.185991
     -4.379379     30.734999     30.734999     61.469997
     -4.369369     28.742085     28.742085     57.484169
     -4.359359     27.834078     27.834078     55.668156
     -4.349349     27.994976     27.994976     55.989951
     -4.339339     28.966375     28.966375     57.932751
     -4.329329     30.348958     30.348958     60.697917
     -4.319319     31.767500     31.767500     63.535000
     -4.309309     33.018300     33.018300     66.036601
     -4.299299     34.130590     34.130590     68.261180
     -4.289289     35.319919     35.319919     70.639839
     -4.279279     36.858823     36.858823     73.717645
     -4.269269     38.916170     38.916170     77.832339
     -4.259259     41.422211     41.422211     82.844422
     -4.249249     44.011613     44.011613     88.023226
     -4.239239     46.082516     46.082516     92.165032
     -4.229229     46.975440     46.975440     93.950880
     -4.219219     46.220268     46.220268     92.440537
     -4.209209     43.747861     43.747861     87.495723
     -4.199199     39.956873     39.956873     79.913746
     -4.189189     35.587460     35.587460     71.174919
     -4.179179     31.454436     31.454436     62.908873
     -4.169169     28.169510     28.169510     56.339020
     -4.159159     25.983952     25.983952     51.967904
     -4.149149     24.810491     24.810491     49.620982
     -4.139139     24.386328     24.386328     48.772657
     -4.129129     24.475299     24.475299     48.950598
     -4.119119     25.002372     25.002372     50.004743
     -4.109109     26.057303     26.057303     52.114605
     -4.099099     27.770172     27.770172     55.540344
     -4.089089     30.125118     30.125118     60.250236
     -4.079079     32.817531     32.817531     65.635061
     -4.069069     35.252014     35.252014     70.504027
     -4.059059     36.714329     36.714329     73.428657
     -4.049049     36.653632     36.653632     73.307264
     -4.039039     34.937145     34.937145     69.874289
     -4.029029     31.941363     31.941363     63.882727
     -4.019019     28.429455     28.429455     56.858910
     -4.009009     25.281886     25.281886     50.563772
     -3.998999     23.220467     23.220467     46.440935
     -3.988989     22.650236     22.650236     45.300471
     -3.978979     23.657578     23.657578     47.315156
     -3.968969     26.111000     26.111000     52.222001
     -3.958959     29.773405     29.773405     59.546811
     -3.948949     34.365490     34.365490     68.730980
     -3.938939     39.582181     39.582181     79.164362
     -3.928929     45.104014     45.104014     90.208028
     -3.918919     50.635053     50.635053    101.270105
     -3.908909     55.954884     55.954884    111.909768
     -3.898899     60.937702     60.937702    121.875405
     -3.888889     65.499608     65.499608    130.999216
     -3.878879     69.483761     69.483761    138.967522
     -3.868869     72.547967     72.547967    145.095933
     -3.858859     74.140251     74.140251    148.280502
     -3.848849     73.614992     73.614992    147.229984
     -3.838839     70.468369     70.468369    140.936739
     -3.828829     64.597467     64.597467    129.194934
     -3.818819     56.457575     56.457575    112.915150
     -3.808809     47.029237     47.029237     94.058474
     -3.798799     37.592836     37.592836     75.185672
     -3.788789     29.395702     29.395702     58.791404
     -3.778779     23.337593     23.337593     46.675186
     -3.768769     19.779521     19.779521     39.559042
     -3.758759     18.520222     18.520222     37.040443
     -3.748749     18.922217     18.922217     37.844435
     -3.738739     20.131785     20.131785     40.263571
     -3.728729     21.327477     21.327477     42.654954
     -3.718719     21.938621     21.938621     43.877243
     -3.708709     21.787199     21.787199     43.574398
     -3.698699     21.120493     21.120493     42.240986
     -3.688689     20.521219     20.521219     41.042437
     -3.678679     20.709657     20.709657     41.419313
     -3.668669     22.286398     22.286398     44.572796
     -3.658659     25.494221     25.494221     50.988443
     -3.648649     30.086403     30.086403     60.172806
     -3.638639     35.361492     35.361492     70.722984
     -3.628629     40.362125     40.362125     80.724249
     -3.618619     44.163071     44.163071     88.326143
     -3.608609     46.132217     46.132217     92.264434
     -3.598599     46.066049     46.066049     92.132098
     -3.588589     44.169259     44.169259     88.338517
     -3.578579     40.921662     40.921662     81.843323
     -3.568569     36.909259     36.909259     73.818518
     -3.558559     32.679691     32.679691     65.359382
     -3.548549     28.644507     28.644507     57.289014
     -3.538539     25.027679     25.027679     50.055358
     -3.528529     21.860721     21.860721     43.721442
     -3.518519     19.029836     19.029836     38.059671
     -3.508509     16.368734     16.368734     32.737468
     -3.498498     13.765732     13.765732     27.531463
     -3.488488     11.238961     11.238961     22.477923
     -3.478478      8.946462      8.946462     17.892924
     -3.468468      7.131114      7.131114     14.262228
     -3.458458      6.029822      6.029822     12.059644
     -3.448448      5.784537      5.784537     11.569074
     -3.438438      6.382636      6.382636     12.765271
     -3.428428      7.640776      7.640776     15.281552
     -3.418418      9.238653      9.238653     18.477305
     -3.408408     10.802152     10.802152     21.604303
     -3.398398     12.020333     12.020333     24.040666
     -3.388388     12.759485     12.759485     25.518970
     -3.378378     13.126080     13.126080     26.252159
     -3.368368     13.444590     13.444590     26.889181
     -3.358358     14.153617     14.153617     28.307234
     -3.348348     15.661993     15.661993     31.323987
     -3.338338     18.219243     18.219243     36.438485
     -3.328328     21.835294     21.835294     43.670588
     -3.318318     26.252594     26.252594     52.505187
     -3.308308     30.958834     30.958834     61.917668
     -3.298298     35.240478     35.240478     70.480955
     -3.288288     38.295034     38.295034     76.590069
     -3.278278     39.410823     39.410823     78.821645
     -3.268268     38.178117     38.178117     76.356233
     -3.258258     34.647455     34.647455     69.294911
     -3.248248     29.347704     29.347704     58.695409
     -3.238238     23.136035     23.136035     46.272070
     -3.228228     16.939476     16.939476     33.878953
     -3.218218     11.502461     11.502461     23.004922
     -3.208208      7.241116      7.241116     14.482233
     -3.198198      4.239041      4.239041      8.478083
     -3.188188      2.349779      2.349779      4.699558
     -3.178178      1.338320      1.338320      2.676640
     -3.168168      1.003647      1.003647      2.007294
     -3.158158      1.254741      1.254741      2.509482
     -3.148148      2.137701      2.137701      4.275402
     -3.138138      3.820196      3.820196      7.640391
     -3.128128      6.536476      6.536476     13.072952
     -3.118118     10.494524     10.494524     20.989047
     -3.108108     15.756350     15.756350     31.512700
     -3.098098     22.122418     22.122418     44.244835
     -3.088088     29.069693     29.069693     58.139387
     -3.078078     35.792568     35.792568     71.585137
     -3.068068     41.364999     41.364999     82.729999
     -3.058058     44.986963     44.986963     89.973926
     -3.048048     46.225681     46.225681     92.451362
     -3.038038     45.147322     45.147322     90.294645
     -3.028028     42.276360     42.276360     84.552719
     -3.018018     38.400351     38.400351     76.800702
     -3.008008     34.311364     34.311364     68.622728
     -2.997998     30.597940     30.597940     61.195880
     -2.987988     27.563909     27.563909     55.127817
     -2.977978     25.281021     25.281021     50.562042
     -2.967968     23.722395     23.722395     47.444791
     -2.957958     22.897896     22.897896     45.795792
     -2.947948     22.922077     22.922077     45.844154
     -2.937938     23.979988     23.979988     47.959977
     -2.927928     26.204259     26.204259     52.408518
     -2.917918     29.523646     29.523646     59.047291
     -2.907908     33.567399     33.567399     67.134799
     -2.897898     37.692779     37.692779     75.385557
     -2.887888     41.145783     41.145783     82.291566
     -2.877878     43.295017     43.295017     86.590035
     -2.867868     43.835062     43.835062     87.670124
     -2.857858     42.865420     42.865420     85.730839
     -2.847848     40.810100     40.810100     81.620201
     -2.837838     38.219593     38.219593     76.439187
     -2.827828     35.551091     35.551091     71.102181
     -2.817818     33.027622     33.027622     66.055243
     -2.807808     30.631806     30.631806     61.263611
     -2.797798     28.219752     28.219752     56.439505
     -2.787788     25.681561     25.681561     51.363122
     -2.777778     23.056745     23.056745     46.113490
     -2.767768     20.544141     20.544141     41.088281
     -2.757758     18.408828     18.408828     36.817656
     -2.747748     16.848240     16.848240     33.696479
     -2.737738     15.901965     15.901965     31.803929
     -2.727728     15.461107     15.461107     30.922213
     -2.717718     15.369516     15.369516     30.739032
     -2.707708     15.549218     15.549218     31.098435
     -2.697698     16.064328     16.064328     32.128655
     -2.687688     17.075540     17.075540     34.151080
     -2.677678     18.708986     18.708986     37.417971
     -2.667668     20.923232     20.923232     41.846463
     -2.657658     23.465472     23.465472     46.930943
     -2.647648     25.954457     25.954457     51.908915
     -2.637638     28.046123     28.046123     56.092246
     -2.627628     29.582520     29.582520     59.165040
     -2.617618     30.634891     30.634891     61.269781
     -2.607608     31.421658     31.421658     62.843316
     -2.597598     32.162119     32.162119     64.324238
     -2.587588     32.958951     32.958951     65.917903
     -2.577578     33.767180     33.767180     67.534359
     -2.567568     34.437980     34.437980     68.875959
     -2.557558     34.781411     34.781411     69.562822
     -2.547548     34.605037     34.605037     69.210073
     -2.537538     33.733804     33.733804     67.467608
     -2.527528     32.048133     32.048133     64.096266
     -2.517518     29.559132     29.559132     59.118263
     -2.507508     26.489590     26.489590     52.979180
     -2.497497     23.295985     23.295985     46.591969
     -2.487487     20.584817     20.584817     41.169634
     -2.477477     18.936650     18.936650     37.873300
     -2.467467     18.710612     18.710612     37.421224
     -2.457457     19.921302     19.921302     39.842604
     -2.447447     22.248641     22.248641     44.497282
     -2.437437     25.178479     25.178479     50.356958
     -2.427427     28.209955     28.209955     56.419911
     -2.417417     31.033511     31.033511     62.067022
     -2.407407     33.596224     33.596224     67.192447
     -2.397397     36.024578     36.024578     72.049157
     -2.387387     38.445227     38.445227     76.890455
     -2.377377     40.797708     40.797708     81.595416
     -2.367367     42.741830     42.741830     85.483659
     -2.357357     43.719940     43.719940     87.439881
     -2.347347     43.159316     43.159316     86.318632
     -2.337337     40.728450     40.728450     81.456899
     -2.327327     36.529708     36.529708     73.059416
     -2.317317     31.137787     31.137787     62.275575
     -2.307307     25.465549     25.465549     50.931099
     -2.297297     20.516658     20.516658     41.033317
     -2.287287     17.126132     17.126132     34.252263
     -2.277277     15.778601     15.778601     31.557202
     -2.267267     16.546419     16.546419     33.092837
     -2.257257     19.138682     19.138682     38.277365
     -2.247247     23.021224     23.021224     46.042448
     -2.237237     27.559500     27.559500     55.118999
     -2.227227     32.142195     32.142195     64.284390
     -2.217217     36.256877     36.256877     72.513754
     -2.207207     39.509896     39.509896     79.019792
     -2.197197     41.608603     41.608603     83.217206
     -2.187187     42.343269     42.343269     84.686538
     -2.177177     41.603101     41.603101     83.206202
     -2.167167     39.430302     39.430302     78.860604
     -2.157157     36.074831     36.074831     72.149661
     -2.147147     31.991791     31.991791     63.983582
     -2.137137     27.746097     27.746097     55.492194
     -2.127127     23.846817     23.846817     47.693633
     -2.117117     20.587463     20.587463     41.174927
     -2.107107     17.976873     17.976873     35.953745
     -2.097097     15.797639     15.797639     31.595278
     -2.087087     13.756323     13.756323     27.512646
     -2.077077     11.641054     11.641054     23.282107
     -2.067067      9.407919      9.407919     18.815838
     -2.057057      7.168142      7.168142     14.336284
     -2.047047      5.105440      5.105440     10.210879
     -2.037037      3.381399      3.381399      6.762799
     -2.027027      2.076363      2.076363      4.152726
     -2.017017      1.181069      1.181069      2.362139
     -2.007007      0.625210      0.625210      1.250420
     -1.996997      0.318029      0.318029      0.636058
     -1.986987      0.182002      0.182002      0.364005
     -1.976977      0.172963      0.172963      0.345925
     -1.966967      0.289123      0.289123      0.578245
     -1.956957      0.573333      0.573333      1.146665
     -1.946947      1.109371      1.109371      2.218742
     -1.936937      2.008496      2.008496      4.016991
     -1.926927      3.381495      3.381495      6.762990
     -1.916917      5.296594      5.296594     10.593188
     -1.906907      7.733381      7.733381     15.466763
     -1.896897     10.551507     10.551507     21.103014
     -1.886887     13.492970     13.492970     26.985939
     -1.876877     16.225583     16.225583     32.451166
     -1.866867     18.417891     18.417891     36.835783
     -1.856857     19.822378     19.822378     39.644756
     -1.846847     20.340780     20.340780     40.681560
     -1.836837     20.051007     20.051007     40.102015
     -1.826827     19.184378     19.184378     38.368756
     -1.816817     18.053293     18.053293     36.106586
     -1.806807     16.946009     16.946009     33.892018
     -1.796797     16.024763     16.024763     32.049526
     -1.786787     15.273510     15.273510     30.547020
     -1.776777     14.527106     14.527106     29.054212
     -1.766767     13.574953     13.574953     27.149907
     -1.756757     12.290451     12.290451     24.580902
     -1.746747     10.721571     10.721571     21.443141
     -1.736737      9.099335      9.099335     18.198670
     -1.726727      7.764822      7.764822     15.529644
     -1.716717      7.052673      7.052673     14.105346
     -1.706707      7.180816      7.180816     14.361631
     -1.696697      8.183790      8.183790     16.367580
     -1.686687      9.905095      9.905095     19.810191
     -1.676677     12.043763     12.043763     24.087526
     -1.666667     14.234952     14.234952     28.469905
     -1.656657     16.134676     16.134676     32.269352
     -1.646647     17.479747     17.479747     34.959494
     -1.636637     18.109697     18.109697     36.219394
     -1.626627     17.961101     17.961101     35.922202
