# EIG2DOS: Utility for SIESTA to obtain the electronic density of states
#  E. Artacho, Apr 1999, A. Garcia, Apr 2012
#  Nick R. Papior, Feb 2017
# ------------------------------------------
# Eigenvalues calculated from a non-polarized calculation
# Eigenvalues read from siesta.EIG
# Kpoint weights read from siesta.KP
# Using smearing parameter:   0.0500
# Using 1000 points in the energy range
# Selected bands: 1 to: 2981
# Emin, Emax in file for selected band(s):    -27.3058296    218.3962670
# Nbands, Nspin, Nk   =   2981     1     1
# E_F                 =    -4.1975 eV --> (shifted to ZERO)
# Broadening          =     0.0500 eV
#
#        E            N(up)  (=)   N(down)         Ntot
     -5.000000     30.764596     30.764596     61.529192
     -4.989990     35.870083     35.870083     71.740166
     -4.979980     40.849625     40.849625     81.699250
     -4.969970     44.859294     44.859294     89.718588
     -4.959960     47.136451     47.136451     94.272902
     -4.949950     47.252099     47.252099     94.504199
     -4.939940     45.260593     45.260593     90.521185
     -4.929930     41.697505     41.697505     83.395010
     -4.919920     37.447241     37.447241     74.894482
     -4.909910     33.544707     33.544707     67.089415
     -4.899900     30.970066     30.970066     61.940132
     -4.889890     30.462361     30.462361     60.924721
     -4.879880     32.357172     32.357172     64.714344
     -4.869870     36.467472     36.467472     72.934945
     -4.859860     42.057280     42.057280     84.114560
     -4.849850     47.962597     47.962597     95.925195
     -4.839840     52.867978     52.867978    105.735956
     -4.829830     55.668042     55.668042    111.336084
     -4.819820     55.782806     55.782806    111.565612
     -4.809810     53.299817     53.299817    106.599635
     -4.799800     48.890068     48.890068     97.780137
     -4.789790     43.547533     43.547533     87.095065
     -4.779780     38.274453     38.274453     76.548906
     -4.769770     33.837888     33.837888     67.675776
     -4.759760     30.663848     30.663848     61.327695
     -4.749750     28.856532     28.856532     57.713064
     -4.739740     28.279303     28.279303     56.558605
     -4.729730     28.632972     28.632972     57.265943
     -4.719720     29.503883     29.503883     59.007766
     -4.709710     30.397779     30.397779     60.795558
     -4.699700     30.796529     30.796529     61.593057
     -4.689690     30.261576     30.261576     60.523152
     -4.679680     28.570080     28.570080     57.140161
     -4.669670     25.832898     25.832898     51.665796
     -4.659660     22.534251     22.534251     45.068502
     -4.649650     19.459284     19.459284     38.918568
     -4.639640     17.520669     17.520669     35.041339
     -4.629630     17.530705     17.530705     35.061411
     -4.619620     19.976391     19.976391     39.952782
     -4.609610     24.849942     24.849942     49.699884
     -4.599600     31.581532     31.581532     63.163065
     -4.589590     39.114423     39.114423     78.228846
     -4.579580     46.137421     46.137421     92.274842
     -4.569570     51.434605     51.434605    102.869209
     -4.559560     54.246200     54.246200    108.492400
     -4.549550     54.500922     54.500922    109.001844
     -4.539540     52.813542     52.813542    105.627084
     -4.529530     50.235965     50.235965    100.471929
     -4.519520     47.858678     47.858678     95.717357
     -4.509510     46.424554     46.424554     92.849109
     -4.499499     46.106390     46.106390     92.212779
     -4.489489     46.521917     46.521917     93.043835
     -4.479479     46.955752     46.955752     93.911503
     -4.469469     46.675941     46.675941     93.351882
     -4.459459     45.207897     45.207897     90.415794
     -4.449449     42.466122     42.466122     84.932243
     -4.439439     38.720895     38.720895     77.441789
     -4.429429     34.452840     34.452840     68.905680
     -4.419419     30.186141     30.186141     60.372281
     -4.409409     26.375926     26.375926     52.751851
     -4.399399     23.371833     23.371833     46.743666
     -4.389389     21.425283     21.425283     42.850566
     -4.379379     20.688954     20.688954     41.377907
     -4.369369     21.183403     21.183403     42.366806
     -4.359359     22.753325     22.753325     45.506650
     -4.349349     25.064296     25.064296     50.128591
     -4.339339     27.675839     27.675839     55.351678
     -4.329329     30.178581     30.178581     60.357161
     -4.319319     32.337258     32.337258     64.674517
     -4.309309     34.168711     34.168711     68.337422
     -4.299299     35.910669     35.910669     71.821337
     -4.289289     37.885119     37.885119     75.770239
     -4.279279     40.305310     40.305310     80.610619
     -4.269269     43.102805     43.102805     86.205611
     -4.259259     45.853881     45.853881     91.707762
     -4.249249     47.858012     47.858012     95.716024
     -4.239239     48.364436     48.364436     96.728872
     -4.229229     46.870639     46.870639     93.741278
     -4.219219     43.365048     43.365048     86.730095
     -4.209209     38.393678     38.393678     76.787356
     -4.199199     32.905936     32.905936     65.811873
     -4.189189     27.941863     27.941863     55.883725
     -4.179179     24.300078     24.300078     48.600156
     -4.169169     22.328450     22.328450     44.656900
     -4.159159     21.911045     21.911045     43.822091
     -4.149149     22.629105     22.629105     45.258209
     -4.139139     24.001449     24.001449     48.002897
     -4.129129     25.688914     25.688914     51.377829
     -4.119119     27.576429     27.576429     55.152857
     -4.109109     29.706535     29.706535     59.413070
     -4.099099     32.107170     32.107170     64.214341
     -4.089089     34.610708     34.610708     69.221415
     -4.079079     36.775424     36.775424     73.550848
     -4.069069     37.977513     37.977513     75.955027
     -4.059059     37.651915     37.651915     75.303830
     -4.049049     35.569540     35.569540     71.139080
     -4.039039     32.005252     32.005252     64.010503
     -4.029029     27.702855     27.702855     55.405710
     -4.019019     23.651072     23.651072     47.302145
     -4.009009     20.780045     20.780045     41.560090
     -3.998999     19.714533     19.714533     39.429066
     -3.988989     20.670714     20.670714     41.341427
     -3.978979     23.499659     23.499659     46.999319
     -3.968969     27.816442     27.816442     55.632883
     -3.958959     33.139969     33.139969     66.279937
     -3.948949     38.997814     38.997814     77.995627
     -3.938939     44.990060     44.990060     89.980119
     -3.928929     50.825346     50.825346    101.650692
     -3.918919     56.333335     56.333335    112.666670
     -3.908909     61.440016     61.440016    122.880032
     -3.898899     66.092923     66.092923    132.185846
     -3.888889     70.151635     70.151635    140.303271
     -3.878879     73.295687     73.295687    146.591374
     -3.868869     75.014876     75.014876    150.029751
     -3.858859     74.717886     74.717886    149.435772
     -3.848849     71.935990     71.935990    143.871979
     -3.838839     66.543259     66.543259    133.086519
     -3.828829     58.895996     58.895996    117.791992
     -3.818819     49.823094     49.823094     99.646189
     -3.808809     40.460365     40.460365     80.920730
     -3.798799     31.984102     31.984102     63.968204
     -3.788789     25.333869     25.333869     50.667739
     -3.778779     21.010394     21.010394     42.020789
     -3.768769     19.000413     19.000413     38.000827
     -3.758759     18.836264     18.836264     37.672529
     -3.748749     19.761637     19.761637     39.523275
     -3.738739     20.954181     20.954181     41.908363
     -3.728729     21.749452     21.749452     43.498905
     -3.718719     21.814468     21.814468     43.628937
     -3.708709     21.229763     21.229763     42.459526
     -3.698699     20.455802     20.455802     40.911604
     -3.688689     20.183834     20.183834     40.367669
     -3.678679     21.102203     21.102203     42.204406
     -3.668669     23.641411     23.641411     47.282821
     -3.658659     27.782237     27.782237     55.564475
     -3.648649     33.004402     33.004402     66.008803
     -3.638639     38.409299     38.409299     76.818598
     -3.628629     42.980125     42.980125     85.960250
     -3.618619     45.879809     45.879809     91.759617
     -3.608609     46.670099     46.670099     93.340199
     -3.598599     45.377758     45.377758     90.755515
     -3.588589     42.410269     42.410269     84.820539
     -3.578579     38.385069     38.385069     76.770139
     -3.568569     33.949633     33.949633     67.899265
     -3.558559     29.641725     29.641725     59.283450
     -3.548549     25.804195     25.804195     51.608390
     -3.538539     22.553962     22.553962     45.107925
     -3.528529     19.807151     19.807151     39.614302
     -3.518519     17.359713     17.359713     34.719425
     -3.508509     15.003679     15.003679     30.007358
     -3.498498     12.636461     12.636461     25.272921
     -3.488488     10.317598     10.317598     20.635196
     -3.478478      8.252013      8.252013     16.504026
     -3.468468      6.714839      6.714839     13.429678
     -3.458458      5.955785      5.955785     11.911569
     -3.448448      6.119902      6.119902     12.239804
     -3.438438      7.205734      7.205734     14.411468
     -3.428428      9.066523      9.066523     18.133045
     -3.418418     11.451421     11.451421     22.902842
     -3.408408     14.076177     14.076177     28.152354
     -3.398398     16.702083     16.702083     33.404166
     -3.388388     19.194267     19.194267     38.388534
     -3.378378     21.536904     21.536904     43.073809
     -3.368368     23.805090     23.805090     47.610180
     -3.358358     26.115533     26.115533     52.231067
     -3.348348     28.581251     28.581251     57.162502
     -3.338338     31.275923     31.275923     62.551846
     -3.328328     34.192390     34.192390     68.384781
     -3.318318     37.183546     37.183546     74.367091
     -3.308308     39.907017     39.907017     79.814035
     -3.298298     41.828681     41.828681     83.657363
     -3.288288     42.334101     42.334101     84.668202
     -3.278278     40.938922     40.938922     81.877844
     -3.268268     37.513823     37.513823     75.027645
     -3.258258     32.406125     32.406125     64.812251
     -3.248248     26.382304     26.382304     52.764608
     -3.238238     20.409151     20.409151     40.818302
     -3.228228     15.372364     15.372364     30.744727
     -3.218218     11.848931     11.848931     23.697863
     -3.208208     10.004683     10.004683     20.009367
     -3.198198      9.623468      9.623468     19.246935
     -3.188188     10.231916     10.231916     20.463832
     -3.178178     11.273356     11.273356     22.546713
     -3.168168     12.288100     12.288100     24.576199
     -3.158158     13.057403     13.057403     26.114806
     -3.148148     13.667033     13.667033     27.334065
     -3.138138     14.459088     14.459088     28.918176
     -3.128128     15.875983     15.875983     31.751967
     -3.118118     18.246937     18.246937     36.493874
     -3.108108     21.600535     21.600535     43.201069
     -3.098098     25.585936     25.585936     51.171871
     -3.088088     29.545467     29.545467     59.090933
     -3.078078     32.717345     32.717345     65.434691
     -3.068068     34.487036     34.487036     68.974073
     -3.058058     34.579710     34.579710     69.159419
     -3.048048     33.112092     33.112092     66.224184
     -3.038038     30.491195     30.491195     60.982391
     -3.028028     27.224177     27.224177     54.448354
     -3.018018     23.743393     23.743393     47.486786
     -3.008008     20.329734     20.329734     40.659467
     -2.997998     17.150932     17.150932     34.301863
     -2.987988     14.364148     14.364148     28.728296
     -2.977978     12.204560     12.204560     24.409119
     -2.967968     11.002951     11.002951     22.005902
     -2.957958     11.121791     11.121791     22.243582
     -2.947948     12.838821     12.838821     25.677641
     -2.937938     16.223797     16.223797     32.447593
     -2.927928     21.052107     21.052107     42.104214
     -2.917918     26.789047     26.789047     53.578094
     -2.907908     32.663629     32.663629     65.327259
     -2.897898     37.826973     37.826973     75.653946
     -2.887888     41.557788     41.557788     83.115576
     -2.877878     43.448580     43.448580     86.897159
     -2.867868     43.499922     43.499922     86.999844
     -2.857858     42.078620     42.078620     84.157241
     -2.847848     39.751718     39.751718     79.503436
     -2.837838     37.066175     37.066175     74.132351
     -2.827828     34.371646     34.371646     68.743291
     -2.817818     31.762656     31.762656     63.525311
     -2.807808     29.154913     29.154913     58.309826
     -2.797798     26.441083     26.441083     52.882167
     -2.787788     23.633005     23.633005     47.266010
     -2.777778     20.911410     20.911410     41.822821
     -2.767768     18.562023     18.562023     37.124046
     -2.757758     16.844246     16.844246     33.688493
     -2.747748     15.876210     15.876210     31.752420
     -2.737738     15.605763     15.605763     31.211525
     -2.727728     15.879766     15.879766     31.759532
     -2.717718     16.559128     16.559128     33.118257
     -2.707708     17.596607     17.596607     35.193214
     -2.697698     19.020790     19.020790     38.041581
     -2.687688     20.837895     20.837895     41.675791
     -2.677678     22.927025     22.927025     45.854050
     -2.667668     25.016877     25.016877     50.033753
     -2.657658     26.779002     26.779002     53.558005
     -2.647648     27.988876     27.988876     55.977753
     -2.637638     28.651664     28.651664     57.303327
     -2.627628     29.006664     29.006664     58.013328
     -2.617618     29.402595     29.402595     58.805189
     -2.607608     30.118595     30.118595     60.237190
     -2.597598     31.233645     31.233645     62.467291
     -2.587588     32.604252     32.604252     65.208503
     -2.577578     33.935487     33.935487     67.870975
     -2.567568     34.882702     34.882702     69.765405
     -2.557558     35.130476     35.130476     70.260953
     -2.547548     34.441058     34.441058     68.882115
     -2.537538     32.698539     32.698539     65.397079
     -2.527528     29.966885     29.966885     59.933771
     -2.517518     26.542054     26.542054     53.084107
     -2.507508     22.950939     22.950939     45.901879
     -2.497497     19.861843     19.861843     39.723686
     -2.487487     17.916808     17.916808     35.833616
     -2.477477     17.543332     17.543332     35.086664
     -2.467467     18.821544     18.821544     37.643088
     -2.457457     21.464217     21.464217     42.928435
     -2.447447     24.922281     24.922281     49.844563
     -2.437437     28.577388     28.577388     57.154777
     -2.427427     31.945067     31.945067     63.890135
     -2.417417     34.803121     34.803121     69.606243
     -2.407407     37.188204     37.188204     74.376407
     -2.397397     39.261887     39.261887     78.523774
     -2.387387     41.112162     41.112162     82.224324
     -2.377377     42.595016     42.595016     85.190032
     -2.367367     43.309231     43.309231     86.618462
     -2.357357     42.734642     42.734642     85.469285
     -2.347347     40.477722     40.477722     80.955445
     -2.337337     36.505505     36.505505     73.011011
     -2.327327     31.248902     31.248902     62.497805
     -2.317317     25.522767     25.522767     51.045533
     -2.307307     20.302955     20.302955     40.605909
     -2.297297     16.463625     16.463625     32.927251
     -2.287287     14.578398     14.578398     29.156796
     -2.277277     14.838489     14.838489     29.676979
     -2.267267     17.080066     17.080066     34.160132
     -2.257257     20.876860     20.876860     41.753719
     -2.247247     25.650885     25.650885     51.301769
     -2.237237     30.770294     30.770294     61.540587
     -2.227227     35.622069     35.622069     71.244139
     -2.217217     39.660475     39.660475     79.320950
     -2.207207     42.440286     42.440286     84.880573
     -2.197197     43.647757     43.647757     87.295515
     -2.187187     43.139313     43.139313     86.278626
     -2.177177     40.984691     40.984691     81.969382
     -2.167167     37.491432     37.491432     74.982865
     -2.157157     33.175714     33.175714     66.351428
     -2.147147     28.657433     28.657433     57.314867
     -2.137137     24.497256     24.497256     48.994512
     -2.127127     21.037565     21.037565     42.075130
     -2.117117     18.323586     18.323586     36.647171
     -2.107107     16.147210     16.147210     32.294421
     -2.097097     14.191408     14.191408     28.382817
     -2.087087     12.199931     12.199931     24.399861
     -2.077077     10.090383     10.090383     20.180766
     -2.067067      7.969722      7.969722     15.939444
     -2.057057      6.068126      6.068126     12.136251
     -2.047047      4.641970      4.641970      9.283939
     -2.037037      3.893015      3.893015      7.786030
     -2.027027      3.922090      3.922090      7.844179
     -2.017017      4.709105      4.709105      9.418209
     -2.007007      6.106144      6.106144     12.212288
     -1.996997      7.844413      7.844413     15.688826
     -1.986987      9.570416      9.570416     19.140832
     -1.976977     10.923556     10.923556     21.847113
     -1.966967     11.643768     11.643768     23.287535
     -1.956957     11.669863     11.669863     23.339726
     -1.946947     11.179691     11.179691     22.359382
     -1.936937     10.543136     10.543136     21.086272
     -1.926927     10.198879     10.198879     20.397757
     -1.916917     10.502137     10.502137     21.004274
     -1.906907     11.603087     11.603087     23.206175
     -1.896897     13.399769     13.399769     26.799539
     -1.886887     15.576369     15.576369     31.152739
     -1.876877     17.705440     17.705440     35.410879
     -1.866867     19.374514     19.374514     38.749028
     -1.856857     20.297398     20.297398     40.594795
     -1.846847     20.382135     20.382135     40.764269
     -1.836837     19.741728     19.741728     39.483456
     -1.826827     18.645341     18.645341     37.290682
     -1.816817     17.420111     17.420111     34.840222
     -1.806807     16.331004     16.331004     32.662007
     -1.796797     15.482899     15.482899     30.965797
     -1.786787     14.790158     14.790158     29.580316
     -1.776777     14.033118     14.033118     28.066236
     -1.766767     12.976954     12.976954     25.953908
     -1.756757     11.493324     11.493324     22.986647
     -1.746747      9.624485      9.624485     19.248970
     -1.736737      7.564985      7.564985     15.129971
     -1.726727      5.583110      5.583110     11.166220
     -1.716717      3.931890      3.931890      7.863780
     -1.706707      2.793010      2.793010      5.586019
     -1.696697      2.266514      2.266514      4.533029
     -1.686687      2.388244      2.388244      4.776488
     -1.676677      3.144566      3.144566      6.289132
     -1.666667      4.464655      4.464655      8.929310
     -1.656657      6.194892      6.194892     12.389784
     -1.646647      8.081765      8.081765     16.163529
     -1.636637      9.794413      9.794413     19.588827
     -1.626627     11.000253     11.000253     22.000506
