# EIG2DOS: Utility for SIESTA to obtain the electronic density of states
#  E. Artacho, Apr 1999, A. Garcia, Apr 2012
#  Nick R. Papior, Feb 2017
# ------------------------------------------
# Eigenvalues calculated from a non-polarized calculation
# Eigenvalues read from siesta.EIG
# Kpoint weights read from siesta.KP
# Using smearing parameter:   0.0500
# Using 1000 points in the energy range
# Selected bands: 1 to: 2981
# Emin, Emax in file for selected band(s):    -27.3428623    218.4036170
# Nbands, Nspin, Nk   =   2981     1     1
# E_F                 =    -4.1888 eV --> (shifted to ZERO)
# Broadening          =     0.0500 eV
#
#        E            N(up)  (=)   N(down)         Ntot
     -5.000000     34.569810     34.569810     69.139620
     -4.989990     39.616787     39.616787     79.233574
     -4.979980     43.891153     43.891153     87.782306
     -4.969970     46.604720     46.604720     93.209440
     -4.959960     47.249262     47.249262     94.498525
     -4.949950     45.768396     45.768396     91.536792
     -4.939940     42.578055     42.578055     85.156111
     -4.929930     38.451344     38.451344     76.902688
     -4.919920     34.336979     34.336979     68.673958
     -4.909910     31.178715     31.178715     62.357430
     -4.899900     29.761394     29.761394     59.522787
     -4.889890     30.573083     30.573083     61.146166
     -4.879880     33.677535     33.677535     67.355069
     -4.869870     38.630692     38.630692     77.261384
     -4.859860     44.506590     44.506590     89.013181
     -4.849850     50.080166     50.080166    100.160331
     -4.839840     54.144676     54.144676    108.289351
     -4.829830     55.861462     55.861462    111.722923
     -4.819820     55.004549     55.004549    110.009098
     -4.809810     51.999249     51.999249    103.998497
     -4.799800     47.743096     47.743096     95.486192
     -4.789790     43.288720     43.288720     86.577439
     -4.779780     39.514990     39.514990     79.029980
     -4.769770     36.899704     36.899704     73.799408
     -4.759760     35.452548     35.452548     70.905096
     -4.749750     34.803503     34.803503     69.607007
     -4.739740     34.393400     34.393400     68.786800
     -4.729730     33.688762     33.688762     67.377525
     -4.719720     32.344221     32.344221     64.688442
     -4.709710     30.263872     30.263872     60.527744
     -4.699700     27.562257     27.562257     55.124514
     -4.689690     24.474437     24.474437     48.948874
     -4.679680     21.282903     21.282903     42.565805
     -4.669670     18.302885     18.302885     36.605770
     -4.659660     15.914526     15.914526     31.829053
     -4.649650     14.587799     14.587799     29.175598
     -4.639640     14.841825     14.841825     29.683651
     -4.629630     17.114861     17.114861     34.229722
     -4.619620     21.574309     21.574309     43.148619
     -4.609610     27.942682     27.942682     55.885363
     -4.599600     35.434244     35.434244     70.868489
     -4.589590     42.872440     42.872440     85.744880
     -4.579580     48.987915     48.987915     97.975829
     -4.569570     52.805583     52.805583    105.611166
     -4.559560     53.965936     53.965936    107.931871
     -4.549550     52.835997     52.835997    105.671994
     -4.539540     50.353622     50.353622    100.707244
     -4.529530     47.669309     47.669309     95.338618
     -4.519520     45.736315     45.736315     91.472629
     -4.509510     45.010733     45.010733     90.021466
     -4.499499     45.362471     45.362471     90.724943
     -4.489489     46.203991     46.203991     92.407981
     -4.479479     46.760679     46.760679     93.521358
     -4.469469     46.364879     46.364879     92.729758
     -4.459459     44.664420     44.664420     89.328840
     -4.449449     41.686438     41.686438     83.372877
     -4.439439     37.764703     37.764703     75.529405
     -4.429429     33.393114     33.393114     66.786227
     -4.419419     29.084767     29.084767     58.169534
     -4.409409     25.289029     25.289029     50.578058
     -4.399399     22.367961     22.367961     44.735922
     -4.389389     20.593348     20.593348     41.186696
     -4.379379     20.123999     20.123999     40.247997
     -4.369369     20.958169     20.958169     41.916339
     -4.359359     22.897075     22.897075     45.794149
     -4.349349     25.566892     25.566892     51.133784
     -4.339339     28.516757     28.516757     57.033514
     -4.329329     31.360453     31.360453     62.720906
     -4.319319     33.896125     33.896125     67.792250
     -4.309309     36.144227     36.144227     72.288454
     -4.299299     38.283206     38.283206     76.566412
     -4.289289     40.509764     40.509764     81.019528
     -4.279279     42.882096     42.882096     85.764192
     -4.269269     45.211756     45.211756     90.423511
     -4.259259     47.055821     47.055821     94.111642
     -4.249249     47.829815     47.829815     95.659629
     -4.239239     47.016298     47.016298     94.032595
     -4.229229     44.395388     44.395388     88.790776
     -4.219219     40.196226     40.196226     80.392452
     -4.209209     35.087677     35.087677     70.175354
     -4.199199     29.994122     29.994122     59.988244
     -4.189189     25.806291     25.806291     51.612582
     -4.179179     23.109928     23.109928     46.219856
     -4.169169     22.046029     22.046029     44.092057
     -4.159159     22.352018     22.352018     44.704035
     -4.149149     23.549750     23.549750     47.099500
     -4.139139     25.184010     25.184010     50.368020
     -4.129129     26.998582     26.998582     53.997164
     -4.119119     28.969398     28.969398     57.938796
     -4.109109     31.183246     31.183246     62.366492
     -4.099099     33.630462     33.630462     67.260924
     -4.089089     36.034696     36.034696     72.069393
     -4.079079     37.836699     37.836699     75.673397
     -4.069069     38.371928     38.371928     76.743856
     -4.059059     37.168559     37.168559     74.337118
     -4.049049     34.211630     34.211630     68.423261
     -4.039039     30.027632     30.027632     60.055263
     -4.029029     25.540866     25.540866     51.081732
     -4.019019     21.776159     21.776159     43.552318
     -4.009009     19.553734     19.553734     39.107467
     -3.998999     19.304316     19.304316     38.608631
     -3.988989     21.050392     21.050392     42.100785
     -3.978979     24.512833     24.512833     49.025666
     -3.968969     29.260310     29.260310     58.520620
     -3.958959     34.833072     34.833072     69.666144
     -3.948949     40.816904     40.816904     81.633809
     -3.938939     46.879346     46.879346     93.758693
     -3.928929     52.785462     52.785462    105.570923
     -3.918919     58.391746     58.391746    116.783493
     -3.908909     63.602299     63.602299    127.204598
     -3.898899     68.284001     68.284001    136.568003
     -3.888889     72.172329     72.172329    144.344659
     -3.878879     74.826693     74.826693    149.653385
     -3.868869     75.685409     75.685409    151.370819
     -3.858859     74.223728     74.223728    148.447457
     -3.848849     70.160976     70.160976    140.321952
     -3.838839     63.630089     63.630089    127.260179
     -3.828829     55.232960     55.232960    110.465921
     -3.818819     45.950677     45.950677     91.901353
     -3.808809     36.934184     36.934184     73.868367
     -3.798799     29.242601     29.242601     58.485202
     -3.788789     23.609343     23.609343     47.218685
     -3.778779     20.300838     20.300838     40.601676
     -3.768769     19.099827     19.099827     38.199653
     -3.758759     19.408591     19.408591     38.817183
     -3.748749     20.438013     20.438013     40.876026
     -3.738739     21.431257     21.431257     42.862514
     -3.728729     21.866832     21.866832     43.733665
     -3.718719     21.592442     21.592442     43.184885
     -3.708709     20.855878     20.855878     41.711757
     -3.698699     20.220562     20.220562     40.441125
     -3.688689     20.380524     20.380524     40.761047
     -3.678679     21.919923     21.919923     43.839845
     -3.668669     25.087847     25.087847     50.175693
     -3.658659     29.666882     29.666882     59.333764
     -3.648649     34.991731     34.991731     69.983462
     -3.638639     40.121826     40.121826     80.243652
     -3.628629     44.108678     44.108678     88.217356
     -3.618619     46.257231     46.257231     92.514463
     -3.608609     46.286572     46.286572     92.573144
     -3.598599     44.346859     44.346859     88.693719
     -3.588589     40.914431     40.914431     81.828862
     -3.578579     36.626834     36.626834     73.253669
     -3.568569     32.118369     32.118369     64.236738
     -3.558559     27.891019     27.891019     55.782037
     -3.548549     24.234210     24.234210     48.468421
     -3.538539     21.201939     21.201939     42.403877
     -3.528529     18.655432     18.655432     37.310863
     -3.518519     16.365975     16.365975     32.731950
     -3.508509     14.146024     14.146024     28.292047
     -3.498498     11.957439     11.957439     23.914879
     -3.488488      9.952721      9.952721     19.905443
     -3.478478      8.436067      8.436067     16.872134
     -3.468468      7.764286      7.764286     15.528573
     -3.458458      8.223257      8.223257     16.446514
     -3.448448      9.913417      9.913417     19.826833
     -3.438438     12.672149     12.672149     25.344297
     -3.428428     16.061033     16.061033     32.122067
     -3.418418     19.443050     19.443050     38.886100
     -3.408408     22.152142     22.152142     44.304285
     -3.398398     23.713070     23.713070     47.426140
     -3.388388     24.027500     24.027500     48.054999
     -3.378378     23.437783     23.437783     46.875566
     -3.368368     22.626983     22.626983     45.253966
     -3.358358     22.388680     22.388680     44.777359
     -3.348348     23.356872     23.356872     46.713744
     -3.338338     25.793190     25.793190     51.586380
     -3.328328     29.491997     29.491997     58.983993
     -3.318318     33.817206     33.817206     67.634412
     -3.308308     37.854722     37.854722     75.709444
     -3.298298     40.649451     40.649451     81.298902
     -3.288288     41.476829     41.476829     82.953658
     -3.278278     40.070667     40.070667     80.141333
     -3.268268     36.716112     36.716112     73.432224
     -3.258258     32.150392     32.150392     64.300784
     -3.248248     27.295825     27.295825     54.591650
     -3.238238     22.936119     22.936119     45.872238
     -3.228228     19.480027     19.480027     38.960054
     -3.218218     16.909981     16.909981     33.819962
     -3.208208     14.915437     14.915437     29.830873
     -3.198198     13.122093     13.122093     26.244186
     -3.188188     11.298422     11.298422     22.596845
     -3.178178      9.457186      9.457186     18.914373
     -3.168168      7.838344      7.838344     15.676688
     -3.158158      6.814763      6.814763     13.629525
     -3.148148      6.776257      6.776257     13.552514
     -3.138138      8.026313      8.026313     16.052626
     -3.128128     10.697785     10.697785     21.395569
     -3.118118     14.685135     14.685135     29.370271
     -3.108108     19.605638     19.605638     39.211277
     -3.098098     24.820634     24.820634     49.641268
     -3.088088     29.544019     29.544019     59.088039
     -3.078078     33.028690     33.028690     66.057379
     -3.068068     34.771028     34.771028     69.542056
     -3.058058     34.645448     34.645448     69.290896
     -3.048048     32.903300     32.903300     65.806601
     -3.038038     30.037577     30.037577     60.075153
     -3.028028     26.586632     26.586632     53.173265
     -3.018018     22.978861     22.978861     45.957723
     -3.008008     19.486761     19.486761     38.973523
     -2.997998     16.287640     16.287640     32.575279
     -2.987988     13.568184     13.568184     27.136367
     -2.977978     11.596726     11.596726     23.193452
     -2.967968     10.718705     10.718705     21.437409
     -2.957958     11.277684     11.277684     22.555367
     -2.947948     13.496792     13.496792     26.993584
     -2.937938     17.364798     17.364798     34.729596
     -2.927928     22.566231     22.566231     45.132463
     -2.917918     28.485605     28.485605     56.971210
     -2.907908     34.301408     34.301408     68.602816
     -2.897898     39.160614     39.160614     78.321228
     -2.887888     42.390599     42.390599     84.781197
     -2.877878     43.677300     43.677300     87.354600
     -2.867868     43.136406     43.136406     86.272813
     -2.857858     41.239311     41.239311     82.478623
     -2.847848     38.617472     38.617472     77.234945
     -2.837838     35.827736     35.827736     71.655472
     -2.827828     33.182935     33.182935     66.365871
     -2.817818     30.719888     30.719888     61.439775
     -2.807808     28.305292     28.305292     56.610585
     -2.797798     25.808528     25.808528     51.617057
     -2.787788     23.240121     23.240121     46.480241
     -2.777778     20.782595     20.782595     41.565190
     -2.767768     18.708602     18.708602     37.417204
     -2.757758     17.247942     17.247942     34.495885
     -2.747748     16.490487     16.490487     32.980974
     -2.737738     16.381505     16.381505     32.763010
     -2.727728     16.800118     16.800118     33.600236
     -2.717718     17.654257     17.654257     35.308514
     -2.707708     18.916512     18.916512     37.833025
     -2.697698     20.572726     20.572726     41.145452
     -2.687688     22.526602     22.526602     45.053205
     -2.677678     24.545702     24.545702     49.091404
     -2.667668     26.311634     26.311634     52.623269
     -2.657658     27.561917     27.561917     55.123833
     -2.647648     28.237107     28.237107     56.474214
     -2.637638     28.531644     28.531644     57.063289
     -2.627628     28.805154     28.805154     57.610308
     -2.617618     29.401677     29.401677     58.803354
     -2.607608     30.481177     30.481177     60.962355
     -2.597598     31.951540     31.951540     63.903081
     -2.587588     33.517808     33.517808     67.035617
     -2.577578     34.796212     34.796212     69.592423
     -2.567568     35.422645     35.422645     70.845290
     -2.557558     35.120609     35.120609     70.241218
     -2.547548     33.741220     33.741220     67.482440
     -2.537538     31.303536     31.303536     62.607071
     -2.527528     28.038380     28.038380     56.076760
     -2.517518     24.403204     24.403204     48.806408
     -2.507508     21.026894     21.026894     42.053788
     -2.497497     18.573400     18.573400     37.146800
     -2.487487     17.560329     17.560329     35.120658
     -2.477477     18.200774     18.200774     36.401548
     -2.467467     20.334814     20.334814     40.669629
     -2.457457     23.484092     23.484092     46.968184
     -2.447447     27.014736     27.014736     54.029471
     -2.437437     30.349589     30.349589     60.699179
     -2.427427     33.146766     33.146766     66.293532
     -2.417417     35.369357     35.369357     70.738715
     -2.407407     37.212290     37.212290     74.424580
     -2.397397     38.914472     38.914472     77.828943
     -2.387387     40.542680     40.542680     81.085360
     -2.377377     41.858594     41.858594     83.717187
     -2.367367     42.351553     42.351553     84.703106
     -2.357357     41.441074     41.441074     82.882148
     -2.347347     38.760880     38.760880     77.521761
     -2.337337     34.384357     34.384357     68.768715
     -2.327327     28.876973     28.876973     57.753946
     -2.317317     23.152451     23.152451     46.304902
     -2.307307     18.208778     18.208778     36.417556
     -2.297297     14.866164     14.866164     29.732329
     -2.287287     13.602454     13.602454     27.204908
     -2.277277     14.513521     14.513521     29.027041
     -2.267267     17.367144     17.367144     34.734289
     -2.257257     21.698022     21.698022     43.396045
     -2.247247     26.904161     26.904161     53.808323
     -2.237237     32.328117     32.328117     64.656234
     -2.227227     37.322721     37.322721     74.645443
     -2.217217     41.306763     41.306763     82.613526
     -2.207207     43.816580     43.816580     87.633159
     -2.197197     44.557953     44.557953     89.115906
     -2.187187     43.456947     43.456947     86.913895
     -2.177177     40.696154     40.696154     81.392309
     -2.167167     36.709756     36.709756     73.419513
     -2.157157     32.110998     32.110998     64.221996
     -2.147147     27.550410     27.550410     55.100820
     -2.137137     23.545320     23.545320     47.090640
     -2.127127     20.352855     20.352855     40.705709
     -2.117117     17.950254     17.950254     35.900509
     -2.107107     16.133562     16.133562     32.267124
     -2.097097     14.679009     14.679009     29.358018
     -2.087087     13.475357     13.475357     26.950714
     -2.077077     12.555626     12.555626     25.111253
     -2.067067     12.020159     12.020159     24.040319
     -2.057057     11.908607     11.908607     23.817215
     -2.047047     12.105766     12.105766     24.211532
     -2.037037     12.341312     12.341312     24.682624
     -2.027027     12.284994     12.284994     24.569988
     -2.017017     11.683601     11.683601     23.367203
     -2.007007     10.466102     10.466102     20.932203
     -1.996997      8.767104      8.767104     17.534207
     -1.986987      6.867875      6.867875     13.735749
     -1.976977      5.096377      5.096377     10.192755
     -1.966967      3.739258      3.739258      7.478516
     -1.956957      2.997976      2.997976      5.995952
     -1.946947      2.987206      2.987206      5.974412
     -1.936937      3.750052      3.750052      7.500105
     -1.926927      5.264076      5.264076     10.528151
     -1.916917      7.430317      7.430317     14.860635
     -1.906907     10.058777     10.058777     20.117554
     -1.896897     12.872589     12.872589     25.745177
     -1.886887     15.544210     15.544210     31.088419
     -1.876877     17.757947     17.757947     35.515893
     -1.866867     19.278259     19.278259     38.556517
     -1.856857     20.001157     20.001157     40.002313
     -1.846847     19.973831     19.973831     39.947663
     -1.836837     19.376388     19.376388     38.752776
     -1.826827     18.465832     18.465832     36.931663
     -1.816817     17.491424     17.491424     34.982847
     -1.806807     16.606022     16.606022     33.212043
     -1.796797     15.811446     15.811446     31.622891
     -1.786787     14.970538     14.970538     29.941075
     -1.776777     13.887857     13.887857     27.775715
     -1.766767     12.421002     12.421002     24.842004
     -1.756757     10.564344     10.564344     21.128688
     -1.746747      8.463442      8.463442     16.926884
     -1.736737      6.360602      6.360602     12.721203
     -1.726727      4.509946      4.509946      9.019892
     -1.716717      3.109535      3.109535      6.219071
     -1.706707      2.277042      2.277042      4.554084
     -1.696697      2.063029      2.063029      4.126058
     -1.686687      2.474150      2.474150      4.948301
     -1.676677      3.478782      3.478782      6.957563
     -1.666667      4.986380      4.986380      9.972760
     -1.656657      6.816629      6.816629     13.633258
     -1.646647      8.690048      8.690048     17.380096
     -1.636637     10.267422     10.267422     20.534844
     -1.626627     11.240787     11.240787     22.481574
