# EIG2DOS: Utility for SIESTA to obtain the electronic density of states
#  E. Artacho, Apr 1999, A. Garcia, Apr 2012
#  Nick R. Papior, Feb 2017
# ------------------------------------------
# Eigenvalues calculated from a non-polarized calculation
# Eigenvalues read from siesta.EIG
# Kpoint weights read from siesta.KP
# Using smearing parameter:   0.0500
# Using 1000 points in the energy range
# Selected bands: 1 to: 2981
# Emin, Emax in file for selected band(s):    -27.0961123    218.3317190
# Nbands, Nspin, Nk   =   2981     1     1
# E_F                 =    -4.2762 eV --> (shifted to ZERO)
# Broadening          =     0.0500 eV
#
#        E            N(up)  (=)   N(down)         Ntot
     -5.000000     43.448556     43.448556     86.897113
     -4.989990     45.307214     45.307214     90.614429
     -4.979980     46.394430     46.394430     92.788859
     -4.969970     46.615997     46.615997     93.231995
     -4.959960     45.872857     45.872857     91.745713
     -4.949950     44.133447     44.133447     88.266894
     -4.939940     41.506889     41.506889     83.013778
     -4.929930     38.284253     38.284253     76.568507
     -4.919920     34.937523     34.937523     69.875046
     -4.909910     32.080941     32.080941     64.161882
     -4.899900     30.395772     30.395772     60.791543
     -4.889890     30.507591     30.507591     61.015182
     -4.879880     32.810252     32.810252     65.620504
     -4.869870     37.267949     37.267949     74.535897
     -4.859860     43.278728     43.278728     86.557456
     -4.849850     49.703581     49.703581     99.407162
     -4.839840     55.116164     55.116164    110.232329
     -4.829830     58.218261     58.218261    116.436522
     -4.819820     58.258701     58.258701    116.517402
     -4.809810     55.266110     55.266110    110.532220
     -4.799800     49.989162     49.989162     99.978324
     -4.789790     43.585590     43.585590     87.171181
     -4.779780     37.219798     37.219798     74.439595
     -4.769770     31.747479     31.747479     63.494958
     -4.759760     27.586500     27.586500     55.173000
     -4.749750     24.762219     24.762219     49.524438
     -4.739740     23.044637     23.044637     46.089273
     -4.729730     22.090638     22.090638     44.181276
     -4.719720     21.543548     21.543548     43.087096
     -4.709710     21.084738     21.084738     42.169475
     -4.699700     20.456005     20.456005     40.912011
     -4.689690     19.476414     19.476414     38.952829
     -4.679680     18.069933     18.069933     36.139867
     -4.669670     16.305245     16.305245     32.610490
     -4.659660     14.431766     14.431766     28.863531
     -4.649650     12.885325     12.885325     25.770651
     -4.639640     12.240076     12.240076     24.480152
     -4.629630     13.098460     13.098460     26.196920
     -4.619620     15.931245     15.931245     31.862490
     -4.609610     20.900109     20.900109     41.800219
     -4.599600     27.715023     27.715023     55.430047
     -4.589590     35.591519     35.591519     71.183037
     -4.579580     43.362762     43.362762     86.725524
     -4.569570     49.754295     49.754295     99.508589
     -4.559560     53.754215     53.754215    107.508429
     -4.549550     54.946280     54.946280    109.892560
     -4.539540     53.663405     53.663405    107.326810
     -4.529530     50.882778     50.882778    101.765556
     -4.519520     47.894167     47.894167     95.788333
     -4.509510     45.871785     45.871785     91.743571
     -4.499499     45.515162     45.515162     91.030324
     -4.489489     46.881559     46.881559     93.763118
     -4.479479     49.441067     49.441067     98.882134
     -4.469469     52.296929     52.296929    104.593859
     -4.459459     54.469178     54.469178    108.938357
     -4.449449     55.148264     55.148264    110.296528
     -4.439439     53.865609     53.865609    107.731218
     -4.429429     50.568744     50.568744    101.137488
     -4.419419     45.611039     45.611039     91.222078
     -4.409409     39.670956     39.670956     79.341912
     -4.399399     33.615041     33.615041     67.230082
     -4.389389     28.322974     28.322974     56.645948
     -4.379379     24.503831     24.503831     49.007662
     -4.369369     22.544625     22.544625     45.089249
     -4.359359     22.435358     22.435358     44.870715
     -4.349349     23.800707     23.800707     47.601414
     -4.339339     26.036067     26.036067     52.072134
     -4.329329     28.506152     28.506152     57.012304
     -4.319319     30.737339     30.737339     61.474677
     -4.309309     32.536674     32.536674     65.073349
     -4.299299     34.001054     34.001054     68.002109
     -4.289289     35.422451     35.422451     70.844902
     -4.279279     37.127938     37.127938     74.255876
     -4.269269     39.307212     39.307212     78.614424
     -4.259259     41.880960     41.880960     83.761920
     -4.249249     44.458308     44.458308     88.916615
     -4.239239     46.416495     46.416495     92.832991
     -4.229229     47.099027     47.099027     94.198053
     -4.219219     46.071401     46.071401     92.142802
     -4.209209     43.325304     43.325304     86.650607
     -4.199199     39.324419     39.324419     78.648838
     -4.189189     34.854130     34.854130     69.708261
     -4.179179     30.739997     30.739997     61.479994
     -4.169169     27.571086     27.571086     55.142173
     -4.159159     25.556842     25.556842     51.113684
     -4.149149     24.567437     24.567437     49.134874
     -4.139139     24.310537     24.310537     48.621074
     -4.129129     24.537816     24.537816     49.075631
     -4.119119     25.174899     25.174899     50.349799
     -4.109109     26.315615     26.315615     52.631229
     -4.099099     28.088719     28.088719     56.177438
     -4.089089     30.468266     30.468266     60.936533
     -4.079079     33.135022     33.135022     66.270044
     -4.069069     35.484260     35.484260     70.968519
     -4.059059     36.807470     36.807470     73.614940
     -4.049049     36.577980     36.577980     73.155960
     -4.039039     34.699746     34.699746     69.399491
     -4.029029     31.586180     31.586180     63.172361
     -4.019019     28.025250     28.025250     56.050501
     -4.009009     24.903922     24.903922     49.807843
     -3.998999     22.933835     22.933835     45.867671
     -3.988989     22.499795     22.499795     44.999590
     -3.978979     23.664926     23.664926     47.329851
     -3.968969     26.276072     26.276072     52.552143
     -3.958959     30.078330     30.078330     60.156660
     -3.948949     34.779930     34.779930     69.559859
     -3.938939     40.070294     40.070294     80.140587
     -3.928929     45.632320     45.632320     91.264641
     -3.918919     51.178583     51.178583    102.357166
     -3.908909     56.498075     56.498075    112.996150
     -3.898899     61.468205     61.468205    122.936409
     -3.888889     65.997228     65.997228    131.994457
     -3.878879     69.910874     69.910874    139.821748
     -3.868869     72.848791     72.848791    145.697581
     -3.858859     74.252739     74.252739    148.505478
     -3.848849     73.492201     73.492201    146.984402
     -3.838839     70.100032     70.100032    140.200064
     -3.828829     64.021174     64.021174    128.042348
     -3.818819     55.753558     55.753558    111.507116
     -3.808809     46.300513     46.300513     92.601026
     -3.798799     36.938853     36.938853     73.877706
     -3.788789     28.889303     28.889303     57.778605
     -3.778779     23.012126     23.012126     46.024252
     -3.768769     19.627873     19.627873     39.255746
     -3.758759     18.503453     18.503453     37.006906
     -3.748749     18.983728     18.983728     37.967456
     -3.738739     20.213056     20.213056     40.426112
     -3.728729     21.382255     21.382255     42.764510
     -3.718719     21.943103     21.943103     43.886206
     -3.708709     21.744338     21.744338     43.488677
     -3.698699     21.057363     21.057363     42.114726
     -3.688689     20.479717     20.479717     40.959434
     -3.678679     20.732617     20.732617     41.465235
     -3.668669     22.402907     22.402907     44.805813
     -3.658659     25.708796     25.708796     51.417593
     -3.648649     30.375940     30.375940     60.751880
     -3.638639     35.681236     35.681236     71.362471
     -3.628629     40.658293     40.658293     81.316586
     -3.618619     44.387027     44.387027     88.774054
     -3.608609     46.250905     46.250905     92.501810
     -3.598599     46.066040     46.066040     92.132080
     -3.588589     44.055217     44.055217     88.110433
     -3.578579     40.712063     40.712063     81.424125
     -3.568569     36.631665     36.631665     73.263330
     -3.558559     32.366092     32.366092     64.732184
     -3.548549     28.326267     28.326267     56.652534
     -3.538539     24.730305     24.730305     49.460611
     -3.528529     21.600009     21.600009     43.200018
     -3.518519     18.811175     18.811175     37.622349
     -3.508509     16.189971     16.189971     32.379943
     -3.498498     13.622027     13.622027     27.244055
     -3.488488     11.127115     11.127115     22.254230
     -3.478478      8.866825      8.866825     17.733650
     -3.468468      7.086732      7.086732     14.173465
     -3.458458      6.023705      6.023705     12.047409
     -3.448448      5.816410      5.816410     11.632820
     -3.438438      6.446441      6.446441     12.892882
     -3.428428      7.723992      7.723992     15.447985
     -3.418418      9.324204      9.324204     18.648409
     -3.408408     10.872936     10.872936     21.745872
     -3.398398     12.065161     12.065161     24.130321
     -3.388388     12.778120     12.778120     25.556239
     -3.378378     13.131031     13.131031     26.262063
     -3.368368     13.458623     13.458623     26.917247
     -3.358358     14.203887     14.203887     28.407775
     -3.348348     15.772903     15.772903     31.545806
     -3.338338     18.405836     18.405836     36.811671
     -3.328328     22.097884     22.097884     44.195769
     -3.318318     26.572832     26.572832     53.145663
     -3.308308     31.298316     31.298316     62.596632
     -3.298298     35.544346     35.544346     71.088693
     -3.288288     38.502639     38.502639     77.005277
     -3.278278     39.472268     39.472268     78.944535
     -3.268268     38.071042     38.071042     76.142084
     -3.258258     34.386167     34.386167     68.772335
     -3.248248     28.979450     28.979450     57.958900
     -3.238238     22.725646     22.725646     45.451291
     -3.228228     16.549702     16.549702     33.099404
     -3.218218     11.179142     11.179142     22.358285
     -3.208208      7.009349      7.009349     14.018698
     -3.198198      4.111500      4.111500      8.223001
     -3.188188      2.344771      2.344771      4.689542
     -3.178178      1.503943      1.503943      3.007886
     -3.168168      1.443827      1.443827      2.887655
     -3.158158      2.149955      2.149955      4.299911
     -3.148148      3.747340      3.747340      7.494681
     -3.138138      6.448647      6.448647     12.897295
     -3.128128     10.448978     10.448978     20.897956
     -3.118118     15.788531     15.788531     31.577062
     -3.108108     22.227347     22.227347     44.454694
     -3.098098     29.193257     29.193257     58.386514
     -3.088088     35.853811     35.853811     71.707622
     -3.078078     41.316032     41.316032     82.632064
     -3.068068     44.890464     44.890464     89.780928
     -3.058058     46.306455     46.306455     92.612910
     -3.048048     45.771391     45.771391     91.542783
     -3.038038     43.836452     43.836452     87.672904
     -3.028028     41.132604     41.132604     82.265207
     -3.018018     38.113703     38.113703     76.227406
     -3.008008     34.940226     34.940226     69.880452
     -2.997998     31.554750     31.554750     63.109500
     -2.987988     27.888790     27.888790     55.777579
     -2.977978     24.070047     24.070047     48.140094
     -2.967968     20.510318     20.510318     41.020636
     -2.957958     17.831147     17.831147     35.662294
     -2.947948     16.670909     16.670909     33.341818
     -2.937938     17.463162     17.463162     34.926324
     -2.927928     20.270614     20.270614     40.541228
     -2.917918     24.724799     24.724799     49.449598
     -2.907908     30.085711     30.085711     60.171422
     -2.897898     35.407351     35.407351     70.814702
     -2.887888     39.769217     39.769217     79.538433
     -2.877878     42.508907     42.508907     85.017815
     -2.867868     43.379292     43.379292     86.758584
     -2.857858     42.570935     42.570935     85.141869
     -2.847848     40.589139     40.589139     81.178277
     -2.837838     38.036009     38.036009     76.072019
     -2.827828     35.390385     35.390385     70.780769
     -2.817818     32.878024     32.878024     65.756048
     -2.807808     30.479086     30.479086     60.958171
     -2.797798     28.051860     28.051860     56.103720
     -2.787788     25.495992     25.495992     50.991984
     -2.777778     22.864061     22.864061     45.728122
     -2.767768     20.364737     20.364737     40.729473
     -2.757758     18.264851     18.264851     36.529703
     -2.747748     16.755886     16.755886     33.511772
     -2.737738     15.869197     15.869197     31.738394
     -2.727728     15.492140     15.492140     30.984279
     -2.717718     15.472361     15.472361     30.944721
     -2.707708     15.739503     15.739503     31.479006
     -2.697698     16.359989     16.359989     32.719978
     -2.687688     17.482658     17.482658     34.965316
     -2.677678     19.205995     19.205995     38.411990
     -2.667668     21.454180     21.454180     42.908360
     -2.657658     23.949838     23.949838     47.899675
     -2.647648     26.312001     26.312001     52.624001
     -2.637638     28.225661     28.225661     56.451321
     -2.627628     29.579997     29.579997     59.159994
     -2.617618     30.491680     30.491680     60.983360
     -2.607608     31.205259     31.205259     62.410518
     -2.597598     31.940538     31.940538     63.881077
     -2.587588     32.781004     32.781004     65.562008
     -2.577578     33.654331     33.654331     67.308662
     -2.567568     34.385478     34.385478     68.770957
     -2.557558     34.763549     34.763549     69.527098
     -2.547548     34.582075     34.582075     69.164149
     -2.537538     33.661804     33.661804     67.323608
     -2.527528     31.892780     31.892780     63.785560
     -2.517518     29.310476     29.310476     58.620952
     -2.507508     26.170832     26.170832     52.341664
     -2.497497     22.960278     22.960278     45.920556
     -2.487487     20.299769     20.299769     40.599537
     -2.477477     18.762751     18.762751     37.525501
     -2.467467     18.682849     18.682849     37.365699
     -2.457457     20.041183     20.041183     40.082365
     -2.447447     22.488570     22.488570     44.977141
     -2.437437     25.495039     25.495039     50.990078
     -2.427427     28.559393     28.559393     57.118786
     -2.417417     31.382679     31.382679     62.765357
     -2.407407     33.924981     33.924981     67.849963
     -2.397397     36.320028     36.320028     72.640055
     -2.387387     38.692165     38.692165     77.384330
     -2.377377     40.971519     40.971519     81.943038
     -2.367367     42.808794     42.808794     85.617588
     -2.357357     43.646176     43.646176     87.292352
     -2.347347     42.925009     42.925009     85.850019
     -2.337337     40.340812     40.340812     80.681623
     -2.327327     36.027978     36.027978     72.055956
     -2.317317     30.587015     30.587015     61.174030
     -2.307307     24.941201     24.941201     49.882402
     -2.297297     20.086402     20.086402     40.172804
     -2.287287     16.835956     16.835956     33.671913
     -2.277277     15.647544     15.647544     31.295087
     -2.267267     16.569659     16.569659     33.139317
     -2.257257     19.295293     19.295293     38.590586
     -2.247247     23.281949     23.281949     46.563898
     -2.237237     27.891339     27.891339     55.782678
     -2.227227     32.509190     32.509190     65.018381
     -2.217217     36.618962     36.618962     73.237925
     -2.207207     39.823005     39.823005     79.646010
     -2.197197     41.828754     41.828754     83.657509
     -2.187187     42.435127     42.435127     84.870255
     -2.177177     41.550431     41.550431     83.100861
     -2.167167     39.243468     39.243468     78.486937
     -2.157157     35.790569     35.790569     71.581138
     -2.147147     31.663421     31.663421     63.326843
     -2.137137     27.427036     27.427036     54.854071
     -2.127127     23.574098     23.574098     47.148196
     -2.117117     20.372565     20.372565     40.745131
     -2.107107     17.807683     17.807683     35.615366
     -2.097097     15.649736     15.649736     31.299473
     -2.087087     13.607224     13.607224     27.214447
     -2.077077     11.480350     11.480350     22.960701
     -2.067067      9.239440      9.239440     18.478880
     -2.057057      7.005012      7.005012     14.010024
     -2.047047      4.962233      4.962233      9.924467
     -2.037037      3.267843      3.267843      6.535686
     -2.027027      1.994926      1.994926      3.989852
     -2.017017      1.128150      1.128150      2.256300
     -2.007007      0.594096      0.594096      1.188192
     -1.996997      0.301796      0.301796      0.603591
     -1.986987      0.175372      0.175372      0.350745
     -1.976977      0.173079      0.173079      0.346157
     -1.966967      0.295619      0.295619      0.591239
     -1.956957      0.588069      0.588069      1.176139
     -1.946947      1.135908      1.135908      2.271815
     -1.936937      2.051175      2.051175      4.102349
     -1.926927      3.443999      3.443999      6.887998
     -1.916917      5.380146      5.380146     10.760292
     -1.906907      7.835134      7.835134     15.670267
     -1.896897     10.663884     10.663884     21.327767
     -1.886887     13.604509     13.604509     27.209017
     -1.876877     16.323262     16.323262     32.646523
     -1.866867     18.490286     18.490286     36.980572
     -1.856857     19.862714     19.862714     39.725428
     -1.846847     20.349004     20.349004     40.698008
     -1.836837     20.034391     20.034391     40.068783
     -1.826827     19.156757     19.156757     38.313515
     -1.816817     18.034009     18.034009     36.068018
     -1.806807     16.960976     16.960976     33.921952
     -1.796797     16.113081     16.113081     32.226162
     -1.786787     15.502154     15.502154     31.004308
     -1.776777     15.011954     15.011954     30.023907
     -1.766767     14.498754     14.498754     28.997508
     -1.756757     13.900250     13.900250     27.800499
     -1.746747     13.285599     13.285599     26.571198
     -1.736737     12.813472     12.813472     25.626944
     -1.726727     12.623945     12.623945     25.247890
     -1.716717     12.734707     12.734707     25.469414
     -1.706707     13.011346     13.011346     26.022693
     -1.696697     13.234839     13.234839     26.469678
     -1.686687     13.226802     13.226802     26.453605
     -1.676677     12.954911     12.954911     25.909821
     -1.666667     12.551492     12.551492     25.102985
     -1.656657     12.231034     12.231034     24.462068
     -1.646647     12.154156     12.154156     24.308312
     -1.636637     12.318683     12.318683     24.637366
     -1.626627     12.543327     12.543327     25.086655
