# EIG2DOS: Utility for SIESTA to obtain the electronic density of states
#  E. Artacho, Apr 1999, A. Garcia, Apr 2012
#  Nick R. Papior, Feb 2017
# ------------------------------------------
# Eigenvalues calculated from a non-polarized calculation
# Eigenvalues read from siesta.EIG
# Kpoint weights read from siesta.KP
# Using smearing parameter:   0.0500
# Using 1000 points in the energy range
# Selected bands: 1 to: 2981
# Emin, Emax in file for selected band(s):    -27.3261513    218.3916850
# Nbands, Nspin, Nk   =   2981     1     1
# E_F                 =    -4.2150 eV --> (shifted to ZERO)
# Broadening          =     0.0500 eV
#
#        E            N(up)  (=)   N(down)         Ntot
     -5.000000     35.404617     35.404617     70.809235
     -4.989990     39.687753     39.687753     79.375507
     -4.979980     43.118573     43.118573     86.237146
     -4.969970     45.119884     45.119884     90.239769
     -4.959960     45.353499     45.353499     90.706997
     -4.949950     43.831475     43.831475     87.662950
     -4.939940     40.920389     40.920389     81.840777
     -4.929930     37.257651     37.257651     74.515302
     -4.919920     33.629647     33.629647     67.259294
     -4.909910     30.851446     30.851446     61.702891
     -4.899900     29.652563     29.652563     59.305125
     -4.889890     30.548582     30.548582     61.097164
     -4.879880     33.692296     33.692296     67.384591
     -4.869870     38.744838     38.744838     77.489675
     -4.859860     44.847584     44.847584     89.695167
     -4.849850     50.765005     50.765005    101.530011
     -4.839840     55.196494     55.196494    110.392989
     -4.829830     57.159220     57.159220    114.318440
     -4.819820     56.287771     56.287771    112.575541
     -4.809810     52.922546     52.922546    105.845092
     -4.799800     47.956576     47.956576     95.913152
     -4.789790     42.520709     42.520709     85.041419
     -4.779780     37.645246     37.645246     75.290492
     -4.769770     34.017008     34.017008     68.034016
     -4.759760     31.882277     31.882277     63.764553
     -4.749750     31.079778     31.079778     62.159556
     -4.739740     31.157331     31.157331     62.314662
     -4.729730     31.526715     31.526715     63.053430
     -4.719720     31.620406     31.620406     63.240813
     -4.709710     31.018357     31.018357     62.036714
     -4.699700     29.520201     29.520201     59.040402
     -4.689690     27.157501     27.157501     54.315002
     -4.679680     24.164979     24.164979     48.329957
     -4.669670     20.940140     20.940140     41.880279
     -4.659660     18.007340     18.007340     36.014679
     -4.649650     15.976210     15.976210     31.952420
     -4.639640     15.467767     15.467767     30.935534
     -4.629630     16.989398     16.989398     33.978796
     -4.619620     20.770515     20.770515     41.541029
     -4.609610     26.609128     26.609128     53.218257
     -4.599600     33.804925     33.804925     67.609849
     -4.589590     41.245994     41.245994     82.491988
     -4.579580     47.664748     47.664748     95.329496
     -4.569570     51.998665     51.998665    103.997330
     -4.559560     53.724177     53.724177    107.448353
     -4.549550     53.022077     53.022077    106.044154
     -4.539540     50.695839     50.695839    101.391678
     -4.529530     47.870849     47.870849     95.741698
     -4.519520     45.596273     45.596273     91.192546
     -4.509510     44.505600     44.505600     89.011199
     -4.499499     44.656135     44.656135     89.312271
     -4.489489     45.586305     45.586305     91.172609
     -4.479479     46.542679     46.542679     93.085359
     -4.469469     46.771739     46.771739     93.543479
     -4.459459     45.763038     45.763038     91.526077
     -4.449449     43.368194     43.368194     86.736387
     -4.439439     39.782938     39.782938     79.565876
     -4.429429     35.436791     35.436791     70.873581
     -4.419419     30.860173     30.860173     61.720346
     -4.409409     26.583195     26.583195     53.166389
     -4.399399     23.078833     23.078833     46.157667
     -4.389389     20.726663     20.726663     41.453327
     -4.379379     19.767666     19.767666     39.535332
     -4.369369     20.247547     20.247547     40.495095
     -4.359359     21.980404     21.980404     43.960807
     -4.349349     24.574688     24.574688     49.149376
     -4.339339     27.536815     27.536815     55.073631
     -4.329329     30.421538     30.421538     60.843076
     -4.319319     32.965496     32.965496     65.930992
     -4.309309     35.143733     35.143733     70.287467
     -4.299299     37.124879     37.124879     74.249757
     -4.289289     39.145297     39.145297     78.290594
     -4.279279     41.352619     41.352619     82.705237
     -4.269269     43.677481     43.677481     87.354961
     -4.259259     45.784784     45.784784     91.569569
     -4.249249     47.136526     47.136526     94.273053
     -4.239239     47.164072     47.164072     94.328143
     -4.229229     45.499272     45.499272     90.998543
     -4.219219     42.170306     42.170306     84.340612
     -4.209209     37.662453     37.662453     75.324905
     -4.199199     32.795412     32.795412     65.590824
     -4.189189     28.458170     28.458170     56.916340
     -4.179179     25.318132     25.318132     50.636265
     -4.169169     23.635670     23.635670     47.271340
     -4.159159     23.259647     23.259647     46.519295
     -4.149149     23.788520     23.788520     47.577039
     -4.139139     24.805598     24.805598     49.611196
     -4.129129     26.070370     26.070370     52.140739
     -4.119119     27.575707     27.575707     55.151414
     -4.109109     29.447466     29.447466     58.894932
     -4.099099     31.741977     31.741977     63.483954
     -4.089089     34.256114     34.256114     68.512227
     -4.079079     36.471467     36.471467     72.942935
     -4.069069     37.692785     37.692785     75.385569
     -4.059059     37.333348     37.333348     74.666696
     -4.049049     35.206548     35.206548     70.413096
     -4.039039     31.666671     31.666671     63.333343
     -4.029029     27.520277     27.520277     55.040554
     -4.019019     23.754960     23.754960     47.509920
     -4.009009     21.224566     21.224566     42.449132
     -3.998999     20.434623     20.434623     40.869245
     -3.988989     21.496553     21.496553     42.993106
     -3.978979     24.221465     24.221465     48.442931
     -3.968969     28.265990     28.265990     56.531981
     -3.958959     33.249448     33.249448     66.498895
     -3.948949     38.812626     38.812626     77.625252
     -3.938939     44.637718     44.637718     89.275436
     -3.928929     50.461249     50.461249    100.922497
     -3.918919     56.087433     56.087433    112.174866
     -3.908909     61.379890     61.379890    122.759780
     -3.898899     66.208534     66.208534    132.417069
     -3.888889     70.361368     70.361368    140.722736
     -3.878879     73.471049     73.471049    146.942099
     -3.868869     75.018290     75.018290    150.036580
     -3.858859     74.443508     74.443508    148.887016
     -3.848849     71.341087     71.341087    142.682174
     -3.838839     65.660652     65.660652    131.321303
     -3.828829     57.825408     57.825408    115.650817
     -3.818819     48.706424     48.706424     97.412848
     -3.808809     39.449138     39.449138     78.898277
     -3.798799     31.206809     31.206809     62.413618
     -3.788789     24.869081     24.869081     49.738163
     -3.778779     20.870516     20.870516     41.741032
     -3.768769     19.130211     19.130211     38.260422
     -3.758759     19.128243     19.128243     38.256485
     -3.748749     20.086207     20.086207     40.172415
     -3.738739     21.197513     21.197513     42.395027
     -3.728729     21.848237     21.848237     43.696473
     -3.718719     21.776274     21.776274     43.552549
     -3.708709     21.130858     21.130858     42.261715
     -3.698699     20.414629     20.414629     40.829258
     -3.688689     20.316661     20.316661     40.633321
     -3.678679     21.475504     21.475504     42.951008
     -3.668669     24.239807     24.239807     48.479614
     -3.658659     28.507309     28.507309     57.014619
     -3.648649     33.707416     33.707416     67.414832
     -3.638639     38.944407     38.944407     77.888813
     -3.628629     43.253375     43.253375     86.506750
     -3.618619     45.871575     45.871575     91.743151
     -3.608609     46.424026     46.424026     92.848052
     -3.598599     44.968177     44.968177     89.936354
     -3.588589     41.909448     41.909448     83.818895
     -3.578579     37.846056     37.846056     75.692111
     -3.568569     33.406067     33.406067     66.812135
     -3.558559     29.114722     29.114722     58.229444
     -3.548549     25.306111     25.306111     50.612221
     -3.538539     22.087080     22.087080     44.174159
     -3.528529     19.363059     19.363059     38.726117
     -3.518519     16.925424     16.925424     33.850848
     -3.508509     14.574152     14.574152     29.148305
     -3.498498     12.226606     12.226606     24.453211
     -3.488488      9.965688      9.965688     19.931376
     -3.478478      8.010642      8.010642     16.021284
     -3.468468      6.630970      6.630970     13.261940
     -3.458458      6.044594      6.044594     12.089187
     -3.448448      6.338418      6.338418     12.676835
     -3.438438      7.434264      7.434264     14.868527
     -3.428428      9.109043      9.109043     18.218086
     -3.418418     11.066888     11.066888     22.133776
     -3.408408     13.045881     13.045881     26.091763
     -3.398398     14.922192     14.922192     29.844385
     -3.388388     16.763214     16.763214     33.526429
     -3.378378     18.795834     18.795834     37.591668
     -3.368368     21.297102     21.297102     42.594203
     -3.358358     24.458241     24.458241     48.916483
     -3.348348     28.286397     28.286397     56.572795
     -3.338338     32.579605     32.579605     65.159210
     -3.328328     36.962454     36.962454     73.924909
     -3.318318     40.943629     40.943629     81.887259
     -3.308308     43.972790     43.972790     87.945580
     -3.298298     45.511619     45.511619     91.023238
     -3.288288     45.146954     45.146954     90.293909
     -3.278278     42.738921     42.738921     85.477842
     -3.268268     38.540023     38.540023     77.080046
     -3.258258     33.198044     33.198044     66.396088
     -3.248248     27.599784     27.599784     55.199567
     -3.238238     22.601178     22.601178     45.202356
     -3.228228     18.760643     18.760643     37.521285
     -3.218218     16.196711     16.196711     32.393423
     -3.208208     14.627265     14.627265     29.254529
     -3.198198     13.558227     13.558227     27.116455
     -3.188188     12.526215     12.526215     25.052431
     -3.178178     11.290695     11.290695     22.581389
     -3.168168      9.911385      9.911385     19.822771
     -3.158158      8.706197      8.706197     17.412394
     -3.148148      8.130104      8.130104     16.260208
     -3.138138      8.627790      8.627790     17.255580
     -3.128128     10.498460     10.498460     20.996920
     -3.118118     13.792039     13.792039     27.584078
     -3.108108     18.250358     18.250358     36.500716
     -3.098098     23.313736     23.313736     46.627472
     -3.088088     28.213698     28.213698     56.427395
     -3.078078     32.148927     32.148927     64.297853
     -3.068068     34.498087     34.498087     68.996174
     -3.058058     34.987977     34.987977     69.975953
     -3.048048     33.741025     33.741025     67.482049
     -3.038038     31.180326     31.180326     62.360651
     -3.028028     27.844515     27.844515     55.689029
     -3.018018     24.210625     24.210625     48.421250
     -3.008008     20.609196     20.609196     41.218391
     -2.997998     17.252762     17.252762     34.505525
     -2.987988     14.330928     14.330928     28.661856
     -2.977978     12.095625     12.095625     24.191251
     -2.967968     10.879649     10.879649     21.759298
     -2.957958     11.036653     11.036653     22.073307
     -2.947948     12.829468     12.829468     25.658936
     -2.937938     16.310185     16.310185     32.620370
     -2.927928     21.234790     21.234790     42.469580
     -2.917918     27.047133     27.047133     54.094266
     -2.907908     32.953482     32.953482     65.906964
     -2.897898     38.084703     38.084703     76.169405
     -2.887888     41.708578     41.708578     83.417155
     -2.877878     43.423308     43.423308     86.846617
     -2.867868     43.255568     43.255568     86.511136
     -2.857858     41.615693     41.615693     83.231386
     -2.847848     39.121552     39.121552     78.243104
     -2.837838     36.363961     36.363961     72.727921
     -2.827828     33.716365     33.716365     67.432731
     -2.817818     31.270146     31.270146     62.540293
     -2.807808     28.912576     28.912576     57.825152
     -2.797798     26.491366     26.491366     52.982731
     -2.787788     23.968645     23.968645     47.937289
     -2.777778     21.481128     21.481128     42.962257
     -2.767768     19.283141     19.283141     38.566281
     -2.757758     17.619203     17.619203     35.238407
     -2.747748     16.611423     16.611423     33.222847
     -2.737738     16.231111     16.231111     32.462221
     -2.727728     16.364363     16.364363     32.728726
     -2.717718     16.916432     16.916432     33.832864
     -2.707708     17.873353     17.873353     35.746706
     -2.697698     19.271533     19.271533     38.543066
     -2.687688     21.096462     21.096462     42.192923
     -2.677678     23.190830     23.190830     46.381660
     -2.667668     25.254484     25.254484     50.508969
     -2.657658     26.957503     26.957503     53.915005
     -2.647648     28.104313     28.104313     56.208627
     -2.637638     28.742537     28.742537     57.485073
     -2.627628     29.140473     29.140473     58.280946
     -2.617618     29.642227     29.642227     59.284454
     -2.607608     30.487691     30.487691     60.975382
     -2.597598     31.699871     31.699871     63.399742
     -2.587588     33.087672     33.087672     66.175345
     -2.577578     34.334926     34.334926     68.669853
     -2.567568     35.105859     35.105859     70.211719
     -2.557558     35.116815     35.116815     70.233630
     -2.547548     34.174944     34.174944     68.349888
     -2.537538     32.215641     32.215641     64.431282
     -2.527528     29.355476     29.355476     58.710953
     -2.517518     25.935746     25.935746     51.871491
     -2.507508     22.507007     22.507007     45.014015
     -2.497497     19.723612     19.723612     39.447224
     -2.487487     18.167666     18.167666     36.335332
     -2.477477     18.168221     18.168221     36.336442
     -2.467467     19.693721     19.693721     39.387442
     -2.457457     22.368210     22.368210     44.736419
     -2.447447     25.610064     25.610064     51.220128
     -2.437437     28.839884     28.839884     57.679767
     -2.427427     31.672943     31.672943     63.345886
     -2.417417     34.014757     34.014757     68.029513
     -2.407407     36.016851     36.016851     72.033703
     -2.397397     37.910496     37.910496     75.820992
     -2.387387     39.794463     39.794463     79.588926
     -2.377377     41.482241     41.482241     82.964481
     -2.367367     42.496151     42.496151     84.992302
     -2.357357     42.230973     42.230973     84.461946
     -2.347347     40.223603     40.223603     80.447206
     -2.337337     36.403152     36.403152     72.806305
     -2.327327     31.198114     31.198114     62.396228
     -2.317317     25.448168     25.448168     50.896335
     -2.307307     20.166447     20.166447     40.332894
     -2.297297     16.263197     16.263197     32.526394
     -2.287287     14.339283     14.339283     28.678566
     -2.277277     14.602221     14.602221     29.204441
     -2.267267     16.893416     16.893416     33.786831
     -2.257257     20.780304     20.780304     41.560608
     -2.247247     25.667296     25.667296     51.334591
     -2.237237     30.897286     30.897286     61.794571
     -2.227227     35.832220     35.832220     71.664441
     -2.217217     39.910758     39.910758     79.821516
     -2.207207     42.687304     42.687304     85.374608
     -2.197197     43.862310     43.862310     87.724619
     -2.187187     43.314463     43.314463     86.628926
     -2.177177     41.134836     41.134836     82.269671
     -2.167167     37.643458     37.643458     75.286916
     -2.157157     33.355576     33.355576     66.711152
     -2.147147     28.876550     28.876550     57.753101
     -2.137137     24.743500     24.743500     49.487000
     -2.127127     21.274975     21.274975     42.549950
     -2.117117     18.502200     18.502200     37.004401
     -2.107107     16.219714     16.219714     32.439427
     -2.097097     14.128753     14.128753     28.257505
     -2.087087     11.996724     11.996724     23.993449
     -2.077077      9.754051      9.754051     19.508101
     -2.067067      7.493898      7.493898     14.987795
     -2.057057      5.397550      5.397550     10.795099
     -2.047047      3.641425      3.641425      7.282849
     -2.037037      2.336430      2.336430      4.672859
     -2.027027      1.519281      1.519281      3.038561
     -2.017017      1.183040      1.183040      2.366079
     -2.007007      1.317651      1.317651      2.635302
     -1.996997      1.933253      1.933253      3.866507
     -1.986987      3.052724      3.052724      6.105448
     -1.976977      4.677459      4.677459      9.354918
     -1.966967      6.745864      6.745864     13.491729
     -1.956957      9.111443      9.111443     18.222886
     -1.946947     11.560801     11.560801     23.121602
     -1.936937     13.870648     13.870648     27.741295
     -1.926927     15.877169     15.877169     31.754338
     -1.916917     17.518914     17.518914     35.037828
     -1.906907     18.827478     18.827478     37.654957
     -1.896897     19.872385     19.872385     39.744770
     -1.886887     20.695164     20.695164     41.390328
     -1.876877     21.272510     21.272510     42.545021
     -1.866867     21.528106     21.528106     43.056212
     -1.856857     21.383550     21.383550     42.767101
     -1.846847     20.818877     20.818877     41.637753
     -1.836837     19.909418     19.909418     39.818835
     -1.826827     18.816004     18.816004     37.632009
     -1.816817     17.725871     17.725871     35.451743
     -1.806807     16.767539     16.767539     33.535077
     -1.796797     15.943193     15.943193     31.886385
     -1.786787     15.120802     15.120802     30.241604
     -1.776777     14.098668     14.098668     28.197336
     -1.766767     12.712034     12.712034     25.424068
     -1.756757     10.924191     10.924191     21.848382
     -1.746747      8.853947      8.853947     17.707894
     -1.736737      6.731042      6.731042     13.462085
     -1.726727      4.812447      4.812447      9.624894
     -1.716717      3.308053      3.308053      6.616106
     -1.706707      2.347956      2.347956      4.695913
     -1.696697      1.991370      1.991370      3.982740
     -1.686687      2.252003      2.252003      4.504007
     -1.676677      3.110212      3.110212      6.220424
     -1.666667      4.497700      4.497700      8.995401
     -1.656657      6.265156      6.265156     12.530313
     -1.646647      8.162262      8.162262     16.324524
     -1.636637      9.861010      9.861010     19.722020
     -1.626627     11.033456     11.033456     22.066911
