# EIG2DOS: Utility for SIESTA to obtain the electronic density of states
#  E. Artacho, Apr 1999, A. Garcia, Apr 2012
#  Nick R. Papior, Feb 2017
# ------------------------------------------
# Eigenvalues calculated from a non-polarized calculation
# Eigenvalues read from siesta.EIG
# Kpoint weights read from siesta.KP
# Using smearing parameter:   0.0500
# Using 1000 points in the energy range
# Selected bands: 1 to: 2981
# Emin, Emax in file for selected band(s):    -27.1681199    218.3579300
# Nbands, Nspin, Nk   =   2981     1     1
# E_F                 =    -4.2450 eV --> (shifted to ZERO)
# Broadening          =     0.0500 eV
#
#        E            N(up)  (=)   N(down)         Ntot
     -5.000000     33.298975     33.298975     66.597950
     -4.989990     37.553095     37.553095     75.106191
     -4.979980     41.284642     41.284642     82.569284
     -4.969970     43.907595     43.907595     87.815191
     -4.959960     44.973029     44.973029     89.946057
     -4.949950     44.313723     44.313723     88.627446
     -4.939940     42.106698     42.106698     84.213395
     -4.929930     38.843234     38.843234     77.686469
     -4.919920     35.236084     35.236084     70.472168
     -4.909910     32.103513     32.103513     64.207026
     -4.899900     30.248401     30.248401     60.496802
     -4.889890     30.322859     30.322859     60.645717
     -4.879880     32.667589     32.667589     65.335178
     -4.869870     37.151718     37.151718     74.303437
     -4.859860     43.087176     43.087176     86.174352
     -4.849850     49.304316     49.304316     98.608632
     -4.839840     54.422131     54.422131    108.844263
     -4.829830     57.245470     57.245470    114.490939
     -4.819820     57.135230     57.135230    114.270460
     -4.809810     54.188838     54.188838    108.377677
     -4.799800     49.153034     49.153034     98.306069
     -4.789790     43.121209     43.121209     86.242417
     -4.779780     37.163718     37.163718     74.327437
     -4.769770     32.047506     32.047506     64.095012
     -4.759760     28.128376     28.128376     56.256752
     -4.749750     25.402285     25.402285     50.804571
     -4.739740     23.640157     23.640157     47.280314
     -4.729730     22.525532     22.525532     45.051064
     -4.719720     21.747575     21.747575     43.495150
     -4.709710     21.042109     21.042109     42.084219
     -4.699700     20.200667     20.200667     40.401335
     -4.689690     19.076971     19.076971     38.153943
     -4.679680     17.613025     17.613025     35.226049
     -4.669670     15.887136     15.887136     31.774271
     -4.659660     14.163186     14.163186     28.326372
     -4.649650     12.907463     12.907463     25.814926
     -4.639640     12.743754     12.743754     25.487508
     -4.629630     14.335331     14.335331     28.670662
     -4.619620     18.205279     18.205279     36.410559
     -4.609610     24.530645     24.530645     49.061290
     -4.599600     32.970876     32.970876     65.941752
     -4.589590     42.608787     42.608787     85.217574
     -4.579580     52.072079     52.072079    104.144159
     -4.569570     59.848044     59.848044    119.696088
     -4.559560     64.714266     64.714266    129.428531
     -4.549550     66.129159     66.129159    132.258317
     -4.539540     64.412707     64.412707    128.825414
     -4.529530     60.623052     60.623052    121.246104
     -4.519520     56.167708     56.167708    112.335415
     -4.509510     52.309372     52.309372    104.618744
     -4.499499     49.769860     49.769860     99.539720
     -4.489489     48.580293     48.580293     97.160586
     -4.479479     48.205205     48.205205     96.410410
     -4.469469     47.848757     47.848757     95.697513
     -4.459459     46.790979     46.790979     93.581959
     -4.449449     44.620778     44.620778     89.241556
     -4.439439     41.306796     41.306796     82.613593
     -4.429429     37.130384     37.130384     74.260768
     -4.419419     32.554391     32.554391     65.108781
     -4.409409     28.100128     28.100128     56.200256
     -4.399399     24.265558     24.265558     48.531115
     -4.389389     21.473484     21.473484     42.946967
     -4.379379     20.020680     20.020680     40.041359
     -4.369369     20.016733     20.016733     40.033466
     -4.359359     21.335780     21.335780     42.671560
     -4.349349     23.622962     23.622962     47.245924
     -4.339339     26.380778     26.380778     52.761555
     -4.329329     29.117526     29.117526     58.235052
     -4.319319     31.500662     31.500662     63.001324
     -4.309309     33.449194     33.449194     66.898387
     -4.299299     35.125548     35.125548     70.251095
     -4.289289     36.830155     36.830155     73.660310
     -4.279279     38.837914     38.837914     77.675828
     -4.269269     41.233651     41.233651     82.467302
     -4.259259     43.806268     43.806268     87.612535
     -4.249249     46.051564     46.051564     92.103128
     -4.239239     47.306202     47.306202     94.612405
     -4.229229     46.984992     46.984992     93.969984
     -4.219219     44.834740     44.834740     89.669480
     -4.209209     41.086751     41.086751     82.173502
     -4.199199     36.420488     36.420488     72.840975
     -4.189189     31.739736     31.739736     63.479472
     -4.179179     27.861114     27.861114     55.722228
     -4.169169     25.260697     25.260697     50.521394
     -4.159159     23.988942     23.988942     47.977883
     -4.149149     23.772174     23.772174     47.544348
     -4.139139     24.227564     24.227564     48.455128
     -4.129129     25.074640     25.074640     50.149279
     -4.119119     26.241726     26.241726     52.483452
     -4.109109     27.823000     27.823000     55.646000
     -4.099099     29.914263     29.914263     59.828525
     -4.089089     32.417398     32.417398     64.834796
     -4.079079     34.929275     34.929275     69.858550
     -4.069069     36.800041     36.800041     73.600083
     -4.059059     37.360669     37.360669     74.721339
     -4.049049     36.219803     36.219803     72.439607
     -4.039039     33.477285     33.477285     66.954569
     -4.029029     29.737330     29.737330     59.474660
     -4.019019     25.911850     25.911850     51.823700
     -4.009009     22.916288     22.916288     45.832576
     -3.998999     21.406241     21.406241     42.812482
     -3.988989     21.660221     21.660221     43.320443
     -3.978979     23.619611     23.619611     47.239222
     -3.968969     27.016609     27.016609     54.033218
     -3.958959     31.500850     31.500850     63.001700
     -3.948949     36.714031     36.714031     73.428061
     -3.938939     42.318582     42.318582     84.637165
     -3.928929     48.015222     48.015222     96.030443
     -3.918919     53.568956     53.568956    107.137912
     -3.908909     58.826577     58.826577    117.653153
     -3.898899     63.690569     63.690569    127.381138
     -3.888889     68.036347     68.036347    136.072694
     -3.878879     71.607327     71.607327    143.214654
     -3.868869     73.957620     73.957620    147.915239
     -3.858859     74.504024     74.504024    149.008048
     -3.848849     72.696686     72.696686    145.393372
     -3.838839     68.250350     68.250350    136.500701
     -3.828829     61.335316     61.335316    122.670632
     -3.818819     52.634647     52.634647    105.269295
     -3.808809     43.229054     43.229054     86.458108
     -3.798799     34.344212     34.344212     68.688425
     -3.788789     27.049956     27.049956     54.099911
     -3.778779     22.012724     22.012724     44.025448
     -3.768769     19.373224     19.373224     38.746448
     -3.758759     18.771424     18.771424     37.542849
     -3.748749     19.495495     19.495495     38.990990
     -3.738739     20.703983     20.703983     41.407967
     -3.728729     21.661960     21.661960     43.323921
     -3.718719     21.935594     21.935594     43.871187
     -3.708709     21.500293     21.500293     43.000586
     -3.698699     20.733942     20.733942     41.467884
     -3.688689     20.290085     20.290085     40.580170
     -3.678679     20.876516     20.876516     41.753033
     -3.668669     22.997824     22.997824     45.995649
     -3.658659     26.744400     26.744400     53.488801
     -3.648649     31.709018     31.709018     63.418036
     -3.638639     37.074331     37.074331     74.148661
     -3.628629     41.847739     41.847739     83.695478
     -3.618619     45.154153     45.154153     90.308306
     -3.608609     46.471060     46.471060     92.942120
     -3.598599     45.723147     45.723147     91.446295
     -3.588589     43.226102     43.226102     86.452204
     -3.578579     39.534407     39.534407     79.068814
     -3.568569     35.268568     35.268568     70.537135
     -3.558559     30.973915     30.973915     61.947830
     -3.548549     27.028338     27.028338     54.056677
     -3.538539     23.599726     23.599726     47.199452
     -3.528529     20.656332     20.656332     41.312664
     -3.518519     18.033095     18.033095     36.066190
     -3.508509     15.539354     15.539354     31.078709
     -3.498498     13.068675     13.068675     26.137351
     -3.488488     10.663627     10.663627     21.327253
     -3.478478      8.508882      8.508882     17.017765
     -3.468468      6.861576      6.861576     13.723153
     -3.458458      5.953713      5.953713     11.907425
     -3.448448      5.904479      5.904479     11.808958
     -3.438438      6.667665      6.667665     13.335329
     -3.428428      8.026330      8.026330     16.052660
     -3.418418      9.639518      9.639518     19.279035
     -3.408408     11.137234     11.137234     22.274468
     -3.398398     12.242704     12.242704     24.485408
     -3.388388     12.880473     12.880473     25.760946
     -3.378378     13.222548     13.222548     26.445097
     -3.368368     13.645044     13.645044     27.290087
     -3.358358     14.607482     14.607482     29.214964
     -3.348348     16.501220     16.501220     33.002441
     -3.338338     19.519834     19.519834     39.039669
     -3.328328     23.582660     23.582660     47.165319
     -3.318318     28.315637     28.315637     56.631274
     -3.308308     33.085067     33.085067     66.170134
     -3.298298     37.090351     37.090351     74.180702
     -3.288288     39.526395     39.526395     79.052791
     -3.278278     39.800705     39.800705     79.601411
     -3.268268     37.741523     37.741523     75.483046
     -3.258258     33.701911     33.701911     67.403821
     -3.248248     28.489118     28.489118     56.978237
     -3.238238     23.126353     23.126353     46.252707
     -3.228228     18.538129     18.538129     37.076257
     -3.218218     15.286928     15.286928     30.573855
     -3.208208     13.459292     13.459292     26.918583
     -3.198198     12.728364     12.728364     25.456728
     -3.188188     12.549328     12.549328     25.098656
     -3.178178     12.403398     12.403398     24.806797
     -3.168168     12.002346     12.002346     24.004691
     -3.158158     11.391294     11.391294     22.782587
     -3.148148     10.928814     10.928814     21.857628
     -3.138138     11.163558     11.163558     22.327116
     -3.128128     12.651787     12.651787     25.303574
     -3.118118     15.766061     15.766061     31.532123
     -3.108108     20.539839     20.539839     41.079677
     -3.098098     26.586669     26.586669     53.173338
     -3.088088     33.126635     33.126635     66.253270
     -3.078078     39.135333     39.135333     78.270666
     -3.068068     43.592244     43.592244     87.184489
     -3.058058     45.755475     45.755475     91.510950
     -3.048048     45.359534     45.359534     90.719067
     -3.038038     42.652885     42.652885     85.305769
     -3.028028     38.263671     38.263671     76.527342
     -3.018018     32.966613     32.966613     65.933226
     -3.008008     27.467322     27.467322     54.934643
     -2.997998     22.294003     22.294003     44.588006
     -2.987988     17.811956     17.811956     35.623912
     -2.977978     14.306128     14.306128     28.612257
     -2.967968     12.053304     12.053304     24.106607
     -2.957958     11.331048     11.331048     22.662096
     -2.947948     12.356825     12.356825     24.713649
     -2.937938     15.187450     15.187450     30.374901
     -2.927928     19.625023     19.625023     39.250045
     -2.917918     25.174720     25.174720     50.349439
     -2.907908     31.087354     31.087354     62.174707
     -2.897898     36.494698     36.494698     72.989395
     -2.887888     40.609626     40.609626     81.219252
     -2.877878     42.927772     42.927772     85.855543
     -2.867868     43.352828     43.352828     86.705656
     -2.857858     42.188751     42.188751     84.377502
     -2.847848     39.995554     39.995554     79.991108
     -2.837838     37.367237     37.367237     74.734475
     -2.827828     34.728150     34.728150     69.456299
     -2.817818     32.235329     32.235329     64.470657
     -2.807808     29.820929     29.820929     59.641858
     -2.797798     27.337824     27.337824     54.675648
     -2.787788     24.721024     24.721024     49.442048
     -2.777778     22.075385     22.075385     44.150770
     -2.767768     19.647045     19.647045     39.294090
     -2.757758     17.705152     17.705152     35.410305
     -2.747748     16.411740     16.411740     32.823479
     -2.737738     15.761157     15.761157     31.522315
     -2.727728     15.623932     15.623932     31.247864
     -2.717718     15.861399     15.861399     31.722799
     -2.707708     16.430116     16.430116     32.860232
     -2.697698     17.400839     17.400839     34.801677
     -2.687688     18.874697     18.874697     37.749395
     -2.677678     20.852421     20.852421     41.704841
     -2.667668     23.151041     23.151041     46.302081
     -2.657658     25.436608     25.436608     50.873216
     -2.647648     27.364927     27.364927     54.729853
     -2.637638     28.746566     28.746566     57.493132
     -2.627628     29.631687     29.631687     59.263375
     -2.617618     30.261349     30.261349     60.522698
     -2.607608     30.919131     30.919131     61.838262
     -2.597598     31.777020     31.777020     63.554040
     -2.587588     32.820776     32.820776     65.641551
     -2.577578     33.875236     33.875236     67.750471
     -2.567568     34.684529     34.684529     69.369058
     -2.557558     34.986061     34.986061     69.972123
     -2.547548     34.553453     34.553453     69.106906
     -2.537538     33.229617     33.229617     66.459234
     -2.527528     30.980549     30.980549     61.961097
     -2.517518     27.965945     27.965945     55.931891
     -2.507508     24.580349     24.580349     49.160698
     -2.497497     21.411178     21.411178     42.822356
     -2.487487     19.099297     19.099297     38.198595
     -2.477477     18.146245     18.146245     36.292490
     -2.467467     18.749658     18.749658     37.499316
     -2.457457     20.742156     20.742156     41.484313
     -2.447447     23.664344     23.664344     47.328688
     -2.437437     26.943155     26.943155     53.886310
     -2.427427     30.099367     30.099367     60.198733
     -2.417417     32.893165     32.893165     65.786330
     -2.407407     35.342335     35.342335     70.684670
     -2.397397     37.605395     37.605395     75.210791
     -2.387387     39.787423     39.787423     79.574847
     -2.377377     41.768552     41.768552     83.537103
     -2.367367     43.151223     43.151223     86.302447
     -2.357357     43.369378     43.369378     86.738756
     -2.347347     41.922367     41.922367     83.844734
     -2.337337     38.628202     38.628202     77.256404
     -2.327327     33.773789     33.773789     67.547579
     -2.317317     28.087750     28.087750     56.175499
     -2.307307     22.548595     22.548595     45.097190
     -2.297297     18.116246     18.116246     36.232492
     -2.287287     15.496440     15.496440     30.992879
     -2.277277     15.012262     15.012262     30.024524
     -2.267267     16.596825     16.596825     33.193649
     -2.257257     19.874300     19.874300     39.748599
     -2.247247     24.280527     24.280527     48.561054
     -2.237237     29.182115     29.182115     58.364230
     -2.227227     33.968923     33.968923     67.937847
     -2.217217     38.110147     38.110147     76.220293
     -2.207207     41.178353     41.178353     82.356706
     -2.197197     42.858551     42.858551     85.717103
     -2.187187     42.964580     42.964580     85.929160
     -2.177177     41.474898     41.474898     82.949796
     -2.167167     38.574543     38.574543     77.149086
     -2.157157     34.665181     34.665181     69.330363
     -2.147147     30.304054     30.304054     60.608108
     -2.137137     26.066383     26.066383     52.132765
     -2.127127     22.377775     22.377775     44.755550
     -2.117117     19.395883     19.395883     38.791766
     -2.107107     17.004454     17.004454     34.008908
     -2.097097     14.923139     14.923139     29.846279
     -2.087087     12.872075     12.872075     25.744151
     -2.077077     10.704701     10.704701     21.409401
     -2.067067      8.449946      8.449946     16.899891
     -2.057057      6.262517      6.262517     12.525034
     -2.047047      4.327484      4.327484      8.654968
     -2.037037      2.776490      2.776490      5.552979
     -2.027027      1.650321      1.650321      3.300642
     -2.017017      0.908986      0.908986      1.817971
     -2.007007      0.468263      0.468263      0.936525
     -1.996997      0.238792      0.238792      0.477584
     -1.986987      0.153895      0.153895      0.307790
     -1.976977      0.184349      0.184349      0.368698
     -1.966967      0.344787      0.344787      0.689573
     -1.956957      0.695904      0.695904      1.391807
     -1.946947      1.342193      1.342193      2.684386
     -1.936937      2.420733      2.420733      4.841466
     -1.926927      4.076183      4.076183      8.152365
     -1.916917      6.421852      6.421852     12.843704
     -1.906907      9.494214      9.494214     18.988428
     -1.896897     13.213788     13.213788     26.427576
     -1.886887     17.365162     17.365162     34.730324
     -1.876877     21.604131     21.604131     43.208261
     -1.866867     25.495361     25.495361     50.990722
     -1.856857     28.581568     28.581568     57.163137
     -1.846847     30.479720     30.479720     60.959440
     -1.836837     30.984694     30.984694     61.969388
     -1.826827     30.140982     30.140982     60.281963
     -1.816817     28.237918     28.237918     56.475837
     -1.806807     25.711163     25.711163     51.422326
     -1.796797     22.985245     22.985245     45.970489
     -1.786787     20.333683     20.333683     40.667365
     -1.776777     17.828604     17.828604     35.657208
     -1.766767     15.398432     15.398432     30.796863
     -1.756757     12.947082     12.947082     25.894164
     -1.746747     10.457783     10.457783     20.915565
     -1.736737      8.026998      8.026998     16.053996
     -1.726727      5.826585      5.826585     11.653170
     -1.716717      4.034737      4.034737      8.069473
     -1.706707      2.782917      2.782917      5.565834
     -1.696697      2.141220      2.141220      4.282439
     -1.686687      2.132163      2.132163      4.264325
     -1.676677      2.745380      2.745380      5.490760
     -1.666667      3.931008      3.931008      7.862017
     -1.656657      5.571040      5.571040     11.142080
     -1.646647      7.451026      7.451026     14.902052
     -1.636637      9.264423      9.264423     18.528847
     -1.626627     10.670379     10.670379     21.340758
