# EIG2DOS: Utility for SIESTA to obtain the electronic density of states
#  E. Artacho, Apr 1999, A. Garcia, Apr 2012
#  Nick R. Papior, Feb 2017
# ------------------------------------------
# Eigenvalues calculated from a non-polarized calculation
# Eigenvalues read from siesta.EIG
# Kpoint weights read from siesta.KP
# Using smearing parameter:   0.0500
# Using 1000 points in the energy range
# Selected bands: 1 to: 2981
# Emin, Emax in file for selected band(s):    -27.2978080    218.4047690
# Nbands, Nspin, Nk   =   2981     1     1
# E_F                 =    -4.1872 eV --> (shifted to ZERO)
# Broadening          =     0.0500 eV
#
#        E            N(up)  (=)   N(down)         Ntot
     -5.000000     31.539503     31.539503     63.079005
     -4.989990     36.898973     36.898973     73.797946
     -4.979980     41.988226     41.988226     83.976452
     -4.969970     45.899223     45.899223     91.798446
     -4.959960     47.871764     47.871764     95.743529
     -4.949950     47.549749     47.549749     95.099498
     -4.939940     45.104587     45.104587     90.209174
     -4.929930     41.191098     41.191098     82.382195
     -4.919920     36.777789     36.777789     73.555579
     -4.909910     32.928666     32.928666     65.857332
     -4.899900     30.595837     30.595837     61.191674
     -4.889890     30.442282     30.442282     60.884565
     -4.879880     32.695962     32.695962     65.391924
     -4.869870     37.055460     37.055460     74.110921
     -4.859860     42.696574     42.696574     85.393148
     -4.849850     48.425761     48.425761     96.851522
     -4.839840     52.973044     52.973044    105.946088
     -4.829830     55.341218     55.341218    110.682437
     -4.819820     55.082205     55.082205    110.164409
     -4.809810     52.391429     52.391429    104.782857
     -4.799800     47.990387     47.990387     95.980774
     -4.789790     42.860881     42.860881     85.721762
     -4.779780     37.949461     37.949461     75.898923
     -4.769770     33.951311     33.951311     67.902622
     -4.759760     31.223211     31.223211     62.446421
     -4.749750     29.806618     29.806618     59.613236
     -4.739740     29.503560     29.503560     59.007120
     -4.729730     29.953554     29.953554     59.907107
     -4.719720     30.693492     30.693492     61.386983
     -4.709710     31.215209     31.215209     62.430418
     -4.699700     31.044966     31.044966     62.089933
     -4.689690     29.851569     29.851569     59.703138
     -4.679680     27.559636     27.559636     55.119272
     -4.669670     24.423784     24.423784     48.847567
     -4.659660     21.023641     21.023641     42.047282
     -4.649650     18.166456     18.166456     36.332911
     -4.639640     16.715752     16.715752     33.431505
     -4.629630     17.383717     17.383717     34.767434
     -4.619620     20.529788     20.529788     41.059575
     -4.609610     26.010140     26.010140     52.020279
     -4.599600     33.128895     33.128895     66.257789
     -4.589590     40.738932     40.738932     81.477864
     -4.579580     47.505806     47.505806     95.011612
     -4.569570     52.279352     52.279352    104.558704
     -4.559560     54.446951     54.446951    108.893901
     -4.549550     54.121161     54.121161    108.242321
     -4.539540     52.070374     52.070374    104.140748
     -4.529530     49.412147     49.412147     98.824293
     -4.519520     47.195038     47.195038     94.390076
     -4.509510     46.039617     46.039617     92.079234
     -4.499499     45.974045     45.974045     91.948090
     -4.489489     46.508273     46.508273     93.016546
     -4.479479     46.890342     46.890342     93.780684
     -4.469469     46.422530     46.422530     92.845059
     -4.459459     44.707670     44.707670     89.415339
     -4.449449     41.743594     41.743594     83.487189
     -4.439439     37.860158     37.860158     75.720317
     -4.429429     33.561460     33.561460     67.122920
     -4.419419     29.363880     29.363880     58.727760
     -4.409409     25.697786     25.697786     51.395573
     -4.399399     22.884966     22.884966     45.769932
     -4.389389     21.152710     21.152710     42.305421
     -4.379379     20.632976     20.632976     41.265952
     -4.369369     21.326782     21.326782     42.653564
     -4.359359     23.062009     23.062009     46.124019
     -4.349349     25.496695     25.496695     50.993391
     -4.339339     28.199156     28.199156     56.398313
     -4.329329     30.785766     30.785766     61.571532
     -4.319319     33.053966     33.053966     66.107931
     -4.309309     35.041699     35.041699     70.083398
     -4.299299     36.977062     36.977062     73.954125
     -4.289289     39.132306     39.132306     78.264612
     -4.279279     41.639081     41.639081     83.278161
     -4.269269     44.342345     44.342345     88.684689
     -4.259259     46.764067     46.764067     93.528134
     -4.249249     48.213883     48.213883     96.427767
     -4.239239     48.025866     48.025866     96.051733
     -4.229229     45.836552     45.836552     91.673104
     -4.219219     41.782658     41.782658     83.565316
     -4.209209     36.517836     36.517836     73.035671
     -4.199199     31.026382     31.026382     62.052764
     -4.189189     26.309007     26.309007     52.618015
     -4.179179     23.076333     23.076333     46.152667
     -4.169169     21.576396     21.576396     43.152791
     -4.159159     21.612764     21.612764     43.225527
     -4.149149     22.721551     22.721551     45.443103
     -4.139139     24.411932     24.411932     48.823865
     -4.129129     26.358396     26.358396     52.716793
     -4.119119     28.462981     28.462981     56.925962
     -4.109109     30.767621     30.767621     61.535243
     -4.099099     33.269164     33.269164     66.538328
     -4.089089     35.744441     35.744441     71.488881
     -4.079079     37.699385     37.699385     75.398770
     -4.069069     38.498795     38.498795     76.997590
     -4.059059     37.632509     37.632509     75.265019
     -4.049049     34.986323     34.986323     69.972646
     -4.039039     30.971014     30.971014     61.942028
     -4.029029     26.435798     26.435798     52.871596
     -4.019019     22.408111     22.408111     44.816221
     -4.009009     19.786263     19.786263     39.572525
     -3.998999     19.117392     19.117392     38.234784
     -3.988989     20.528965     20.528965     41.057931
     -3.978979     23.798154     23.798154     47.596308
     -3.968969     28.490728     28.490728     56.981456
     -3.958959     34.099426     34.099426     68.198853
     -3.948949     40.145032     40.145032     80.290063
     -3.938939     46.238361     46.238361     92.476722
     -3.928929     52.113134     52.113134    104.226268
     -3.918919     57.628246     57.628246    115.256492
     -3.908909     62.725520     62.725520    125.451039
     -3.898899     67.338525     67.338525    134.677050
     -3.888889     71.280733     71.280733    142.561465
     -3.878879     74.172498     74.172498    148.344996
     -3.868869     75.466098     75.466098    150.932196
     -3.858859     74.586987     74.586987    149.173975
     -3.848849     71.148475     71.148475    142.296950
     -3.838839     65.152349     65.152349    130.304698
     -3.828829     57.085882     57.085882    114.171763
     -3.818819     47.866755     47.866755     95.733510
     -3.808809     38.649013     38.649013     77.298026
     -3.798799     30.555024     30.555024     61.110048
     -3.788789     24.419785     24.419785     48.839570
     -3.778779     20.621572     20.621572     41.243144
     -3.768769     19.038595     19.038595     38.077189
     -3.758759     19.131906     19.131906     38.263811
     -3.748749     20.123309     20.123309     40.246619
     -3.738739     21.218854     21.218854     42.437708
     -3.728729     21.823106     21.823106     43.646211
     -3.718719     21.694004     21.694004     43.388007
     -3.708709     21.000319     21.000319     42.000637
     -3.698699     20.262701     20.262701     40.525403
     -3.688689     20.185028     20.185028     40.370056
     -3.678679     21.413839     21.413839     42.827679
     -3.668669     24.293666     24.293666     48.587332
     -3.658659     28.701691     28.701691     57.403381
     -3.648649     34.031226     34.031226     68.062452
     -3.638639     39.344031     39.344031     78.688062
     -3.628629     43.641963     43.641963     87.283925
     -3.618619     46.153748     46.153748     92.307496
     -3.608609     46.527080     46.527080     93.054161
     -3.598599     44.866138     44.866138     89.732276
     -3.588589     41.629229     41.629229     83.258458
     -3.578579     37.453992     37.453992     74.907984
     -3.568569     32.982587     32.982587     65.965173
     -3.558559     28.729320     28.729320     57.458640
     -3.548549     25.002219     25.002219     50.004438
     -3.538539     21.879626     21.879626     43.759251
     -3.528529     19.245118     19.245118     38.490236
     -3.518519     16.877836     16.877836     33.755671
     -3.508509     14.573472     14.573472     29.146945
     -3.498498     12.250300     12.250300     24.500599
     -3.488488      9.996545      9.996545     19.993090
     -3.478478      8.043827      8.043827     16.087653
     -3.468468      6.686737      6.686737     13.373475
     -3.458458      6.187262      6.187262     12.374525
     -3.448448      6.697199      6.697199     13.394398
     -3.438438      8.214241      8.214241     16.428481
     -3.428428     10.574275     10.574275     21.148551
     -3.418418     13.478906     13.478906     26.957811
     -3.408408     16.556162     16.556162     33.112324
     -3.398398     19.445919     19.445919     38.891839
     -3.388388     21.890577     21.890577     43.781154
     -3.378378     23.804362     23.804362     47.608724
     -3.368368     25.297504     25.297504     50.595009
     -3.358358     26.643206     26.643206     53.286412
     -3.348348     28.189665     28.189665     56.379330
     -3.338338     30.232614     30.232614     60.465228
     -3.328328     32.876901     32.876901     65.753803
     -3.318318     35.929572     35.929572     71.859144
     -3.308308     38.875269     38.875269     77.750539
     -3.298298     40.973248     40.973248     81.946496
     -3.288288     41.473295     41.473295     82.946589
     -3.278278     39.885945     39.885945     79.771891
     -3.268268     36.196025     36.196025     72.392049
     -3.258258     30.916306     30.916306     61.832612
     -3.248248     24.947281     24.947281     49.894563
     -3.238238     19.301458     19.301458     38.602917
     -3.228228     14.809087     14.809087     29.618173
     -3.218218     11.915246     11.915246     23.830492
     -3.208208     10.621962     10.621962     21.243923
     -3.198198     10.566563     10.566563     21.133125
     -3.188188     11.190502     11.190502     22.381003
     -3.178178     11.942713     11.942713     23.885425
     -3.168168     12.463056     12.463056     24.926112
     -3.158158     12.695846     12.695846     25.391693
     -3.148148     12.896291     12.896291     25.792582
     -3.138138     13.521179     13.521179     27.042359
     -3.128128     15.034982     15.034982     30.069963
     -3.118118     17.697551     17.697551     35.395102
     -3.108108     21.412971     21.412971     42.825941
     -3.098098     25.702665     25.702665     51.405329
     -3.088088     29.822748     29.822748     59.645496
     -3.078078     32.988721     32.988721     65.977442
     -3.068068     34.621827     34.621827     69.243653
     -3.058058     34.515857     34.515857     69.031715
     -3.048048     32.855971     32.855971     65.711941
     -3.038038     30.091995     30.091995     60.183990
     -3.028028     26.740723     26.740723     53.481446
     -3.018018     23.221673     23.221673     46.443345
     -3.008008     19.800014     19.800014     39.600027
     -2.997998     16.640299     16.640299     33.280598
     -2.987988     13.911849     13.911849     27.823699
     -2.977978     11.868112     11.868112     23.736225
     -2.967968     10.850409     10.850409     21.700818
     -2.957958     11.213722     11.213722     22.427445
     -2.947948     13.207739     13.207739     26.415477
     -2.937938     16.858502     16.858502     33.717003
     -2.927928     21.891899     21.891899     43.783799
     -2.917918     27.730074     27.730074     55.460149
     -2.907908     33.577010     33.577010     67.154020
     -2.897898     38.585273     38.585273     77.170546
     -2.887888     42.063268     42.063268     84.126537
     -2.877878     43.654713     43.654713     87.309427
     -2.867868     43.418609     43.418609     86.837217
     -2.857858     41.769908     41.769908     83.539815
     -2.847848     39.299575     39.299575     78.599151
     -2.837838     36.550143     36.550143     73.100286
     -2.827828     33.846500     33.846500     67.693001
     -2.817818     31.254418     31.254418     62.508835
     -2.807808     28.672785     28.672785     57.345571
     -2.797798     25.996040     25.996040     51.992080
     -2.787788     23.250234     23.250234     46.500467
     -2.777778     20.628376     20.628376     41.256752
     -2.767768     18.413942     18.413942     36.827885
     -2.757758     16.847881     16.847881     33.695763
     -2.747748     16.024698     16.024698     32.049397
     -2.737738     15.879692     15.879692     31.759384
     -2.727728     16.267146     16.267146     32.534292
     -2.717718     17.068034     17.068034     34.136069
     -2.707708     18.246672     18.246672     36.493344
     -2.697698     19.813989     19.813989     39.627978
     -2.687688     21.726511     21.726511     43.453022
     -2.677678     23.804210     23.804210     47.608421
     -2.667668     25.744732     25.744732     51.489463
     -2.657658     27.245225     27.245225     54.490451
     -2.647648     28.161686     28.161686     56.323372
     -2.637638     28.600001     28.600001     57.200002
     -2.627628     28.872136     28.872136     57.744271
     -2.617618     29.338228     29.338228     58.676456
     -2.607608     30.227302     30.227302     60.454604
     -2.597598     31.534916     31.534916     63.069831
     -2.587588     33.036884     33.036884     66.073769
     -2.577578     34.384184     34.384184     68.768369
     -2.567568     35.210800     35.210800     70.421599
     -2.557558     35.209493     35.209493     70.418987
     -2.547548     34.178130     34.178130     68.356259
     -2.537538     32.064044     32.064044     64.128088
     -2.527528     29.016612     29.016612     58.033225
     -2.517518     25.420945     25.420945     50.841889
     -2.507508     21.868098     21.868098     43.736196
     -2.497497     19.039225     19.039225     38.078450
     -2.487487     17.528026     17.528026     35.056051
     -2.477477     17.665070     17.665070     35.330139
     -2.467467     19.415191     19.415191     38.830382
     -2.457457     22.393218     22.393218     44.786437
     -2.447447     25.997548     25.997548     51.995097
     -2.437437     29.613776     29.613776     59.227551
     -2.427427     32.809016     32.809016     65.618032
     -2.417417     35.435650     35.435650     70.871301
     -2.407407     37.596967     37.596967     75.193934
     -2.397397     39.487851     39.487851     78.975702
     -2.387387     41.186671     41.186671     82.373342
     -2.377377     42.507841     42.507841     85.015682
     -2.367367     43.004594     43.004594     86.009188
     -2.357357     42.139546     42.139546     84.279091
     -2.347347     39.549607     39.549607     79.099214
     -2.337337     35.273900     35.273900     70.547801
     -2.327327     29.827352     29.827352     59.654704
     -2.317317     24.083550     24.083550     48.167100
     -2.307307     19.027801     19.027801     38.055601
     -2.297297     15.495178     15.495178     30.990356
     -2.287287     13.993163     13.993163     27.986326
     -2.277277     14.647257     14.647257     29.294514
     -2.267267     17.247252     17.247252     34.494505
     -2.257257     21.343845     21.343845     42.687689
     -2.247247     26.351235     26.351235     52.702470
     -2.237237     31.632545     31.632545     63.265089
     -2.227227     36.563648     36.563648     73.127297
     -2.217217     40.581268     40.581268     81.162537
     -2.207207     43.224978     43.224978     86.449956
     -2.197197     44.182185     44.182185     88.364370
     -2.187187     43.338578     43.338578     86.677155
     -2.177177     40.822446     40.822446     81.644891
     -2.167167     37.015186     37.015186     74.030372
     -2.157157     32.496424     32.496424     64.992848
     -2.147147     27.913457     27.913457     55.826914
     -2.137137     23.807293     23.807293     47.614586
     -2.127127     20.465500     20.465500     40.930999
     -2.117117     17.873835     17.873835     35.747670
     -2.107107     15.794169     15.794169     31.588338
     -2.097097     13.929893     13.929893     27.859785
     -2.087087     12.094555     12.094555     24.189110
     -2.077077     10.303270     10.303270     20.606541
     -2.067067      8.753109      8.753109     17.506219
     -2.057057      7.715370      7.715370     15.430740
     -2.047047      7.397126      7.397126     14.794252
     -2.037037      7.831426      7.831426     15.662851
     -2.027027      8.835494      8.835494     17.670987
     -2.017017     10.049470     10.049470     20.098940
     -2.007007     11.042357     11.042357     22.084715
     -1.996997     11.449357     11.449357     22.898714
     -1.986987     11.091203     11.091203     22.182406
     -1.976977     10.030757     10.030757     20.061515
     -1.966967      8.547939      8.547939     17.095878
     -1.956957      7.049335      7.049335     14.098670
     -1.946947      5.953059      5.953059     11.906119
     -1.936937      5.589353      5.589353     11.178706
     -1.926927      6.138236      6.138236     12.276471
     -1.916917      7.604792      7.604792     15.209585
     -1.906907      9.824292      9.824292     19.648584
     -1.896897     12.492524     12.492524     24.985047
     -1.886887     15.220591     15.220591     30.441182
     -1.876877     17.609787     17.609787     35.219573
     -1.866867     19.333376     19.333376     38.666753
     -1.856857     20.206017     20.206017     40.412035
     -1.846847     20.222285     20.222285     40.444570
     -1.836837     19.551226     19.551226     39.102453
     -1.826827     18.481913     18.481913     36.963827
     -1.816817     17.327818     17.327818     34.655636
     -1.806807     16.316817     16.316817     32.633634
     -1.796797     15.510162     15.510162     31.020324
     -1.786787     14.791617     14.791617     29.583234
     -1.776777     13.938581     13.938581     27.877162
     -1.766767     12.743202     12.743202     25.486404
     -1.756757     11.122162     11.122162     22.244324
     -1.746747      9.161097      9.161097     18.322194
     -1.736737      7.079460      7.079460     14.158920
     -1.726727      5.146246      5.146246     10.292492
     -1.716717      3.597194      3.597194      7.194388
     -1.706707      2.590707      2.590707      5.181414
     -1.696697      2.207325      2.207325      4.414650
     -1.686687      2.469808      2.469808      4.939616
     -1.676677      3.354013      3.354013      6.708025
     -1.666667      4.775595      4.775595      9.551189
     -1.656657      6.562698      6.562698     13.125397
     -1.646647      8.443934      8.443934     16.887868
     -1.636637     10.080995     10.080995     20.161991
     -1.626627     11.153577     11.153577     22.307153
