# EIG2DOS: Utility for SIESTA to obtain the electronic density of states
#  E. Artacho, Apr 1999, A. Garcia, Apr 2012
#  Nick R. Papior, Feb 2017
# ------------------------------------------
# Eigenvalues calculated from a non-polarized calculation
# Eigenvalues read from siesta.EIG
# Kpoint weights read from siesta.KP
# Using smearing parameter:   0.0500
# Using 1000 points in the energy range
# Selected bands: 1 to: 2981
# Emin, Emax in file for selected band(s):    -27.2741961    218.3915190
# Nbands, Nspin, Nk   =   2981     1     1
# E_F                 =    -4.2091 eV --> (shifted to ZERO)
# Broadening          =     0.0500 eV
#
#        E            N(up)  (=)   N(down)         Ntot
     -5.000000     32.545386     32.545386     65.090772
     -4.989990     37.176512     37.176512     74.353024
     -4.979980     41.403899     41.403899     82.807797
     -4.969970     44.527432     44.527432     89.054864
     -4.959960     45.976193     45.976193     91.952387
     -4.949950     45.497302     45.497302     90.994603
     -4.939940     43.247120     43.247120     86.494239
     -4.929930     39.761916     39.761916     79.523833
     -4.919920     35.839751     35.839751     71.679502
     -4.909910     32.387423     32.387423     64.774846
     -4.899900     30.267992     30.267992     60.535983
     -4.889890     30.151289     30.151289     60.302577
     -4.879880     32.359738     32.359738     64.719477
     -4.869870     36.730017     36.730017     73.460033
     -4.859860     42.553442     42.553442     85.106884
     -4.849850     48.668453     48.668453     97.336905
     -4.839840     53.729009     53.729009    107.458019
     -4.829830     56.581867     56.581867    113.163735
     -4.819820     56.610483     56.610483    113.220966
     -4.809810     53.899286     53.899286    107.798572
     -4.799800     49.150619     49.150619     98.301239
     -4.789790     43.404028     43.404028     86.808057
     -4.779780     37.693796     37.693796     75.387593
     -4.769770     32.788160     32.788160     65.576319
     -4.759760     29.088007     29.088007     58.176014
     -4.749750     26.673015     26.673015     53.346030
     -4.739740     25.422093     25.422093     50.844185
     -4.729730     25.125977     25.125977     50.251953
     -4.719720     25.542107     25.542107     51.084214
     -4.709710     26.389863     26.389863     52.779726
     -4.699700     27.324768     27.324768     54.649537
     -4.689690     27.946772     27.946772     55.893544
     -4.679680     27.880379     27.880379     55.760758
     -4.669670     26.917583     26.917583     53.835166
     -4.659660     25.162793     25.162793     50.325585
     -4.649650     23.096447     23.096447     46.192894
     -4.639640     21.499378     21.499378     42.998755
     -4.629630     21.240475     21.240475     42.480949
     -4.619620     22.991987     22.991987     45.983973
     -4.609610     26.970743     26.970743     53.941485
     -4.599600     32.800703     32.800703     65.601406
     -4.589590     39.558214     39.558214     79.116428
     -4.579580     46.005171     46.005171     92.010341
     -4.569570     50.948401     50.948401    101.896802
     -4.559560     53.607029     53.607029    107.214058
     -4.549550     53.851700     53.851700    107.703399
     -4.539540     52.218833     52.218833    104.437665
     -4.529530     49.689766     49.689766     99.379532
     -4.519520     47.320924     47.320924     94.641847
     -4.509510     45.871346     45.871346     91.742693
     -4.499499     45.570012     45.570012     91.140025
     -4.489489     46.100705     46.100705     92.201409
     -4.479479     46.788218     46.788218     93.576436
     -4.469469     46.889940     46.889940     93.779880
     -4.459459     45.866149     45.866149     91.732299
     -4.449449     43.530584     43.530584     87.061168
     -4.439439     40.050720     40.050720     80.101440
     -4.429429     35.837603     35.837603     71.675206
     -4.419419     31.402444     31.402444     62.804889
     -4.409409     27.246682     27.246682     54.493365
     -4.399399     23.807253     23.807253     47.614506
     -4.389389     21.433154     21.433154     42.866309
     -4.379379     20.355025     20.355025     40.710050
     -4.369369     20.633937     20.633937     41.267873
     -4.359359     22.115994     22.115994     44.231989
     -4.349349     24.439857     24.439857     48.879715
     -4.339339     27.125000     27.125000     54.249999
     -4.329329     29.721206     29.721206     59.442413
     -4.319319     31.957939     31.957939     63.915878
     -4.309309     33.824338     33.824338     67.648675
     -4.299299     35.540198     35.540198     71.080397
     -4.289289     37.425431     37.425431     74.850863
     -4.279279     39.716033     39.716033     79.432066
     -4.269269     42.395894     42.395894     84.791789
     -4.259259     45.114483     45.114483     90.228966
     -4.249249     47.239970     47.239970     94.479939
     -4.239239     48.052649     48.052649     96.105298
     -4.229229     47.020611     47.020611     94.041223
     -4.219219     44.045421     44.045421     88.090841
     -4.209209     39.558343     39.558343     79.116685
     -4.199199     34.406834     34.406834     68.813668
     -4.189189     29.572579     29.572579     59.145157
     -4.179179     25.848011     25.848011     51.696022
     -4.169169     23.615651     23.615651     47.231302
     -4.159159     22.815366     22.815366     45.630732
     -4.149149     23.088117     23.088117     46.176235
     -4.139139     24.006143     24.006143     48.012287
     -4.129129     25.273707     25.273707     50.547413
     -4.119119     26.810123     26.810123     53.620245
     -4.109109     28.686842     28.686842     57.373683
     -4.099099     30.958243     30.958243     61.916487
     -4.089089     33.479181     33.479181     66.958361
     -4.079079     35.818602     35.818602     71.637203
     -4.069069     37.340713     37.340713     74.681426
     -4.059059     37.439558     37.439558     74.879117
     -4.049049     35.820959     35.820959     71.641917
     -4.039039     32.685631     32.685631     65.371263
     -4.029029     28.711967     28.711967     57.423934
     -4.019019     24.843367     24.843367     49.686733
     -4.009009     21.986632     21.986632     43.973264
     -3.998999     20.762272     20.762272     41.524545
     -3.988989     21.400638     21.400638     42.801276
     -3.978979     23.788763     23.788763     47.577527
     -3.968969     27.601307     27.601307     55.202614
     -3.958959     32.433070     32.433070     64.866140
     -3.948949     37.885588     37.885588     75.771177
     -3.938939     43.609016     43.609016     87.218032
     -3.928929     49.324292     49.324292     98.648584
     -3.918919     54.838119     54.838119    109.676239
     -3.908909     60.036342     60.036342    120.072684
     -3.898899     64.833180     64.833180    129.666359
     -3.888889     69.078650     69.078650    138.157301
     -3.878879     72.466781     72.466781    144.933563
     -3.868869     74.508849     74.508849    149.017697
     -3.858859     74.616718     74.616718    149.233437
     -3.848849     72.287993     72.287993    144.575985
     -3.838839     67.326871     67.326871    134.653743
     -3.828829     60.005413     60.005413    120.010825
     -3.818819     51.086346     51.086346    102.172692
     -3.808809     41.683526     41.683526     83.367051
     -3.798799     33.002541     33.002541     66.005083
     -3.788789     26.050085     26.050085     52.100170
     -3.778779     21.406974     21.406974     42.813947
     -3.768769     19.128899     19.128899     38.257797
     -3.758759     18.790850     18.790850     37.581701
     -3.748749     19.648376     19.648376     39.296752
     -3.738739     20.863824     20.863824     41.727649
     -3.728729     21.738577     21.738577     43.477155
     -3.718719     21.896890     21.896890     43.793780
     -3.708709     21.378408     21.378408     42.756815
     -3.698699     20.613715     20.613715     41.227429
     -3.688689     20.281611     20.281611     40.563222
     -3.678679     21.078060     21.078060     42.156120
     -3.668669     23.459479     23.459479     46.918957
     -3.658659     27.444673     27.444673     54.889345
     -3.648649     32.553866     32.553866     65.107732
     -3.638639     37.920538     37.920538     75.841076
     -3.628629     42.542508     42.542508     85.085016
     -3.618619     45.575705     45.575705     91.151410
     -3.608609     46.555396     46.555396     93.110793
     -3.598599     45.470002     45.470002     90.940004
     -3.588589     42.687260     42.687260     85.374519
     -3.578579     38.793538     38.793538     77.587075
     -3.568569     34.420979     34.420979     68.841958
     -3.558559     30.110058     30.110058     60.220117
     -3.548549     26.221398     26.221398     52.442796
     -3.538539     22.897407     22.897407     45.794815
     -3.528529     20.078227     20.078227     40.156454
     -3.518519     17.574790     17.574790     35.149579
     -3.508509     15.181985     15.181985     30.363970
     -3.498498     12.789946     12.789946     25.579891
     -3.488488     10.445844     10.445844     20.891689
     -3.478478      8.341778      8.341778     16.683557
     -3.468468      6.740856      6.740856     13.481711
     -3.458458      5.878370      5.878370     11.756740
     -3.448448      5.876205      5.876205     11.752409
     -3.438438      6.694947      6.694947     13.389894
     -3.428428      8.135136      8.135136     16.270272
     -3.418418      9.891633      9.891633     19.783267
     -3.408408     11.655226     11.655226     23.310451
     -3.398398     13.235719     13.235719     26.471437
     -3.388388     14.658248     14.658248     29.316496
     -3.378378     16.179621     16.179621     32.359243
     -3.368368     18.199297     18.199297     36.398593
     -3.358358     21.091531     21.091531     42.183062
     -3.348348     25.029853     25.029853     50.059706
     -3.338338     29.880347     29.880347     59.760695
     -3.328328     35.201183     35.201183     70.402366
     -3.318318     40.331140     40.331140     80.662280
     -3.308308     44.519630     44.519630     89.039261
     -3.298298     47.060961     47.060961     94.121922
     -3.288288     47.423967     47.423967     94.847933
     -3.278278     45.377015     45.377015     90.754030
     -3.268268     41.085396     41.085396     82.170791
     -3.258258     35.131164     35.131164     70.262327
     -3.248248     28.413958     28.413958     56.827917
     -3.238238     21.942555     21.942555     43.885109
     -3.228228     16.585702     16.585702     33.171405
     -3.218218     12.872881     12.872881     25.745762
     -3.208208     10.908425     10.908425     21.816850
     -3.198198     10.411461     10.411461     20.822922
     -3.188188     10.853213     10.853213     21.706425
     -3.178178     11.645481     11.645481     23.290963
     -3.168168     12.330531     12.330531     24.661061
     -3.158158     12.722573     12.722573     25.445145
     -3.148148     12.956887     12.956887     25.913773
     -3.138138     13.423613     13.423613     26.847225
     -3.128128     14.600553     14.600553     29.201106
     -3.118118     16.839539     16.839539     33.679077
     -3.108108     20.184763     20.184763     40.369526
     -3.098098     24.296079     24.296079     48.592157
     -3.088088     28.514834     28.514834     57.029667
     -3.078078     32.055290     32.055290     64.110580
     -3.068068     34.250793     34.250793     68.501586
     -3.058058     34.755325     34.755325     69.510650
     -3.048048     33.617130     33.617130     67.234261
     -3.038038     31.200694     31.200694     62.401388
     -3.028028     28.008212     28.008212     56.016423
     -3.018018     24.498638     24.498638     48.997276
     -3.008008     20.992293     20.992293     41.984586
     -2.997998     17.689392     17.689392     35.378785
     -2.987988     14.762153     14.762153     29.524306
     -2.977978     12.445343     12.445343     24.890685
     -2.967968     11.064144     11.064144     22.128288
     -2.957958     10.981634     10.981634     21.963268
     -2.947948     12.489167     12.489167     24.978334
     -2.937938     15.682960     15.682960     31.365920
     -2.927928     20.371202     20.371202     40.742404
     -2.917918     26.047955     26.047955     52.095910
     -2.907908     31.956401     31.956401     63.912802
     -2.897898     37.240493     37.240493     74.480985
     -2.887888     41.150696     41.150696     82.301392
     -2.877878     43.238189     43.238189     86.476378
     -2.867868     43.462566     43.462566     86.925133
     -2.857858     42.163967     42.163967     84.327934
     -2.847848     39.905815     39.905815     79.811630
     -2.837838     37.253716     37.253716     74.507432
     -2.827828     34.587499     34.587499     69.174998
     -2.817818     32.027172     32.027172     64.054344
     -2.807808     29.495406     29.495406     58.990811
     -2.797798     26.869213     26.869213     53.738426
     -2.787788     24.130144     24.130144     48.260289
     -2.777778     21.429614     21.429614     42.859229
     -2.767768     19.039337     19.039337     38.078673
     -2.757758     17.225104     17.225104     34.450209
     -2.747748     16.125507     16.125507     32.251014
     -2.737738     15.710119     15.710119     31.420237
     -2.727728     15.838358     15.838358     31.676717
     -2.717718     16.373467     16.373467     32.746935
     -2.707708     17.268962     17.268962     34.537924
     -2.697698     18.563997     18.563997     37.127993
     -2.687688     20.289393     20.289393     40.578787
     -2.677678     22.354292     22.354292     44.708583
     -2.667668     24.504932     24.504932     49.009865
     -2.657658     26.402206     26.402206     52.804411
     -2.647648     27.781132     27.781132     55.562265
     -2.637638     28.592482     28.592482     57.184964
     -2.627628     29.031869     29.031869     58.063738
     -2.617618     29.433639     29.433639     58.867277
     -2.607608     30.094108     30.094108     60.188215
     -2.597598     31.128219     31.128219     62.256439
     -2.587588     32.430222     32.430222     64.860444
     -2.577578     33.734065     33.734065     67.468131
     -2.567568     34.713178     34.713178     69.426356
     -2.557558     35.060450     35.060450     70.120900
     -2.547548     34.534404     34.534404     69.068808
     -2.537538     32.998076     32.998076     65.996152
     -2.527528     30.475362     30.475362     60.950723
     -2.517518     27.211142     27.211142     54.422283
     -2.507508     23.686775     23.686775     47.373550
     -2.497497     20.547286     20.547286     41.094572
     -2.487487     18.441297     18.441297     36.882593
     -2.477477     17.827773     17.827773     35.655545
     -2.467467     18.829722     18.829722     37.659445
     -2.457457     21.199954     21.199954     42.399908
     -2.447447     24.417664     24.417664     48.835329
     -2.437437     27.879180     27.879180     55.758361
     -2.427427     31.104606     31.104606     62.209211
     -2.417417     33.872175     33.872175     67.744350
     -2.407407     36.221035     36.221035     72.442069
     -2.397397     38.322024     38.322024     76.644048
     -2.387387     40.280039     40.280039     80.560079
     -2.377377     41.969851     41.969851     83.939701
     -2.367367     42.997901     42.997901     85.995801
     -2.357357     42.825086     42.825086     85.650172
     -2.347347     41.004150     41.004150     82.008300
     -2.337337     37.421606     37.421606     74.843212
     -2.327327     32.425518     32.425518     64.851036
     -2.317317     26.775658     26.775658     53.551317
     -2.307307     21.440538     21.440538     42.881077
     -2.297297     17.334388     17.334388     34.668776
     -2.287287     15.099445     15.099445     30.198890
     -2.277277     14.997893     14.997893     29.995785
     -2.267267     16.918395     16.918395     33.836789
     -2.257257     20.460617     20.460617     40.921235
     -2.247247     25.050636     25.050636     50.101273
     -2.237237     30.051126     30.051126     60.102252
     -2.227227     34.846854     34.846854     69.693709
     -2.217217     38.899846     38.899846     77.799691
     -2.207207     41.779523     41.779523     83.559046
     -2.197197     43.181799     43.181799     86.363599
     -2.187187     42.953220     42.953220     85.906441
     -2.177177     41.125912     41.125912     82.251824
     -2.167167     37.947366     37.947366     75.894733
     -2.157157     33.870329     33.870329     67.740658
     -2.147147     29.472372     29.472372     58.944743
     -2.137137     25.309832     25.309832     50.619664
     -2.127127     21.758307     21.758307     43.516614
     -2.117117     18.916059     18.916059     37.832118
     -2.107107     16.622990     16.622990     33.245980
     -2.097097     14.586566     14.586566     29.173132
     -2.087087     12.547592     12.547592     25.095183
     -2.077077     10.402586     10.402586     20.805173
     -2.067067      8.233627      8.233627     16.467255
     -2.057057      6.253181      6.253181     12.506362
     -2.047047      4.711302      4.711302      9.422603
     -2.037037      3.814476      3.814476      7.628952
     -2.027027      3.678423      3.678423      7.356847
     -2.017017      4.308189      4.308189      8.616377
     -2.007007      5.589820      5.589820     11.179641
     -1.996997      7.290519      7.290519     14.581038
     -1.986987      9.081815      9.081815     18.163630
     -1.976977     10.602887     10.602887     21.205775
     -1.966967     11.561326     11.561326     23.122653
     -1.956957     11.838507     11.838507     23.677013
     -1.946947     11.549459     11.549459     23.098918
     -1.936937     11.019032     11.019032     22.038064
     -1.926927     10.673608     10.673608     21.347216
     -1.916917     10.888991     10.888991     21.777982
     -1.906907     11.856141     11.856141     23.712282
     -1.896897     13.516686     13.516686     27.033371
     -1.886887     15.587495     15.587495     31.174990
     -1.876877     17.657006     17.657006     35.314011
     -1.866867     19.312921     19.312921     38.625841
     -1.856857     20.258209     20.258209     40.516418
     -1.846847     20.384467     20.384467     40.768934
     -1.836837     19.787533     19.787533     39.575066
     -1.826827     18.723009     18.723009     37.446017
     -1.816817     17.511498     17.511498     35.022997
     -1.806807     16.419839     16.419839     32.839679
     -1.796797     15.561378     15.561378     31.122755
     -1.786787     14.860837     14.860837     29.721673
     -1.776777     14.105408     14.105408     28.210815
     -1.766767     13.060410     13.060410     26.120819
     -1.756757     11.591539     11.591539     23.183079
     -1.746747      9.732634      9.732634     19.465268
     -1.736737      7.671491      7.671491     15.342982
     -1.726727      5.673514      5.673514     11.347028
     -1.716717      3.992234      3.992234      7.984467
     -1.706707      2.811235      2.811235      5.622470
     -1.696697      2.232401      2.232401      4.464803
     -1.686687      2.293821      2.293821      4.587642
     -1.676677      2.986739      2.986739      5.973479
     -1.666667      4.250053      4.250053      8.500107
     -1.656657      5.944498      5.944498     11.888995
     -1.646647      7.831442      7.831442     15.662884
     -1.636637      9.588276      9.588276     19.176553
     -1.626627     10.877134     10.877134     21.754268
