# EIG2DOS: Utility for SIESTA to obtain the electronic density of states
#  E. Artacho, Apr 1999, A. Garcia, Apr 2012
#  Nick R. Papior, Feb 2017
# ------------------------------------------
# Eigenvalues calculated from a non-polarized calculation
# Eigenvalues read from siesta.EIG
# Kpoint weights read from siesta.KP
# Using smearing parameter:   0.0500
# Using 1000 points in the energy range
# Selected bands: 1 to: 2981
# Emin, Emax in file for selected band(s):    -27.0367345    218.3042000
# Nbands, Nspin, Nk   =   2981     1     1
# E_F                 =    -4.3134 eV --> (shifted to ZERO)
# Broadening          =     0.0500 eV
#
#        E            N(up)  (=)   N(down)         Ntot
     -5.000000     44.795741     44.795741     89.591482
     -4.989990     48.750140     48.750140     97.500279
     -4.979980     51.170633     51.170633    102.341267
     -4.969970     51.798217     51.798217    103.596433
     -4.959960     50.652999     50.652999    101.305999
     -4.949950     48.013780     48.013780     96.027561
     -4.939940     44.343110     44.343110     88.686219
     -4.929930     40.202225     40.202225     80.404450
     -4.919920     36.193496     36.193496     72.386993
     -4.909910     32.936626     32.936626     65.873253
     -4.899900     31.048368     31.048368     62.096735
     -4.889890     31.077077     31.077077     62.154155
     -4.879880     33.361371     33.361371     66.722742
     -4.869870     37.838009     37.838009     75.676019
     -4.859860     43.891103     43.891103     87.782205
     -4.849850     50.362954     50.362954    100.725908
     -4.839840     55.796376     55.796376    111.592752
     -4.829830     58.858835     58.858835    117.717670
     -4.819820     58.779088     58.779088    117.558177
     -4.809810     55.592883     55.592883    111.185766
     -4.799800     50.081506     50.081506    100.163012
     -4.789790     43.445838     43.445838     86.891675
     -4.779780     36.886349     36.886349     73.772698
     -4.769770     31.278138     31.278138     62.556276
     -4.759760     27.043136     27.043136     54.086271
     -4.749750     24.202518     24.202518     48.405036
     -4.739740     22.519601     22.519601     45.039201
     -4.729730     21.643443     21.643443     43.286886
     -4.719720     21.207268     21.207268     42.414537
     -4.709710     20.879633     20.879633     41.759267
     -4.699700     20.387905     20.387905     40.775809
     -4.689690     19.536003     19.536003     39.072006
     -4.679680     18.231263     18.231263     36.462526
     -4.669670     16.522738     16.522738     33.045477
     -4.659660     14.637938     14.637938     29.275877
     -4.649650     12.993805     12.993805     25.987611
     -4.639640     12.158217     12.158217     24.316434
     -4.629630     12.750625     12.750625     25.501250
     -4.619620     15.288594     15.288594     30.577188
     -4.609610     20.006883     20.006883     40.013767
     -4.599600     26.697402     26.697402     53.394804
     -4.589590     34.636845     34.636845     69.273689
     -4.579580     42.667002     42.667002     85.334004
     -4.569570     49.451559     49.451559     98.903117
     -4.559560     53.855342     53.855342    107.710684
     -4.549550     55.314004     55.314004    110.628007
     -4.539540     54.036360     54.036360    108.072721
     -4.529530     50.937336     50.937336    101.874672
     -4.519520     47.315629     47.315629     94.631257
     -4.509510     44.405319     44.405319     88.810638
     -4.499499     42.982336     42.982336     85.964672
     -4.489489     43.171248     43.171248     86.342496
     -4.479479     44.500822     44.500822     89.001644
     -4.469469     46.152345     46.152345     92.304689
     -4.459459     47.281337     47.281337     94.562673
     -4.449449     47.290009     47.290009     94.580018
     -4.439439     45.971516     45.971516     91.943033
     -4.429429     43.508330     43.508330     87.016660
     -4.419419     40.358377     40.358377     80.716754
     -4.409409     37.089206     37.089206     74.178413
     -4.399399     34.220522     34.220522     68.441044
     -4.389389     32.115992     32.115992     64.231985
     -4.379379     30.937933     30.937933     61.875866
     -4.369369     30.655540     30.655540     61.311081
     -4.359359     31.087163     31.087163     62.174327
     -4.349349     31.959915     31.959915     63.919829
     -4.339339     32.977846     32.977846     65.955691
     -4.329329     33.893076     33.893076     67.786152
     -4.319319     34.569231     34.569231     69.138463
     -4.309309     35.019636     35.019636     70.039272
     -4.299299     35.403479     35.403479     70.806959
     -4.289289     35.974286     35.974286     71.948572
     -4.279279     36.989788     36.989788     73.979576
     -4.269269     38.603366     38.603366     77.206732
     -4.259259     40.764733     40.764733     81.529467
     -4.249249     43.165302     43.165302     86.330604
     -4.239239     45.266970     45.266970     90.533940
     -4.229229     46.436173     46.436173     92.872347
     -4.219219     46.158674     46.158674     92.317348
     -4.209209     44.252983     44.252983     88.505966
     -4.199199     40.974610     40.974610     81.949220
     -4.189189     36.942909     36.942909     73.885817
     -4.179179     32.914520     32.914520     65.829041
     -4.169169     29.514279     29.514279     59.028557
     -4.159159     27.056186     27.056186     54.112372
     -4.149149     25.530401     25.530401     51.060802
     -4.139139     24.737995     24.737995     49.475990
     -4.129129     24.482522     24.482522     48.965044
     -4.119119     24.710376     24.710376     49.420751
     -4.109109     25.527479     25.527479     51.054958
     -4.099099     27.084429     27.084429     54.168858
     -4.089089     29.389960     29.389960     58.779920
     -4.079079     32.158165     32.158165     64.316331
     -4.069069     34.792946     34.792946     69.585893
     -4.059059     36.551477     36.551477     73.102954
     -4.049049     36.828995     36.828995     73.657990
     -4.039039     35.426670     35.426670     70.853340
     -4.029029     32.660249     32.660249     65.320498
     -4.019019     29.251195     29.251195     58.502391
     -4.009009     26.063175     26.063175     52.126350
     -3.998999     23.825324     23.825324     47.650647
     -3.988989     22.970562     22.970562     45.941125
     -3.978979     23.629456     23.629456     47.258913
     -3.968969     25.724909     25.724909     51.449819
     -3.958959     29.074587     29.074587     58.149174
     -3.948949     33.441384     33.441384     66.882767
     -3.938939     38.538275     38.538275     77.076551
     -3.928929     44.035343     44.035343     88.070685
     -3.918919     49.604161     49.604161     99.208321
     -3.908909     54.985874     54.985874    109.971748
     -3.898899     60.029767     60.029767    120.059534
     -3.888889     64.654454     64.654454    129.308909
     -3.878879     68.733419     68.733419    137.466837
     -3.868869     71.967082     71.967082    143.934165
     -3.858859     73.832820     73.832820    147.665641
     -3.848849     73.678061     73.678061    147.356122
     -3.838839     70.948266     70.948266    141.896532
     -3.828829     65.459743     65.459743    130.919487
     -3.818819     57.585961     57.585961    115.171923
     -3.808809     48.254681     48.254681     96.509363
     -3.798799     38.739633     38.739633     77.479266
     -3.788789     30.325672     30.325672     60.651343
     -3.778779     23.977309     23.977309     47.954618
     -3.768769     20.125386     20.125386     40.250773
     -3.758759     18.625254     18.625254     37.250509
     -3.748749     18.872675     18.872675     37.745350
     -3.738739     20.021334     20.021334     40.042668
     -3.728729     21.234169     21.234169     42.468338
     -3.718719     21.907921     21.907921     43.815842
     -3.708709     21.823397     21.823397     43.646794
     -3.698699     21.188322     21.188322     42.376644
     -3.688689     20.558210     20.558210     41.116421
     -3.678679     20.647272     20.647272     41.294544
     -3.668669     22.074758     22.074758     44.149515
     -3.658659     25.122750     25.122750     50.245501
     -3.648649     29.592654     29.592654     59.185308
     -3.638639     34.823888     34.823888     69.647776
     -3.628629     39.878590     39.878590     79.757180
     -3.618619     43.823627     43.823627     87.647254
     -3.608609     45.996041     45.996041     91.992083
     -3.598599     46.150628     46.150628     92.301255
     -3.588589     44.452917     44.452917     88.905835
     -3.578579     41.355177     41.355177     82.710355
     -3.568569     37.430425     37.430425     74.860851
     -3.558559     33.226481     33.226481     66.452961
     -3.548549     29.165112     29.165112     58.330224
     -3.538539     25.486957     25.486957     50.973914
     -3.528529     22.242519     22.242519     44.485038
     -3.518519     19.334788     19.334788     38.669575
     -3.508509     16.608387     16.608387     33.216774
     -3.498498     13.955422     13.955422     27.910844
     -3.488488     11.392308     11.392308     22.784617
     -3.478478      9.073097      9.073097     18.146193
     -3.468468      7.237223      7.237223     14.474447
     -3.458458      6.119699      6.119699     12.239398
     -3.448448      5.861361      5.861361     11.722723
     -3.438438      6.447814      6.447814     12.895628
     -3.428428      7.692424      7.692424     15.384849
     -3.418418      9.270394      9.270394     18.540787
     -3.408408     10.803178     10.803178     21.606356
     -3.398398     11.977023     11.977023     23.954047
     -3.388388     12.658221     12.658221     25.316443
     -3.378378     12.956604     12.956604     25.913209
     -3.368368     13.203107     13.203107     26.406214
     -3.358358     13.844779     13.844779     27.689558
     -3.348348     15.299004     15.299004     30.598008
     -3.338338     17.821985     17.821985     35.643969
     -3.328328     21.427626     21.427626     42.855252
     -3.318318     25.860810     25.860810     51.721619
     -3.308308     30.612411     30.612411     61.224823
     -3.298298     34.973587     34.973587     69.947175
     -3.288288     38.144968     38.144968     76.289937
     -3.278278     39.410271     39.410271     78.820542
     -3.268268     38.342668     38.342668     76.685337
     -3.258258     34.964669     34.964669     69.929338
     -3.248248     29.775159     29.775159     59.550318
     -3.238238     23.611289     23.611289     47.222577
     -3.228228     17.397852     17.397852     34.795703
     -3.218218     11.894156     11.894156     23.788311
     -3.208208      7.540187      7.540187     15.080374
     -3.198198      4.441811      4.441811      8.883622
     -3.188188      2.465214      2.465214      4.930427
     -3.178178      1.374870      1.374870      2.749740
     -3.168168      0.955845      0.955845      1.911690
     -3.158158      1.090419      1.090419      2.180837
     -3.148148      1.785290      1.785290      3.570581
     -3.138138      3.156298      3.156298      6.312595
     -3.128128      5.376649      5.376649     10.753298
     -3.118118      8.594130      8.594130     17.188260
     -3.108108     12.831569     12.831569     25.663137
     -3.098098     17.901399     17.901399     35.802799
     -3.088088     23.377032     23.377032     46.754064
     -3.078078     28.654976     28.654976     57.309953
     -3.068068     33.105537     33.105537     66.211074
     -3.058058     36.259250     36.259250     72.518501
     -3.048048     37.942134     37.942134     75.884268
     -3.038038     38.285927     38.285927     76.571853
     -3.028028     37.604380     37.604380     75.208760
     -3.018018     36.208539     36.208539     72.417078
     -3.008008     34.276760     34.276760     68.553520
     -2.997998     31.862663     31.862663     63.725327
     -2.987988     29.032787     29.032787     58.065574
     -2.977978     26.037044     26.037044     52.074089
     -2.967968     23.389994     23.389994     46.779988
     -2.957958     21.793438     21.793438     43.586876
     -2.947948     21.921826     21.921826     43.843653
     -2.937938     24.163886     24.163886     48.327771
     -2.927928     28.432536     28.432536     56.865072
     -2.917918     34.122942     34.122942     68.245884
     -2.907908     40.239568     40.239568     80.479135
     -2.897898     45.652500     45.652500     91.305000
     -2.887888     49.399116     49.399116     98.798233
     -2.877878     50.931683     50.931683    101.863366
     -2.867868     50.230370     50.230370    100.460740
     -2.857858     47.749172     47.749172     95.498343
     -2.847848     44.221909     44.221909     88.443817
     -2.837838     40.404100     40.404100     80.808201
     -2.827828     36.845907     36.845907     73.691813
     -2.817818     33.774824     33.774824     67.549648
     -2.807808     31.120454     31.120454     62.240908
     -2.797798     28.654700     28.654700     57.309400
     -2.787788     26.173084     26.173084     52.346167
     -2.777778     23.628591     23.628591     47.257182
     -2.767768     21.157541     21.157541     42.315082
     -2.757758     18.995672     18.995672     37.991344
     -2.747748     17.342212     17.342212     34.684425
     -2.737738     16.256848     16.256848     32.513696
     -2.727728     15.652039     15.652039     31.304079
     -2.717718     15.382450     15.382450     30.764899
     -2.707708     15.370347     15.370347     30.740694
     -2.697698     15.680580     15.680580     31.361160
     -2.687688     16.489138     16.489138     32.978275
     -2.677678     17.958142     17.958142     35.916284
     -2.667668     20.094031     20.094031     40.188061
     -2.657658     22.682222     22.682222     45.364443
     -2.647648     25.347302     25.347302     50.694605
     -2.637638     27.708949     27.708949     55.417898
     -2.627628     29.541737     29.541737     59.083475
     -2.617618     30.844610     30.844610     61.689219
     -2.607608     31.786043     31.786043     63.572085
     -2.597598     32.571512     32.571512     65.143024
     -2.587588     33.322285     33.322285     66.644570
     -2.577578     34.030370     34.030370     68.060741
     -2.567568     34.588674     34.588674     69.177349
     -2.557558     34.845654     34.845654     69.691308
     -2.547548     34.638934     34.638934     69.277868
     -2.537538     33.808849     33.808849     67.617698
     -2.527528     32.229204     32.229204     64.458407
     -2.517518     29.880016     29.880016     59.760033
     -2.507508     26.936323     26.936323     53.872647
     -2.497497     23.807109     23.807109     47.614219
     -2.487487     21.069583     21.069583     42.139166
     -2.477477     19.302766     19.302766     38.605532
     -2.467467     18.888985     18.888985     37.777971
     -2.457457     19.878297     19.878297     39.756594
     -2.447447     21.983823     21.983823     43.967646
     -2.437437     24.712851     24.712851     49.425701
     -2.427427     27.573109     27.573109     55.146217
     -2.417417     30.257253     30.257253     60.514507
     -2.407407     32.718004     32.718004     65.436008
     -2.397397     35.098228     35.098228     70.196455
     -2.387387     37.551470     37.551470     75.102939
     -2.377377     40.045108     40.045108     80.090215
     -2.367367     42.251882     42.251882     84.503763
     -2.357357     43.597337     43.597337     87.194674
     -2.347347     43.456908     43.456908     86.913815
     -2.337337     41.421508     41.421508     82.843016
     -2.327327     37.512270     37.512270     75.024540
     -2.317317     32.245073     32.245073     64.490145
     -2.307307     26.514999     26.514999     53.029998
     -2.297297     21.352282     21.352282     42.704564
     -2.287287     17.650564     17.650564     35.301128
     -2.277277     15.963883     15.963883     31.927766
     -2.267267     16.423750     16.423750     32.847500
     -2.257257     18.774831     18.774831     37.549662
     -2.247247     22.492790     22.492790     44.985581
     -2.237237     26.935434     26.935434     53.870868
     -2.227227     31.480206     31.480206     62.960412
     -2.217217     35.611865     35.611865     71.223729
     -2.207207     38.945361     38.945361     77.890722
     -2.197197     41.199540     41.199540     82.399080
     -2.187187     42.163834     42.163834     84.327669
     -2.177177     41.702335     41.702335     83.404670
     -2.167167     39.808307     39.808307     79.616615
     -2.157157     36.673896     36.673896     73.347791
     -2.147147     32.710177     32.710177     65.420353
     -2.137137     28.470276     28.470276     56.940552
     -2.127127     24.487855     24.487855     48.975711
     -2.117117     21.104936     21.104936     42.209871
     -2.107107     18.380487     18.380487     36.760975
     -2.097097     16.128532     16.128532     32.257064
     -2.087087     14.059745     14.059745     28.119490
     -2.077077     11.944595     11.944595     23.889191
     -2.067067      9.713954      9.713954     19.427908
     -2.057057      7.460188      7.460188     14.920375
     -2.047047      5.361382      5.361382     10.722764
     -2.037037      3.585247      3.585247      7.170494
     -2.027027      2.223634      2.223634      4.447269
     -2.017017      1.277693      1.277693      2.555386
     -2.007007      0.682881      0.682881      1.365763
     -1.996997      0.349359      0.349359      0.698718
     -1.986987      0.197381      0.197381      0.394762
     -1.976977      0.179425      0.179425      0.358850
     -1.966967      0.290513      0.290513      0.581025
     -1.956957      0.570888      0.570888      1.141776
     -1.946947      1.102135      1.102135      2.204270
     -1.936937      1.993362      1.993362      3.986724
     -1.926927      3.353048      3.353048      6.706095
     -1.916917      5.247228      5.247228     10.494456
     -1.906907      7.654393      7.654393     15.308785
     -1.896897     10.435758     10.435758     20.871515
     -1.886887     13.339119     13.339119     26.678238
     -1.876877     16.042725     16.042725     32.085450
     -1.866867     18.228267     18.228267     36.456534
     -1.856857     19.659612     19.659612     39.319224
     -1.846847     20.242516     20.242516     40.485032
     -1.836837     20.047616     20.047616     40.095232
     -1.826827     19.287992     19.287992     38.575984
     -1.816817     18.251988     18.251988     36.503976
     -1.806807     17.205752     17.205752     34.411504
     -1.796797     16.297951     16.297951     32.595902
     -1.786787     15.509521     15.509521     31.019041
     -1.776777     14.678876     14.678876     29.357752
     -1.766767     13.596428     13.596428     27.192855
     -1.756757     12.122450     12.122450     24.244901
     -1.746747     10.268063     10.268063     20.536127
     -1.736737      8.202501      8.202501     16.405001
     -1.726727      6.194670      6.194670     12.389340
     -1.716717      4.531649      4.531649      9.063298
     -1.706707      3.459246      3.459246      6.918492
     -1.696697      3.162886      3.162886      6.325773
     -1.686687      3.772877      3.772877      7.545755
     -1.676677      5.360474      5.360474     10.720949
     -1.666667      7.900997      7.900997     15.801994
     -1.656657     11.211272     11.211272     22.422544
     -1.646647     14.901577     14.901577     29.803155
     -1.636637     18.394086     18.394086     36.788172
     -1.626627     21.036780     21.036780     42.073561
