# EIG2DOS: Utility for SIESTA to obtain the electronic density of states
#  E. Artacho, Apr 1999, A. Garcia, Apr 2012
#  Nick R. Papior, Feb 2017
# ------------------------------------------
# Eigenvalues calculated from a non-polarized calculation
# Eigenvalues read from siesta.EIG
# Kpoint weights read from siesta.KP
# Using smearing parameter:   0.0500
# Using 1000 points in the energy range
# Selected bands: 1 to: 2981
# Emin, Emax in file for selected band(s):    -27.2842359    218.3752280
# Nbands, Nspin, Nk   =   2981     1     1
# E_F                 =    -4.2322 eV --> (shifted to ZERO)
# Broadening          =     0.0500 eV
#
#        E            N(up)  (=)   N(down)         Ntot
     -5.000000     32.528993     32.528993     65.057986
     -4.989990     36.996039     36.996039     73.992078
     -4.979980     41.062942     41.062942     82.125885
     -4.969970     44.076749     44.076749     88.153498
     -4.959960     45.499053     45.499053     90.998105
     -4.949950     45.083297     45.083297     90.166594
     -4.939940     42.965110     42.965110     85.930221
     -4.929930     39.641873     39.641873     79.283747
     -4.919920     35.868443     35.868443     71.736887
     -4.909910     32.517521     32.517521     65.035042
     -4.899900     30.436672     30.436672     60.873344
     -4.889890     30.302776     30.302776     60.605552
     -4.879880     32.465071     32.465071     64.930143
     -4.869870     36.796790     36.796790     73.593580
     -4.859860     42.620321     42.620321     85.240641
     -4.849850     48.785117     48.785117     97.570235
     -4.839840     53.929806     53.929806    107.859611
     -4.829830     56.865821     56.865821    113.731642
     -4.819820     56.937679     56.937679    113.875359
     -4.809810     54.204738     54.204738    108.409476
     -4.799800     49.367189     49.367189     98.734377
     -4.789790     43.481667     43.481667     86.963335
     -4.779780     37.605396     37.605396     75.210793
     -4.769770     32.519801     32.519801     65.039603
     -4.759760     28.618804     28.618804     57.237608
     -4.749750     25.954444     25.954444     51.908887
     -4.739740     24.368961     24.368961     48.737922
     -4.729730     23.631152     23.631152     47.262303
     -4.719720     23.522079     23.522079     47.044158
     -4.709710     23.854634     23.854634     47.709268
     -4.699700     24.445364     24.445364     48.890728
     -4.689690     25.078710     25.078710     50.157419
     -4.679680     25.507890     25.507890     51.015780
     -4.669670     25.517766     25.517766     51.035531
     -4.659660     25.036497     25.036497     50.072994
     -4.649650     24.242970     24.242970     48.485940
     -4.639640     23.600200     23.600200     47.200399
     -4.629630     23.765671     23.765671     47.531342
     -4.619620     25.382117     25.382117     50.764234
     -4.609610     28.813563     28.813563     57.627126
     -4.599600     33.932428     33.932428     67.864856
     -4.589590     40.061245     40.061245     80.122489
     -4.579580     46.120935     46.120935     92.241869
     -4.569570     50.952966     50.952966    101.905932
     -4.559560     53.701432     53.701432    107.402863
     -4.549550     54.103834     54.103834    108.207667
     -4.539540     52.569074     52.569074    105.138148
     -4.529530     50.007708     50.007708    100.015415
     -4.519520     47.483317     47.483317     94.966634
     -4.509510     45.826803     45.826803     91.653606
     -4.499499     45.365203     45.365203     90.730406
     -4.489489     45.861314     45.861314     91.722629
     -4.479479     46.667513     46.667513     93.335026
     -4.469469     47.009946     47.009946     94.019892
     -4.459459     46.276438     46.276438     92.552876
     -4.449449     44.198649     44.198649     88.397298
     -4.439439     40.882253     40.882253     81.764506
     -4.429429     36.712567     36.712567     73.425134
     -4.419419     32.209321     32.209321     64.418642
     -4.409409     27.902956     27.902956     55.805912
     -4.399399     24.264432     24.264432     48.528863
     -4.389389     21.672764     21.672764     43.345527
     -4.379379     20.383626     20.383626     40.767251
     -4.369369     20.480771     20.480771     40.961543
     -4.359359     21.830815     21.830815     43.661630
     -4.349349     24.085756     24.085756     48.171512
     -4.339339     26.763599     26.763599     53.527199
     -4.329329     29.393242     29.393242     58.786484
     -4.319319     31.667042     31.667042     63.334085
     -4.309309     33.532660     33.532660     67.065319
     -4.299299     35.180997     35.180997     70.361995
     -4.289289     36.931573     36.931573     73.863147
     -4.279279     39.056568     39.056568     78.113136
     -4.269269     41.607346     41.607346     83.214692
     -4.259259     44.311595     44.311595     88.623189
     -4.249249     46.595244     46.595244     93.190489
     -4.239239     47.746130     47.746130     95.492261
     -4.229229     47.176912     47.176912     94.353824
     -4.219219     44.685034     44.685034     89.370068
     -4.209209     40.586511     40.586511     81.173023
     -4.199199     35.645636     35.645636     71.291271
     -4.189189     30.820312     30.820312     61.640623
     -4.179179     26.937762     26.937762     53.875525
     -4.169169     24.448906     24.448906     48.897812
     -4.159159     23.362463     23.362463     46.724926
     -4.149149     23.364361     23.364361     46.728723
     -4.139139     24.041363     24.041363     48.082726
     -4.129129     25.091751     25.091751     50.183503
     -4.119119     26.426681     26.426681     52.853361
     -4.109109     28.123935     28.123935     56.247870
     -4.099099     30.265417     30.265417     60.530834
     -4.089089     32.747260     32.747260     65.494520
     -4.079079     35.174064     35.174064     70.348127
     -4.069069     36.917596     36.917596     73.835192
     -4.059059     37.338226     37.338226     74.676453
     -4.049049     36.071984     36.071984     72.143968
     -4.039039     33.236264     33.236264     66.472528
     -4.029029     29.441568     29.441568     58.883135
     -4.019019     25.599567     25.599567     51.199134
     -4.009009     22.625191     22.625191     45.250382
     -3.998999     21.175499     21.175499     42.350998
     -3.988989     21.528840     21.528840     43.057680
     -3.978979     23.618624     23.618624     47.237249
     -3.968969     27.158339     27.158339     54.316677
     -3.958959     31.772128     31.772128     63.544255
     -3.948949     37.078753     37.078753     74.157505
     -3.938939     42.729212     42.729212     85.458425
     -3.928929     48.427156     48.427156     96.854312
     -3.918919     53.950156     53.950156    107.900313
     -3.908909     59.158598     59.158598    118.317196
     -3.898899     63.963168     63.963168    127.926336
     -3.888889     68.241694     68.241694    136.483388
     -3.878879     71.738704     71.738704    143.477407
     -3.868869     74.012615     74.012615    148.025230
     -3.858859     74.487982     74.487982    148.975964
     -3.848849     72.622170     72.622170    145.244341
     -3.838839     68.132466     68.132466    136.264933
     -3.828829     61.186789     61.186789    122.373578
     -3.818819     52.464728     52.464728    104.929455
     -3.808809     43.046586     43.046586     86.093172
     -3.798799     34.161316     34.161316     68.322632
     -3.788789     26.882290     26.882290     53.764580
     -3.778779     21.875406     21.875406     43.750812
     -3.768769     19.275064     19.275064     38.550129
     -3.758759     18.711293     18.711293     37.422586
     -3.748749     19.462906     19.462906     38.925812
     -3.738739     20.683251     20.683251     41.366502
     -3.728729     21.637568     21.637568     43.275135
     -3.718719     21.896497     21.896497     43.792995
     -3.708709     21.442124     21.442124     42.884249
     -3.698699     20.659339     20.659339     41.318677
     -3.688689     20.207978     20.207978     40.415957
     -3.678679     20.800933     20.800933     41.601866
     -3.668669     22.946102     22.946102     45.892205
     -3.658659     26.734294     26.734294     53.468589
     -3.648649     31.754461     31.754461     63.508922
     -3.638639     37.180552     37.180552     74.361104
     -3.628629     42.007396     42.007396     84.014791
     -3.618619     45.346377     45.346377     90.692754
     -3.608609     46.664530     46.664530     93.329060
     -3.598599     45.882801     45.882801     91.765602
     -3.588589     43.321647     43.321647     86.643295
     -3.578579     39.547996     39.547996     79.095993
     -3.568569     35.199179     35.199179     70.398358
     -3.558559     30.837061     30.837061     61.674123
     -3.548549     26.851278     26.851278     53.702556
     -3.538539     23.413866     23.413866     46.827733
     -3.528529     20.489355     20.489355     40.978710
     -3.518519     17.903188     17.903188     35.806376
     -3.508509     15.452907     15.452907     30.905814
     -3.498498     13.021423     13.021423     26.042847
     -3.488488     10.644136     10.644136     21.288271
     -3.478478      8.502833      8.502833     17.005665
     -3.468468      6.855596      6.855596     13.711193
     -3.458458      5.938161      5.938161     11.876321
     -3.448448      5.875169      5.875169     11.750338
     -3.438438      6.626760      6.626760     13.253520
     -3.428428      7.982623      7.982623     15.965246
     -3.418418      9.608456      9.608456     19.216912
     -3.408408     11.141765     11.141765     22.283530
     -3.398398     12.317133     12.317133     24.634266
     -3.388388     13.080274     13.080274     26.160549
     -3.378378     13.642055     13.642055     27.284109
     -3.368368     14.441045     14.441045     28.882090
     -3.358358     16.020104     16.020104     32.040208
     -3.348348     18.856369     18.856369     37.712738
     -3.338338     23.195042     23.195042     46.390083
     -3.328328     28.926014     28.926014     57.852029
     -3.318318     35.527631     35.527631     71.055262
     -3.308308     42.098882     42.098882     84.197764
     -3.298298     47.502077     47.502077     95.004154
     -3.288288     50.617543     50.617543    101.235085
     -3.278278     50.659026     50.659026    101.318052
     -3.268268     47.440206     47.440206     94.880412
     -3.258258     41.470374     41.470374     82.940749
     -3.248248     33.820013     33.820013     67.640026
     -3.238238     25.806124     25.806124     51.612248
     -3.228228     18.632397     18.632397     37.264793
     -3.218218     13.124916     13.124916     26.249832
     -3.208208      9.634158      9.634158     19.268316
     -3.198198      8.084680      8.084680     16.169360
     -3.188188      8.104086      8.104086     16.208172
     -3.178178      9.169590      9.169590     18.339181
     -3.168168     10.745758     10.745758     21.491516
     -3.158158     12.409756     12.409756     24.819512
     -3.148148     13.952985     13.952985     27.905970
     -3.138138     15.426361     15.426361     30.852722
     -3.128128     17.092407     17.092407     34.184814
     -3.118118     19.278276     19.278276     38.556552
     -3.108108     22.177238     22.177238     44.354476
     -3.098098     25.687230     25.687230     51.374460
     -3.088088     29.371947     29.371947     58.743894
     -3.078078     32.576720     32.576720     65.153439
     -3.068068     34.653767     34.653767     69.307535
     -3.058058     35.192586     35.192586     70.385173
     -3.048048     34.146838     34.146838     68.293676
     -3.038038     31.804634     31.804634     63.609269
     -3.028028     28.633772     28.633772     57.267545
     -3.018018     25.096725     25.096725     50.193449
     -3.008008     21.534192     21.534192     43.068383
     -2.997998     18.161920     18.161920     36.323841
     -2.987988     15.152467     15.152467     30.304933
     -2.977978     12.729184     12.729184     25.458369
     -2.967968     11.205528     11.205528     22.411056
     -2.957958     10.943719     10.943719     21.887439
     -2.947948     12.250464     12.250464     24.500927
     -2.937938     15.251579     15.251579     30.503157
     -2.927928     19.791302     19.791302     39.582603
     -2.917918     25.395246     25.395246     50.790492
     -2.907908     31.322894     31.322894     62.645787
     -2.897898     36.712446     36.712446     73.424893
     -2.887888     40.786850     40.786850     81.573700
     -2.877878     43.056181     43.056181     86.112361
     -2.867868     43.438967     43.438967     86.877935
     -2.857858     42.248264     42.248264     84.496527
     -2.847848     40.043003     40.043003     80.086006
     -2.837838     37.406374     37.406374     74.812749
     -2.827828     34.748024     34.748024     69.496048
     -2.817818     32.214807     32.214807     64.429614
     -2.807808     29.739597     29.739597     59.479194
     -2.797798     27.187654     27.187654     54.375308
     -2.787788     24.512847     24.512847     49.025695
     -2.777778     21.837286     21.837286     43.674572
     -2.767768     19.416343     19.416343     38.832686
     -2.757758     17.518941     17.518941     35.037882
     -2.747748     16.301183     16.301183     32.602365
     -2.737738     15.751761     15.751761     31.503522
     -2.727728     15.739515     15.739515     31.479029
     -2.717718     16.126045     16.126045     32.252091
     -2.707708     16.862471     16.862471     33.724942
     -2.697698     17.999555     17.999555     35.999110
     -2.687688     19.600913     19.600913     39.201827
     -2.677678     21.620621     21.620621     43.241241
     -2.667668     23.838798     23.838798     47.677596
     -2.657658     25.915091     25.915091     51.830181
     -2.647648     27.539704     27.539704     55.079407
     -2.637638     28.590202     28.590202     57.180405
     -2.627628     29.192238     29.192238     58.384476
     -2.617618     29.643329     29.643329     59.286657
     -2.607608     30.247680     30.247680     60.495360
     -2.597598     31.162453     31.162453     62.324905
     -2.587588     32.336365     32.336365     64.672730
     -2.577578     33.550974     33.550974     67.101947
     -2.567568     34.511864     34.511864     69.023728
     -2.557558     34.927519     34.927519     69.855038
     -2.547548     34.554424     34.554424     69.108847
     -2.537538     33.232252     33.232252     66.464504
     -2.527528     30.938860     30.938860     61.877720
     -2.517518     27.858436     27.858436     55.716871
     -2.507508     24.415375     24.415375     48.830750
     -2.497497     21.222578     21.222578     42.445156
     -2.487487     18.934037     18.934037     37.868073
     -2.477477     18.049031     18.049031     36.098062
     -2.467467     18.749867     18.749867     37.499734
     -2.457457     20.846586     20.846586     41.693172
     -2.447447     23.856842     23.856842     47.713683
     -2.437437     27.190120     27.190120     54.380240
     -2.427427     30.358631     30.358631     60.717262
     -2.417417     33.122942     33.122942     66.245884
     -2.407407     35.507373     35.507373     71.014746
     -2.397397     37.679496     37.679496     75.358991
     -2.387387     39.754055     39.754055     79.508109
     -2.377377     41.622311     41.622311     83.244623
     -2.367367     42.901175     42.901175     85.802350
     -2.357357     43.042013     43.042013     86.084027
     -2.347347     41.560147     41.560147     83.120293
     -2.337337     38.281425     38.281425     76.562851
     -2.327327     33.488012     33.488012     66.976025
     -2.317317     27.892561     27.892561     55.785121
     -2.307307     22.453301     22.453301     44.906601
     -2.297297     18.113928     18.113928     36.227856
     -2.287287     15.572987     15.572987     31.145975
     -2.277277     15.154640     15.154640     30.309280
     -2.267267     16.796163     16.796163     33.592327
     -2.257257     20.123015     20.123015     40.246031
     -2.247247     24.566142     24.566142     49.132284
     -2.237237     29.482074     29.482074     58.964149
     -2.227227     34.249991     34.249991     68.499981
     -2.217217     38.333580     38.333580     76.667160
     -2.207207     41.309257     41.309257     82.618513
     -2.197197     42.875806     42.875806     85.751612
     -2.187187     42.867457     42.867457     85.734914
     -2.177177     41.283804     41.283804     82.567608
     -2.167167     38.325595     38.325595     76.651190
     -2.157157     34.400497     34.400497     68.800995
     -2.147147     30.061017     30.061017     60.122034
     -2.137137     25.869322     25.869322     51.738644
     -2.127127     22.234514     22.234514     44.469027
     -2.117117     19.299743     19.299743     38.599485
     -2.107107     16.940276     16.940276     33.880553
     -2.097097     14.874541     14.874541     29.749083
     -2.087087     12.827092     12.827092     25.654184
     -2.077077     10.658140     10.658140     21.316280
     -2.067067      8.402490      8.402490     16.804981
     -2.057057      6.217965      6.217965     12.435929
     -2.047047      4.289938      4.289938      8.579876
     -2.037037      2.748884      2.748884      5.497769
     -2.027027      1.634951      1.634951      3.269902
     -2.017017      0.910374      0.910374      1.820749
     -2.007007      0.499021      0.499021      0.998042
     -1.996997      0.329791      0.329791      0.659583
     -1.986987      0.370190      0.370190      0.740379
     -1.976977      0.646516      0.646516      1.293033
     -1.966967      1.250657      1.250657      2.501313
     -1.956957      2.330487      2.330487      4.660974
     -1.946947      4.057378      4.057378      8.114756
     -1.936937      6.567198      6.567198     13.134396
     -1.926927      9.883867      9.883867     19.767735
     -1.916917     13.852113     13.852113     27.704226
     -1.906907     18.116002     18.116002     36.232003
     -1.896897     22.169566     22.169566     44.339133
     -1.886887     25.474388     25.474388     50.948775
     -1.876877     27.602893     27.602893     55.205786
     -1.866867     28.349948     28.349948     56.699896
     -1.856857     27.771725     27.771725     55.543450
     -1.846847     26.148127     26.148127     52.296254
     -1.836837     23.895844     23.895844     47.791689
     -1.826827     21.465261     21.465261     42.930522
     -1.816817     19.242104     19.242104     38.484209
     -1.806807     17.465133     17.465133     34.930267
     -1.796797     16.175471     16.175471     32.350942
     -1.786787     15.220256     15.220256     30.440512
     -1.776777     14.323325     14.323325     28.646651
     -1.766767     13.204747     13.204747     26.409494
     -1.756757     11.699586     11.699586     23.399172
     -1.746747      9.821332      9.821332     19.642663
     -1.736737      7.744841      7.744841     15.489682
     -1.726727      5.728031      5.728031     11.456062
     -1.716717      4.020455      4.020455      8.040910
     -1.706707      2.803349      2.803349      5.606698
     -1.696697      2.176987      2.176987      4.353975
     -1.686687      2.179489      2.179489      4.358977
     -1.676677      2.806195      2.806195      5.612389
     -1.666667      4.006465      4.006465      8.012931
     -1.656657      5.657634      5.657634     11.315268
     -1.646647      7.539333      7.539333     15.078666
     -1.636637      9.340817      9.340817     18.681635
     -1.626627     10.721475     10.721475     21.442950
