# EIG2DOS: Utility for SIESTA to obtain the electronic density of states
#  E. Artacho, Apr 1999, A. Garcia, Apr 2012
#  Nick R. Papior, Feb 2017
# ------------------------------------------
# Eigenvalues calculated from a non-polarized calculation
# Eigenvalues read from siesta.EIG
# Kpoint weights read from siesta.KP
# Using smearing parameter:   0.0500
# Using 1000 points in the energy range
# Selected bands: 1 to: 2981
# Emin, Emax in file for selected band(s):    -27.1841310    218.3603790
# Nbands, Nspin, Nk   =   2981     1     1
# E_F                 =    -4.2409 eV --> (shifted to ZERO)
# Broadening          =     0.0500 eV
#
#        E            N(up)  (=)   N(down)         Ntot
     -5.000000     35.821710     35.821710     71.643420
     -4.989990     39.407654     39.407654     78.815308
     -4.979980     42.128986     42.128986     84.257972
     -4.969970     43.592688     43.592688     87.185376
     -4.959960     43.589238     43.589238     87.178476
     -4.949950     42.158713     42.158713     84.317426
     -4.939940     39.594085     39.594085     79.188170
     -4.929930     36.395977     36.395977     72.791954
     -4.919920     33.206537     33.206537     66.413074
     -4.909910     30.738140     30.738140     61.476280
     -4.899900     29.686783     29.686783     59.373567
     -4.889890     30.605651     30.605651     61.211301
     -4.879880     33.733792     33.733792     67.467583
     -4.869870     38.825936     38.825936     77.651872
     -4.859860     45.077293     45.077293     90.154585
     -4.849850     51.234359     51.234359    102.468718
     -4.839840     55.908631     55.908631    111.817262
     -4.829830     57.997317     57.997317    115.994634
     -4.819820     57.035697     57.035697    114.071393
     -4.809810     53.320409     53.320409    106.640818
     -4.799800     47.752262     47.752262     95.504523
     -4.789790     41.485751     41.485751     82.971503
     -4.779780     35.554742     35.554742     71.109484
     -4.769770     30.626119     30.626119     61.252238
     -4.759760     26.941476     26.941476     53.882952
     -4.749750     24.408809     24.408809     48.817617
     -4.739740     22.756720     22.756720     45.513440
     -4.729730     21.671899     21.671899     43.343799
     -4.719720     20.879594     20.879594     41.759187
     -4.709710     20.166323     20.166323     40.332646
     -4.699700     19.369946     19.369946     38.739893
     -4.689690     18.372083     18.372083     36.744167
     -4.679680     17.120583     17.120583     34.241166
     -4.669670     15.686065     15.686065     31.372129
     -4.659660     14.326705     14.326705     28.653410
     -4.649650     13.516725     13.516725     27.033450
     -4.639640     13.898308     13.898308     27.796615
     -4.629630     16.141490     16.141490     32.282980
     -4.619620     20.731111     20.731111     41.462222
     -4.609610     27.735009     27.735009     55.470018
     -4.599600     36.636265     36.636265     73.272529
     -4.589590     46.320397     46.320397     92.640795
     -4.579580     55.276089     55.276089    110.552177
     -4.569570     61.988269     61.988269    123.976538
     -4.559560     65.402595     65.402595    130.805191
     -4.549550     65.277515     65.277515    130.555030
     -4.539540     62.264067     62.264067    124.528134
     -4.529530     57.665420     57.665420    115.330839
     -4.519520     52.972022     52.972022    105.944045
     -4.509510     49.365703     49.365703     98.731407
     -4.499499     47.387054     47.387054     94.774107
     -4.489489     46.872026     46.872026     93.744051
     -4.479479     47.139541     47.139541     94.279081
     -4.469469     47.315916     47.315916     94.631831
     -4.459459     46.652693     46.652693     93.305387
     -4.449449     44.731054     44.731054     89.462108
     -4.439439     41.517236     41.517236     83.034471
     -4.429429     37.299568     37.299568     74.599135
     -4.419419     32.570412     32.570412     65.140824
     -4.409409     27.908862     27.908862     55.817724
     -4.399399     23.887420     23.887420     47.774840
     -4.389389     20.994833     20.994833     41.989667
     -4.379379     19.559959     19.559959     39.119918
     -4.369369     19.680373     19.680373     39.360746
     -4.359359     21.185070     21.185070     42.370140
     -4.349349     23.666694     23.666694     47.333388
     -4.339339     26.593735     26.593735     53.187470
     -4.329329     29.470639     29.470639     58.941277
     -4.319319     31.982983     31.982983     63.965967
     -4.309309     34.067614     34.067614     68.135227
     -4.299299     35.881959     35.881959     71.763917
     -4.289289     37.689940     37.689940     75.379879
     -4.279279     39.710139     39.710139     79.420279
     -4.269269     41.978382     41.978382     83.956765
     -4.259259     44.270612     44.270612     88.541224
     -4.249249     46.121083     46.121083     92.242166
     -4.239239     46.950179     46.950179     93.900357
     -4.229229     46.276293     46.276293     92.552585
     -4.219219     43.935547     43.935547     87.871095
     -4.209209     40.204712     40.204712     80.409425
     -4.199199     35.750387     35.750387     71.500774
     -4.189189     31.410158     31.410158     62.820316
     -4.179179     27.902964     27.902964     55.805928
     -4.169169     25.606340     25.606340     51.212681
     -4.159159     24.500533     24.500533     49.001066
     -4.149149     24.289076     24.289076     48.578152
     -4.139139     24.617782     24.617782     49.235564
     -4.129129     25.274081     25.274081     50.548163
     -4.119119     26.267678     26.267678     52.535356
     -4.109109     27.755221     27.755221     55.510442
     -4.099099     29.849195     29.849195     59.698391
     -4.089089     32.414937     32.414937     64.829875
     -4.079079     34.979207     34.979207     69.958414
     -4.069069     36.828515     36.828515     73.657030
     -4.059059     37.275836     37.275836     74.551672
     -4.049049     35.971576     35.971576     71.943152
     -4.039039     33.095624     33.095624     66.191249
     -4.029029     29.325309     29.325309     58.650618
     -4.019019     25.597264     25.597264     51.194528
     -4.009009     22.790553     22.790553     45.581105
     -3.998999     21.485414     21.485414     42.970827
     -3.988989     21.887394     21.887394     43.774788
     -3.978979     23.902363     23.902363     47.804725
     -3.968969     27.274865     27.274865     54.549730
     -3.958959     31.699699     31.699699     63.399398
     -3.948949     36.870152     36.870152     73.740305
     -3.938939     42.485642     42.485642     84.971283
     -3.928929     48.261319     48.261319     96.522639
     -3.918919     53.955515     53.955515    107.911029
     -3.908909     59.390035     59.390035    118.780071
     -3.898899     64.424963     64.424963    128.849926
     -3.888889     68.878912     68.878912    137.757824
     -3.878879     72.435383     72.435383    144.870767
     -3.868869     74.605571     74.605571    149.211143
     -3.858859     74.801709     74.801709    149.603419
     -3.848849     72.518874     72.518874    145.037748
     -3.838839     67.559485     67.559485    135.118969
     -3.828829     60.200512     60.200512    120.401025
     -3.818819     51.218880     51.218880    102.437761
     -3.808809     41.748521     41.748521     83.497042
     -3.798799     33.013526     33.013526     66.027052
     -3.788789     26.030551     26.030551     52.061102
     -3.778779     21.379337     21.379337     42.758673
     -3.768769     19.106388     19.106388     38.212775
     -3.758759     18.775712     18.775712     37.551425
     -3.748749     19.636275     19.636275     39.272550
     -3.738739     20.851409     20.851409     41.702817
     -3.728729     21.730075     21.730075     43.460150
     -3.718719     21.906355     21.906355     43.812710
     -3.708709     21.426176     21.426176     42.852353
     -3.698699     20.717900     20.717900     41.435800
     -3.688689     20.447530     20.447530     40.895060
     -3.678679     21.290049     21.290049     42.580098
     -3.668669     23.679883     23.679883     47.359766
     -3.658659     27.622886     27.622886     55.245771
     -3.648649     32.643838     32.643838     65.287676
     -3.638639     37.899882     37.899882     75.799763
     -3.628629     42.423663     42.423663     84.847325
     -3.618619     45.402433     45.402433     90.804866
     -3.608609     46.385457     46.385457     92.770914
     -3.598599     45.352589     45.352589     90.705178
     -3.588589     42.646431     42.646431     85.292861
     -3.578579     38.824582     38.824582     77.649165
     -3.568569     34.498721     34.498721     68.997442
     -3.558559     30.202072     30.202072     60.404143
     -3.548549     26.298674     26.298674     52.597348
     -3.538539     22.939258     22.939258     45.878516
     -3.528529     20.073089     20.073089     40.146177
     -3.518519     17.520434     17.520434     35.040867
     -3.508509     15.086963     15.086963     30.173926
     -3.498498     12.675250     12.675250     25.350500
     -3.488488     10.344335     10.344335     20.688670
     -3.478478      8.293588      8.293588     16.587176
     -3.468468      6.784517      6.784517     13.569035
     -3.458458      6.038550      6.038550     12.077099
     -3.448448      6.149576      6.149576     12.299151
     -3.438438      7.036472      7.036472     14.072944
     -3.428428      8.447604      8.447604     16.895208
     -3.418418     10.020635     10.020635     20.041269
     -3.408408     11.389602     11.389602     22.779204
     -3.398398     12.312140     12.312140     24.624280
     -3.388388     12.771227     12.771227     25.542453
     -3.378378     13.004961     13.004961     26.009921
     -3.368368     13.443344     13.443344     26.886687
     -3.358358     14.571514     14.571514     29.143027
     -3.348348     16.769425     16.769425     33.538851
     -3.338338     20.180434     20.180434     40.360869
     -3.328328     24.639807     24.639807     49.279615
     -3.318318     29.670646     29.670646     59.341292
     -3.308308     34.546926     34.546926     69.093852
     -3.298298     38.426640     38.426640     76.853281
     -3.288288     40.549815     40.549815     81.099629
     -3.278278     40.462430     40.462430     80.924861
     -3.268268     38.185430     38.185430     76.370860
     -3.258258     34.238805     34.238805     68.477610
     -3.248248     29.481324     29.481324     58.962647
     -3.238238     24.818000     24.818000     49.635999
     -3.228228     20.902616     20.902616     41.805231
     -3.218218     17.969134     17.969134     35.938269
     -3.208208     15.857477     15.857477     31.714955
     -3.198198     14.199625     14.199625     28.399251
     -3.188188     12.661168     12.661168     25.322336
     -3.178178     11.126223     11.126223     22.252445
     -3.168168      9.761812      9.761812     19.523625
     -3.158158      8.962625      8.962625     17.925250
     -3.148148      9.219719      9.219719     18.439438
     -3.138138     10.963312     10.963312     21.926624
     -3.128128     14.414949     14.414949     28.829898
     -3.118118     19.472988     19.472988     38.945976
     -3.108108     25.658571     25.658571     51.317142
     -3.098098     32.154979     32.154979     64.309958
     -3.088088     37.959366     37.959366     75.918732
     -3.078078     42.123948     42.123948     84.247895
     -3.068068     44.012051     44.012051     88.024102
     -3.058058     43.468302     43.468302     86.936603
     -3.048048     40.827423     40.827423     81.654845
     -3.038038     36.757351     36.757351     73.514701
     -3.028028     32.011902     32.011902     64.023805
     -3.018018     27.209092     27.209092     54.418184
     -3.008008     22.728332     22.728332     45.456663
     -2.997998     18.748221     18.748221     37.496441
     -2.987988     15.371696     15.371696     30.743392
     -2.977978     12.750552     12.750552     25.501105
     -2.967968     11.139371     11.139371     22.278741
     -2.957958     10.857529     10.857529     21.715058
     -2.947948     12.183013     12.183013     24.366027
     -2.937938     15.223588     15.223588     30.447176
     -2.927928     19.812158     19.812158     39.624315
     -2.917918     25.465442     25.465442     50.930884
     -2.907908     31.432596     31.432596     62.865192
     -2.897898     36.838317     36.838317     73.676634
     -2.887888     40.890931     40.890931     81.781862
     -2.877878     43.090779     43.090779     86.181557
     -2.867868     43.359040     43.359040     86.718079
     -2.857858     42.028420     42.028420     84.056839
     -2.847848     39.692271     39.692271     79.384542
     -2.837838     36.973121     36.973121     73.946241
     -2.827828     34.311060     34.311060     68.622121
     -2.817818     31.863102     31.863102     63.726203
     -2.807808     29.548361     29.548361     59.096722
     -2.797798     27.199775     27.199775     54.399549
     -2.787788     24.731221     24.731221     49.462441
     -2.777778     22.228153     22.228153     44.456306
     -2.767768     19.919778     19.919778     39.839556
     -2.757758     18.062052     18.062052     36.124103
     -2.747748     16.811494     16.811494     33.622988
     -2.737738     16.170011     16.170011     32.340021
     -2.727728     16.030773     16.030773     32.061547
     -2.717718     16.286305     16.286305     32.572609
     -2.707708     16.917167     16.917167     33.834334
     -2.697698     17.993036     17.993036     35.986073
     -2.687688     19.580742     19.580742     39.161483
     -2.677678     21.624307     21.624307     43.248613
     -2.667668     23.889690     23.889690     47.779381
     -2.657658     26.028371     26.028371     52.056742
     -2.647648     27.732449     27.732449     55.464898
     -2.637638     28.886292     28.886292     57.772583
     -2.627628     29.616159     29.616159     59.232319
     -2.617618     30.204800     30.204800     60.409600
     -2.607608     30.926062     30.926062     61.852124
     -2.597598     31.901057     31.901057     63.802114
     -2.587588     33.051017     33.051017     66.102034
     -2.577578     34.148805     34.148805     68.297610
     -2.567568     34.911534     34.911534     69.823069
     -2.557558     35.074017     35.074017     70.148034
     -2.547548     34.427598     34.427598     68.855195
     -2.537538     32.852167     32.852167     65.704335
     -2.527528     30.369361     30.369361     60.738723
     -2.517518     27.205165     27.205165     54.410330
     -2.507508     23.811905     23.811905     47.623810
     -2.497497     20.802106     20.802106     41.604213
     -2.487487     18.792546     18.792546     37.585092
     -2.477477     18.213148     18.213148     36.426295
     -2.467467     19.163742     19.163742     38.327485
     -2.457457     21.385589     21.385589     42.771177
     -2.447447     24.364735     24.364735     48.729471
     -2.437437     27.526230     27.526230     55.052459
     -2.427427     30.437557     30.437557     60.875113
     -2.417417     32.933611     32.933611     65.867223
     -2.407407     35.107679     35.107679     70.215357
     -2.397397     37.171647     37.171647     74.343294
     -2.387387     39.250043     39.250043     78.500086
     -2.377377     41.209194     41.209194     82.418388
     -2.367367     42.615284     42.615284     85.230568
     -2.357357     42.860433     42.860433     85.720866
     -2.347347     41.414072     41.414072     82.828144
     -2.337337     38.087474     38.087474     76.174949
     -2.327327     33.183926     33.183926     66.367853
     -2.317317     27.460478     27.460478     54.920957
     -2.307307     21.920909     21.920909     43.841819
     -2.297297     17.536895     17.536895     35.073790
     -2.287287     15.011694     15.011694     30.023389
     -2.277277     14.658128     14.658128     29.316256
     -2.267267     16.398142     16.398142     32.796285
     -2.257257     19.845974     19.845974     39.691948
     -2.247247     24.426035     24.426035     48.852071
     -2.237237     29.488481     29.488481     58.976962
     -2.227227     34.401622     34.401622     68.803245
     -2.217217     38.612711     38.612711     77.225422
     -2.207207     41.679461     41.679461     83.358923
     -2.197197     43.285873     43.285873     86.571746
     -2.187187     43.261644     43.261644     86.523288
     -2.177177     41.615562     41.615562     83.231123
     -2.167167     38.569473     38.569473     77.138946
     -2.157157     34.556542     34.556542     69.113085
     -2.147147     30.148745     30.148745     60.297491
     -2.137137     25.913659     25.913659     51.827319
     -2.127127     22.250956     22.250956     44.501912
     -2.117117     19.286902     19.286902     38.573804
     -2.107107     16.883731     16.883731     33.767462
     -2.097097     14.759022     14.759022     29.518043
     -2.087087     12.649170     12.649170     25.298340
     -2.077077     10.431927     10.431927     20.863855
     -2.067067      8.155791      8.155791     16.311583
     -2.057057      5.982112      5.982112     11.964224
     -2.047047      4.089350      4.089350      8.178700
     -2.037037      2.595041      2.595041      5.190083
     -2.027027      1.525704      1.525704      3.051408
     -2.017017      0.831987      0.831987      1.663973
     -2.007007      0.426717      0.426717      0.853435
     -1.996997      0.222937      0.222937      0.445874
     -1.986987      0.159925      0.159925      0.319850
     -1.976977      0.216655      0.216655      0.433310
     -1.966967      0.417404      0.417404      0.834808
     -1.956957      0.832853      0.832853      1.665706
     -1.946947      1.575424      1.575424      3.150848
     -1.936937      2.784212      2.784212      5.568423
     -1.926927      4.595930      4.595930      9.191860
     -1.916917      7.104114      7.104114     14.208228
     -1.906907     10.316101     10.316101     20.632201
     -1.896897     14.120808     14.120808     28.241617
     -1.886887     18.277621     18.277621     36.555242
     -1.876877     22.430860     22.430860     44.861720
     -1.866867     26.151113     26.151113     52.302226
     -1.856857     29.004433     29.004433     58.008867
     -1.846847     30.645403     30.645403     61.290807
     -1.836837     30.913572     30.913572     61.827143
     -1.826827     29.892764     29.892764     59.785529
     -1.816817     27.891312     27.891312     55.782623
     -1.806807     25.333723     25.333723     50.667445
     -1.796797     22.607201     22.607201     45.214403
     -1.786787     19.940835     19.940835     39.881670
     -1.776777     17.379724     17.379724     34.759447
     -1.766767     14.857528     14.857528     29.715056
     -1.756757     12.311449     12.311449     24.622898
     -1.746747      9.766138      9.766138     19.532277
     -1.736737      7.345355      7.345355     14.690711
     -1.726727      5.222637      5.222637     10.445274
     -1.716717      3.555830      3.555830      7.111660
     -1.706707      2.447195      2.447195      4.894391
     -1.696697      1.941971      1.941971      3.883942
     -1.686687      2.048663      2.048663      4.097327
     -1.676677      2.752597      2.752597      5.505195
     -1.666667      4.004040      4.004040      8.008081
     -1.656657      5.684776      5.684776     11.369552
     -1.646647      7.578448      7.578448     15.156896
     -1.636637      9.377160      9.377160     18.754320
     -1.626627     10.742987     10.742987     21.485975
