# EIG2DOS: Utility for SIESTA to obtain the electronic density of states
#  E. Artacho, Apr 1999, A. Garcia, Apr 2012
#  Nick R. Papior, Feb 2017
# ------------------------------------------
# Eigenvalues calculated from a non-polarized calculation
# Eigenvalues read from siesta.EIG
# Kpoint weights read from siesta.KP
# Using smearing parameter:   0.0500
# Using 1000 points in the energy range
# Selected bands: 1 to: 2981
# Emin, Emax in file for selected band(s):    -27.1146408    218.3688740
# Nbands, Nspin, Nk   =   2981     1     1
# E_F                 =    -4.2298 eV --> (shifted to ZERO)
# Broadening          =     0.0500 eV
#
#        E            N(up)  (=)   N(down)         Ntot
     -5.000000     34.878207     34.878207     69.756414
     -4.989990     38.968407     38.968407     77.936814
     -4.979980     42.308290     42.308290     84.616580
     -4.969970     44.361280     44.361280     88.722560
     -4.959960     44.785868     44.785868     89.571736
     -4.949950     43.545630     43.545630     87.091260
     -4.939940     40.930829     40.930829     81.861659
     -4.929930     37.500114     37.500114     75.000228
     -4.919920     33.981029     33.981029     67.962058
     -4.909910     31.163848     31.163848     62.327696
     -4.899900     29.793678     29.793678     59.587356
     -4.889890     30.441521     30.441521     60.883043
     -4.879880     33.345182     33.345182     66.690364
     -4.869870     38.256787     38.256787     76.513574
     -4.859860     44.380581     44.380581     88.761163
     -4.849850     50.484769     50.484769    100.969537
     -4.839840     55.203559     55.203559    110.407119
     -4.829830     57.440656     57.440656    114.881311
     -4.819820     56.710329     56.710329    113.420657
     -4.809810     53.263799     53.263799    106.527598
     -4.799800     47.948536     47.948536     95.897072
     -4.789790     41.877771     41.877771     83.755542
     -4.779780     36.068176     36.068176     72.136352
     -4.769770     31.192545     31.192545     62.385090
     -4.759760     27.511310     27.511310     55.022619
     -4.749750     24.952767     24.952767     49.905534
     -4.739740     23.260192     23.260192     46.520383
     -4.729730     22.127305     22.127305     44.254610
     -4.719720     21.279730     21.279730     42.559460
     -4.709710     20.500011     20.500011     41.000022
     -4.699700     19.621105     19.621105     39.242210
     -4.689690     18.522902     18.522902     37.045804
     -4.679680     17.157190     17.157190     34.314380
     -4.669670     15.601682     15.601682     31.203364
     -4.659660     14.115439     14.115439     28.230878
     -4.649650     13.153532     13.153532     26.307064
     -4.639640     13.307788     13.307788     26.615576
     -4.629630     15.168243     15.168243     30.336486
     -4.619620     19.133434     19.133434     38.266868
     -4.609610     25.225794     25.225794     50.451588
     -4.599600     32.983223     32.983223     65.966445
     -4.589590     41.489481     41.489481     82.978963
     -4.579580     49.565599     49.565599     99.131199
     -4.569570     56.078207     56.078207    112.156413
     -4.559560     60.258741     60.258741    120.517482
     -4.549550     61.909217     61.909217    123.818434
     -4.539540     61.413567     61.413567    122.827135
     -4.529530     59.557053     59.557053    119.114107
     -4.519520     57.233714     57.233714    114.467428
     -4.509510     55.155924     55.155924    110.311847
     -4.499499     53.663966     53.663966    107.327933
     -4.489489     52.685138     52.685138    105.370275
     -4.479479     51.835261     51.835261    103.670522
     -4.469469     50.609038     50.609038    101.218075
     -4.459459     48.581834     48.581834     97.163667
     -4.449449     45.551802     45.551802     91.103604
     -4.439439     41.585410     41.585410     83.170821
     -4.429429     36.975470     36.975470     73.950940
     -4.419419     32.154108     32.154108     64.308216
     -4.409409     27.605901     27.605901     55.211803
     -4.399399     23.801415     23.801415     47.602831
     -4.389389     21.141627     21.141627     42.283254
     -4.379379     19.895178     19.895178     39.790357
     -4.369369     20.130139     20.130139     40.260278
     -4.359359     21.671184     21.671184     43.342368
     -4.349349     24.122548     24.122548     48.245096
     -4.339339     26.972392     26.972392     53.944785
     -4.329329     29.749018     29.749018     59.498037
     -4.319319     32.164985     32.164985     64.329969
     -4.309309     34.185796     34.185796     68.371592
     -4.299299     35.994263     35.994263     71.988526
     -4.289289     37.867028     37.867028     75.734057
     -4.279279     40.011786     40.011786     80.023572
     -4.269269     42.423829     42.423829     84.847657
     -4.259259     44.815052     44.815052     89.630104
     -4.249249     46.652893     46.652893     93.305785
     -4.239239     47.316905     47.316905     94.633811
     -4.229229     46.333170     46.333170     92.666340
     -4.219219     43.596732     43.596732     87.193463
     -4.209209     39.474212     39.474212     78.948424
     -4.199199     34.719899     34.719899     69.439799
     -4.189189     30.228164     30.228164     60.456328
     -4.179179     26.732192     26.732192     53.464384
     -4.169169     24.588028     24.588028     49.176056
     -4.159159     23.735386     23.735386     47.470772
     -4.149149     23.833948     23.833948     47.667897
     -4.139139     24.490643     24.490643     48.981286
     -4.129129     25.459710     25.459710     50.919421
     -4.119119     26.720547     26.720547     53.441095
     -4.109109     28.400777     28.400777     56.801554
     -4.099099     30.587641     30.587641     61.175282
     -4.089089     33.131452     33.131452     66.262904
     -4.079079     35.561413     35.561413     71.122825
     -4.069069     37.187441     37.187441     74.374883
     -4.059059     37.363409     37.363409     74.726818
     -4.049049     35.788227     35.788227     71.576453
     -4.039039     32.686082     32.686082     65.372164
     -4.029029     28.766205     28.766205     57.532411
     -4.019019     24.982763     24.982763     49.965526
     -4.009009     22.220141     22.220141     44.440283
     -3.998999     21.053452     21.053452     42.106903
     -3.988989     21.671459     21.671459     43.342917
     -3.978979     23.949460     23.949460     47.898920
     -3.968969     27.589372     27.589372     55.178745
     -3.958959     32.239894     32.239894     64.479787
     -3.948949     37.557998     37.557998     75.115997
     -3.938939     43.228077     43.228077     86.456155
     -3.928929     48.974924     48.974924     97.949848
     -3.918919     54.584443     54.584443    109.168886
     -3.908909     59.910644     59.910644    119.821289
     -3.898899     64.837288     64.837288    129.674576
     -3.888889     69.191154     69.191154    138.382309
     -3.878879     72.649880     72.649880    145.299761
     -3.868869     74.712765     74.712765    149.425529
     -3.858859     74.784055     74.784055    149.568111
     -3.848849     72.361938     72.361938    144.723876
     -3.838839     67.264565     67.264565    134.529131
     -3.828829     59.792854     59.792854    119.585708
     -3.818819     50.747511     50.747511    101.495023
     -3.808809     41.277190     41.277190     82.554380
     -3.798799     32.605707     32.605707     65.211413
     -3.788789     25.733750     25.733750     51.467500
     -3.778779     21.213989     21.213989     42.427979
     -3.768769     19.062664     19.062664     38.125327
     -3.758759     18.818623     18.818623     37.637246
     -3.748749     19.716948     19.716948     39.433895
     -3.738739     20.921016     20.921016     41.842032
     -3.728729     21.752743     21.752743     43.505485
     -3.718719     21.868025     21.868025     43.736051
     -3.708709     21.337503     21.337503     42.675006
     -3.698699     20.610553     20.610553     41.221105
     -3.688689     20.364703     20.364703     40.729406
     -3.678679     21.273357     21.273357     42.546714
     -3.668669     23.755981     23.755981     47.511961
     -3.658659     27.793712     27.793712     55.587424
     -3.648649     32.883874     32.883874     65.767747
     -3.638639     38.161894     38.161894     76.323788
     -3.628629     42.651470     42.651470     85.302939
     -3.618619     45.546414     45.546414     91.092828
     -3.608609     46.415413     46.415413     92.830826
     -3.598599     45.263842     45.263842     90.527685
     -3.588589     42.458025     42.458025     84.916051
     -3.578579     38.571400     38.571400     77.142801
     -3.568569     34.220903     34.220903     68.441807
     -3.558559     29.935117     29.935117     59.870235
     -3.548549     26.066636     26.066636     52.133272
     -3.538539     22.752238     22.752238     45.504475
     -3.528529     19.928959     19.928959     39.857918
     -3.518519     17.409508     17.409508     34.819016
     -3.508509     14.997468     14.997468     29.994936
     -3.498498     12.597460     12.597460     25.194920
     -3.488488     10.272194     10.272194     20.544388
     -3.478478      8.224079      8.224079     16.448158
     -3.468468      6.716144      6.716144     13.432289
     -3.458458      5.970432      5.970432     11.940864
     -3.448448      6.081902      6.081902     12.163804
     -3.438438      6.971955      6.971955     13.943910
     -3.428428      8.392815      8.392815     16.785630
     -3.418418      9.986092      9.986092     19.972184
     -3.408408     11.388164     11.388164     22.776329
     -3.398398     12.356123     12.356123     24.712247
     -3.388388     12.869202     12.869202     25.738403
     -3.378378     13.159134     13.159134     26.318268
     -3.368368     13.648066     13.648066     27.296131
     -3.358358     14.813135     14.813135     29.626271
     -3.348348     17.027528     17.027528     34.055055
     -3.338338     20.430004     20.430004     40.860008
     -3.328328     24.852973     24.852973     49.705945
     -3.318318     29.815532     29.815532     59.631064
     -3.308308     34.580902     34.580902     69.161804
     -3.298298     38.282349     38.282349     76.564698
     -3.288288     40.114951     40.114951     80.229903
     -3.278278     39.558164     39.558164     79.116328
     -3.268268     36.553633     36.553633     73.107266
     -3.258258     31.553703     31.553703     63.107407
     -3.248248     25.402649     25.402649     50.805299
     -3.238238     19.093874     19.093874     38.187748
     -3.228228     13.507977     13.507977     27.015954
     -3.218218      9.235932      9.235932     18.471863
     -3.208208      6.532792      6.532792     13.065583
     -3.198198      5.375394      5.375394     10.750788
     -3.188188      5.559879      5.559879     11.119759
     -3.178178      6.786826      6.786826     13.573653
     -3.168168      8.721648      8.721648     17.443297
     -3.158158     11.048922     11.048922     22.097843
     -3.148148     13.537922     13.537922     27.075844
     -3.138138     16.107611     16.107611     32.215222
     -3.128128     18.850608     18.850608     37.701217
     -3.118118     21.977160     21.977160     43.954321
     -3.108108     25.679395     25.679395     51.358790
     -3.098098     29.969987     29.969987     59.939974
     -3.088088     34.578674     34.578674     69.157347
     -3.078078     38.969515     38.969515     77.939029
     -3.068068     42.480311     42.480311     84.960622
     -3.058058     44.521276     44.521276     89.042553
     -3.048048     44.742948     44.742948     89.485896
     -3.038038     43.107838     43.107838     86.215676
     -3.028028     39.856909     39.856909     79.713818
     -3.018018     35.413272     35.413272     70.826544
     -3.008008     30.282441     30.282441     60.564881
     -2.997998     24.988429     24.988429     49.976858
     -2.987988     20.048779     20.048779     40.097557
     -2.977978     15.965407     15.965407     31.930815
     -2.967968     13.204337     13.204337     26.408675
     -2.957958     12.150246     12.150246     24.300493
     -2.947948     13.038300     13.038300     26.076600
     -2.937938     15.878301     15.878301     31.756601
     -2.927928     20.395275     20.395275     40.790549
     -2.917918     26.016809     26.016809     52.033619
     -2.907908     31.935119     31.935119     63.870238
     -2.897898     37.252745     37.252745     74.505490
     -2.887888     41.185454     41.185454     82.370908
     -2.877878     43.259316     43.259316     86.518632
     -2.867868     43.424478     43.424478     86.848956
     -2.857858     42.031410     42.031410     84.062820
     -2.847848     39.671566     39.671566     79.343133
     -2.837838     36.947157     36.947157     73.894314
     -2.827828     34.270048     34.270048     68.540097
     -2.817818     31.775818     31.775818     63.551636
     -2.807808     29.380367     29.380367     58.760735
     -2.797798     26.933820     26.933820     53.867639
     -2.787788     24.379561     24.379561     48.759122
     -2.777778     21.831031     21.831031     43.662063
     -2.767768     19.531820     19.531820     39.063641
     -2.757758     17.734548     17.734548     35.469096
     -2.747748     16.579915     16.579915     33.159830
     -2.737738     16.052032     16.052032     32.104064
     -2.727728     16.033049     16.033049     32.066097
     -2.717718     16.412566     16.412566     32.825132
     -2.707708     17.169607     17.169607     34.339215
     -2.697698     18.364056     18.364056     36.728113
     -2.687688     20.040077     20.040077     40.080153
     -2.677678     22.111959     22.111959     44.223917
     -2.667668     24.323612     24.323612     48.647224
     -2.657658     26.327426     26.327426     52.654852
     -2.647648     27.844859     27.844859     55.689718
     -2.637638     28.808808     28.808808     57.617616
     -2.627628     29.393626     29.393626     58.787252
     -2.617618     29.910890     29.910890     59.821780
     -2.607608     30.636068     30.636068     61.272137
     -2.597598     31.669892     31.669892     63.339785
     -2.587588     32.903579     32.903579     65.807158
     -2.577578     34.081379     34.081379     68.162758
     -2.567568     34.898513     34.898513     69.797026
     -2.557558     35.075838     35.075838     70.151677
     -2.547548     34.399746     34.399746     68.799491
     -2.537538     32.756502     32.756502     65.513005
     -2.527528     30.186534     30.186534     60.373069
     -2.517518     26.943457     26.943457     53.886915
     -2.507508     23.507476     23.507476     47.014952
     -2.497497     20.509333     20.509333     41.018666
     -2.487487     18.568215     18.568215     37.136431
     -2.477477     18.101126     18.101126     36.202251
     -2.467467     19.185753     19.185753     38.371506
     -2.457457     21.540247     21.540247     43.080493
     -2.447447     24.633329     24.633329     49.266657
     -2.437437     27.881578     27.881578     55.763156
     -2.427427     30.851817     30.851817     61.703634
     -2.417417     33.381775     33.381775     66.763551
     -2.407407     35.565479     35.565479     71.130958
     -2.397397     37.609380     37.609380     75.218759
     -2.387387     39.626611     39.626611     79.253222
     -2.377377     41.471935     41.471935     82.943871
     -2.367367     42.709277     42.709277     85.418553
     -2.357357     42.745998     42.745998     85.491996
     -2.347347     41.085477     41.085477     82.170954
     -2.337337     37.583259     37.583259     75.166518
     -2.327327     32.582265     32.582265     65.164530
     -2.317317     26.860329     26.860329     53.720659
     -2.307307     21.416754     21.416754     42.833508
     -2.297297     17.197249     17.197249     34.394498
     -2.287287     14.868400     14.868400     29.736801
     -2.277277     14.707576     14.707576     29.415151
     -2.267267     16.610783     16.610783     33.221565
     -2.257257     20.178711     20.178711     40.357421
     -2.247247     24.832741     24.832741     49.665481
     -2.237237     29.925774     29.925774     59.851548
     -2.227227     34.829403     34.829403     69.658806
     -2.217217     38.991465     38.991465     77.982929
     -2.207207     41.968222     41.968222     83.936445
     -2.197197     43.444728     43.444728     86.889456
     -2.187187     43.260093     43.260093     86.520186
     -2.177177     41.443906     41.443906     82.887812
     -2.167167     38.247099     38.247099     76.494198
     -2.157157     34.131049     34.131049     68.262097
     -2.147147     29.683976     29.683976     59.367952
     -2.137137     25.470764     25.470764     50.941527
     -2.127127     21.870895     21.870895     43.741789
     -2.117117     18.982341     18.982341     37.964682
     -2.107107     16.643165     16.643165     33.286331
     -2.097097     14.559477     14.559477     29.118955
     -2.087087     12.470010     12.470010     24.940020
     -2.077077     10.263170     10.263170     20.526339
     -2.067067      7.998634      7.998634     15.997267
     -2.057057      5.843890      5.843890     11.687781
     -2.047047      3.977242      3.977242      7.954485
     -2.037037      2.511987      2.511987      5.023975
     -2.027027      1.469650      1.469650      2.939300
     -2.017017      0.797503      0.797503      1.595007
     -2.007007      0.407313      0.407313      0.814626
     -1.996997      0.212765      0.212765      0.425531
     -1.986987      0.154360      0.154360      0.308721
     -1.976977      0.211680      0.211680      0.423360
     -1.966967      0.407665      0.407665      0.815330
     -1.956957      0.807677      0.807677      1.615354
     -1.946947      1.511382      1.511382      3.022763
     -1.936937      2.632523      2.632523      5.265046
     -1.926927      4.264185      4.264185      8.528370
     -1.916917      6.435515      6.435515     12.871031
     -1.906907      9.076004      9.076004     18.152008
     -1.896897     12.007502     12.007502     24.015004
     -1.886887     14.976359     14.976359     29.952718
     -1.876877     17.719958     17.719958     35.439917
     -1.866867     20.043408     20.043408     40.086816
     -1.856857     21.874407     21.874407     43.748814
     -1.846847     23.271435     23.271435     46.542870
     -1.836837     24.377961     24.377961     48.755921
     -1.826827     25.335994     25.335994     50.671987
     -1.816817     26.190824     26.190824     52.381649
     -1.806807     26.829743     26.829743     53.659485
     -1.796797     26.992342     26.992342     53.984684
     -1.786787     26.362269     26.362269     52.724538
     -1.776777     24.707793     24.707793     49.415586
     -1.766767     22.005755     22.005755     44.011510
     -1.756757     18.485526     18.485526     36.971051
     -1.746747     14.570171     14.570171     29.140342
     -1.736737     10.746519     10.746519     21.493039
     -1.726727      7.429391      7.429391     14.858782
     -1.716717      4.879026      4.879026      9.758052
     -1.706707      3.193734      3.193734      6.387468
     -1.696697      2.358302      2.358302      4.716603
     -1.686687      2.305905      2.305905      4.611810
     -1.676677      2.954690      2.954690      5.909381
     -1.666667      4.202702      4.202702      8.405404
     -1.656657      5.893115      5.893115     11.786230
     -1.646647      7.782471      7.782471     15.564942
     -1.636637      9.547718      9.547718     19.095435
     -1.626627     10.849734     10.849734     21.699467
