# EIG2DOS: Utility for SIESTA to obtain the electronic density of states
#  E. Artacho, Apr 1999, A. Garcia, Apr 2012
#  Nick R. Papior, Feb 2017
# ------------------------------------------
# Eigenvalues calculated from a non-polarized calculation
# Eigenvalues read from siesta.EIG
# Kpoint weights read from siesta.KP
# Using smearing parameter:   0.0500
# Using 1000 points in the energy range
# Selected bands: 1 to: 2981
# Emin, Emax in file for selected band(s):    -27.2390786    218.3572500
# Nbands, Nspin, Nk   =   2981     1     1
# E_F                 =    -4.2461 eV --> (shifted to ZERO)
# Broadening          =     0.0500 eV
#
#        E            N(up)  (=)   N(down)         Ntot
     -5.000000     35.006220     35.006220     70.012440
     -4.989990     38.780564     38.780564     77.561127
     -4.979980     41.796378     41.796378     83.592755
     -4.969970     43.607761     43.607761     87.215522
     -4.959960     43.936645     43.936645     87.873290
     -4.949950     42.760819     42.760819     85.521638
     -4.939940     40.334131     40.334131     80.668263
     -4.929930     37.145993     37.145993     74.291986
     -4.919920     33.848746     33.848746     67.697491
     -4.909910     31.175943     31.175943     62.351885
     -4.899900     29.849681     29.849681     59.699362
     -4.889890     30.455910     30.455910     60.911820
     -4.879880     33.278790     33.278790     66.557581
     -4.869870     38.131493     38.131493     76.262987
     -4.859860     44.270243     44.270243     88.540486
     -4.849850     50.483483     50.483483    100.966966
     -4.839840     55.383286     55.383286    110.766571
     -4.829830     57.817189     57.817189    115.634378
     -4.819820     57.233527     57.233527    114.467054
     -4.809810     53.835527     53.835527    107.671053
     -4.799800     48.457924     48.457924     96.915848
     -4.789790     42.236860     42.236860     84.473721
     -4.779780     36.234574     36.234574     72.469149
     -4.769770     31.174771     31.174771     62.349543
     -4.759760     27.360043     27.360043     54.720086
     -4.749750     24.743861     24.743861     49.487723
     -4.739740     23.074761     23.074761     46.149522
     -4.729730     22.033759     22.033759     44.067518
     -4.719720     21.323409     21.323409     42.646817
     -4.709710     20.706131     20.706131     41.412263
     -4.699700     20.013798     20.013798     40.027597
     -4.689690     19.157187     19.157187     38.314373
     -4.679680     18.153813     18.153813     36.307626
     -4.669670     17.169421     17.169421     34.338842
     -4.659660     16.543829     16.543829     33.087657
     -4.649650     16.763409     16.763409     33.526818
     -4.639640     18.359708     18.359708     36.719416
     -4.629630     21.748299     21.748299     43.496599
     -4.619620     27.054139     27.054139     54.108278
     -4.609610     33.983857     33.983857     67.967713
     -4.599600     41.798804     41.798804     83.597608
     -4.589590     49.419899     49.419899     98.839799
     -4.579580     55.659637     55.659637    111.319274
     -4.569570     59.531366     59.531366    119.062732
     -4.559560     60.543311     60.543311    121.086622
     -4.549550     58.868154     58.868154    117.736308
     -4.539540     55.308670     55.308670    110.617340
     -4.529530     51.053599     51.053599    102.107198
     -4.519520     47.304464     47.304464     94.608927
     -4.509510     44.909896     44.909896     89.819792
     -4.499499     44.140032     44.140032     88.280064
     -4.489489     44.672107     44.672107     89.344215
     -4.479479     45.770820     45.770820     91.541640
     -4.469469     46.574832     46.574832     93.149664
     -4.459459     46.374287     46.374287     92.748575
     -4.449449     44.788847     44.788847     89.577694
     -4.439439     41.812710     41.812710     83.625420
     -4.429429     37.751236     37.751236     75.502472
     -4.419419     33.106017     33.106017     66.212033
     -4.409409     28.461274     28.461274     56.922549
     -4.399399     24.394652     24.394652     48.789304
     -4.389389     21.404533     21.404533     42.809065
     -4.379379     19.837008     19.837008     39.674016
     -4.369369     19.813548     19.813548     39.627096
     -4.359359     21.187675     21.187675     42.375350
     -4.349349     23.568519     23.568519     47.137037
     -4.339339     26.426696     26.426696     52.853392
     -4.329329     29.254869     29.254869     58.509739
     -4.319319     31.720742     31.720742     63.441483
     -4.309309     33.748532     33.748532     67.497064
     -4.299299     35.497158     35.497158     70.994317
     -4.289289     37.247966     37.247966     74.495932
     -4.279279     39.246891     39.246891     78.493781
     -4.269269     41.556030     41.556030     83.112061
     -4.259259     43.964927     43.964927     87.929854
     -4.249249     46.000632     46.000632     92.001265
     -4.239239     47.053680     47.053680     94.107359
     -4.229229     46.595721     46.595721     93.191443
     -4.219219     44.411937     44.411937     88.823874
     -4.209209     40.740133     40.740133     81.480266
     -4.199199     36.233715     36.233715     72.467430
     -4.189189     31.748294     31.748294     63.496588
     -4.179179     28.046372     28.046372     56.092744
     -4.169169     25.559911     25.559911     51.119822
     -4.159159     24.316542     24.316542     48.633085
     -4.149149     24.045435     24.045435     48.090871
     -4.139139     24.389460     24.389460     48.778919
     -4.129129     25.107778     25.107778     50.215556
     -4.119119     26.169394     26.169394     52.338789
     -4.109109     27.696571     27.696571     55.393142
     -4.099099     29.790739     29.790739     59.581478
     -4.089089     32.335678     32.335678     64.671357
     -4.079079     34.896109     34.896109     69.792218
     -4.069069     36.793518     36.793518     73.587036
     -4.059059     37.350243     37.350243     74.700486
     -4.049049     36.191682     36.191682     72.383365
     -4.039039     33.449409     33.449409     66.898818
     -4.029029     29.753379     29.753379     59.506759
     -4.019019     26.016395     26.016395     52.032789
     -4.009009     23.125345     23.125345     46.250690
     -3.998999     21.690952     21.690952     43.381904
     -3.988989     21.953692     21.953692     43.907384
     -3.978979     23.843157     23.843157     47.686314
     -3.968969     27.110825     27.110825     54.221651
     -3.958959     31.445732     31.445732     62.891464
     -3.948949     36.530602     36.530602     73.061204
     -3.938939     42.055454     42.055454     84.110909
     -3.928929     47.729795     47.729795     95.459590
     -3.918919     53.311817     53.311817    106.623635
     -3.908909     58.632337     58.632337    117.264675
     -3.898899     63.574165     63.574165    127.148330
     -3.888889     67.993039     67.993039    135.986079
     -3.878879     71.615736     71.615736    143.231473
     -3.868869     73.985500     73.985500    147.971000
     -3.858859     74.515668     74.515668    149.031335
     -3.848849     72.660293     72.660293    145.320586
     -3.838839     68.144384     68.144384    136.288767
     -3.828829     61.153745     61.153745    122.307491
     -3.818819     52.390578     52.390578    104.781155
     -3.808809     42.954735     42.954735     85.909470
     -3.798799     34.084996     34.084996     68.169992
     -3.788789     26.851930     26.851930     53.703859
     -3.778779     21.907620     21.907620     43.815240
     -3.768769     19.366859     19.366859     38.733719
     -3.758759     18.841230     18.841230     37.682461
     -3.748749     19.598849     19.598849     39.197698
     -3.738739     20.794395     20.794395     41.588789
     -3.728729     21.707034     21.707034     43.414068
     -3.718719     21.930187     21.930187     43.860373
     -3.708709     21.470012     21.470012     42.940023
     -3.698699     20.727173     20.727173     41.454347
     -3.688689     20.360357     20.360357     40.720715
     -3.678679     21.060555     21.060555     42.121109
     -3.668669     23.297298     23.297298     46.594597
     -3.658659     27.119452     27.119452     54.238905
     -3.648649     32.087938     32.087938     64.175876
     -3.638639     37.376760     37.376760     74.753520
     -3.628629     42.011797     42.011797     84.023594
     -3.618619     45.155386     45.155386     90.310771
     -3.608609     46.325326     46.325326     92.650652
     -3.598599     45.474275     45.474275     90.948551
     -3.588589     42.926634     42.926634     85.853268
     -3.578579     39.229296     39.229296     78.458592
     -3.568569     34.987202     34.987202     69.974405
     -3.558559     30.729670     30.729670     61.459340
     -3.548549     26.821631     26.821631     53.643262
     -3.538539     23.421642     23.421642     46.843284
     -3.528529     20.492618     20.492618     40.985235
     -3.518519     17.869471     17.869471     35.738942
     -3.508509     15.367787     15.367787     30.735573
     -3.498498     12.892277     12.892277     25.784553
     -3.488488     10.497584     10.497584     20.995169
     -3.478478      8.376549      8.376549     16.753099
     -3.468468      6.787145      6.787145     13.574289
     -3.458458      5.954026      5.954026     11.908052
     -3.448448      5.982316      5.982316     11.964632
     -3.438438      6.808180      6.808180     13.616361
     -3.428428      8.198027      8.198027     16.396054
     -3.418418      9.800671      9.800671     19.601342
     -3.408408     11.247299     11.247299     22.494598
     -3.398398     12.275926     12.275926     24.551853
     -3.388388     12.837167     12.837167     25.674334
     -3.378378     13.133914     13.133914     26.267829
     -3.368368     13.570069     13.570069     27.140138
     -3.358358     14.623804     14.623804     29.247609
     -3.348348     16.693951     16.693951     33.387902
     -3.338338     19.972919     19.972919     39.945838
     -3.328328     24.377332     24.377332     48.754664
     -3.318318     29.539905     29.539905     59.079810
     -3.308308     34.854606     34.854606     69.709212
     -3.298298     39.572033     39.572033     79.144066
     -3.288288     42.943171     42.943171     85.886341
     -3.278278     44.390394     44.390394     88.780788
     -3.268268     43.654565     43.654565     87.309129
     -3.258258     40.857425     40.857425     81.714851
     -3.248248     36.449960     36.449960     72.899920
     -3.238238     31.074157     31.074157     62.148313
     -3.228228     25.405909     25.405909     50.811819
     -3.218218     20.041313     20.041313     40.082626
     -3.208208     15.446735     15.446735     30.893470
     -3.198198     11.951335     11.951335     23.902670
     -3.188188      9.748310      9.748310     19.496620
     -3.178178      8.888647      8.888647     17.777294
     -3.168168      9.277348      9.277348     18.554696
     -3.158158     10.694970     10.694970     21.389939
     -3.148148     12.857691     12.857691     25.715381
     -3.138138     15.502726     15.502726     31.005452
     -3.128128     18.459354     18.459354     36.918707
     -3.118118     21.659957     21.659957     43.319914
     -3.108108     25.072517     25.072517     50.145033
     -3.098098     28.586284     28.586284     57.172569
     -3.088088     31.923605     31.923605     63.847210
     -3.078078     34.648450     34.648450     69.296901
     -3.068068     36.288329     36.288329     72.576659
     -3.058058     36.512317     36.512317     73.024634
     -3.048048     35.265678     35.265678     70.531356
     -3.038038     32.784045     32.784045     65.568091
     -3.028028     29.484390     29.484390     58.968779
     -3.018018     25.804629     25.804629     51.609257
     -3.008008     22.087276     22.087276     44.174553
     -2.997998     18.562453     18.562453     37.124906
     -2.987988     15.415373     15.415373     30.830747
     -2.977978     12.873562     12.873562     25.747123
     -2.967968     11.247484     11.247484     22.494967
     -2.957958     10.894753     10.894753     21.789505
     -2.947948     12.121076     12.121076     24.242152
     -2.937938     15.056966     15.056966     30.113931
     -2.927928     19.555238     19.555238     39.110476
     -2.917918     25.149249     25.149249     50.298498
     -2.907908     31.099869     31.099869     62.199739
     -2.897898     36.536749     36.536749     73.073497
     -2.887888     40.664993     40.664993     81.329986
     -2.877878     42.973208     42.973208     85.946417
     -2.867868     43.363784     43.363784     86.727567
     -2.857858     42.147375     42.147375     84.294750
     -2.847848     39.897695     39.897695     79.795389
     -2.837838     37.225689     37.225689     74.451378
     -2.827828     34.570876     34.570876     69.141751
     -2.817818     32.099153     32.099153     64.198306
     -2.807808     29.742632     29.742632     59.485264
     -2.797798     27.345248     27.345248     54.690497
     -2.787788     24.826577     24.826577     49.653155
     -2.777778     22.273421     22.273421     44.546842
     -2.767768     19.915530     19.915530     39.831061
     -2.757758     18.011195     18.011195     36.022390
     -2.747748     16.720059     16.720059     33.440117
     -2.737738     16.043959     16.043959     32.087919
     -2.727728     15.869584     15.869584     31.739169
     -2.717718     16.078256     16.078256     32.156512
     -2.707708     16.642241     16.642241     33.284481
     -2.697698     17.635329     17.635329     35.270658
     -2.687688     19.145132     19.145132     38.290264
     -2.677678     21.146823     21.146823     42.293647
     -2.667668     23.432295     23.432295     46.864589
     -2.657658     25.657369     25.657369     51.314738
     -2.647648     27.490571     27.490571     54.981141
     -2.637638     28.773955     28.773955     57.547910
     -2.627628     29.592903     29.592903     59.185806
     -2.617618     30.209838     30.209838     60.419676
     -2.607608     30.905765     30.905765     61.811531
     -2.597598     31.828793     31.828793     63.657586
     -2.587588     32.932068     32.932068     65.864137
     -2.577578     34.013379     34.013379     68.026757
     -2.567568     34.803885     34.803885     69.607770
     -2.557558     35.042836     35.042836     70.085673
     -2.547548     34.516761     34.516761     69.033522
     -2.537538     33.088706     33.088706     66.177411
     -2.527528     30.749451     30.749451     61.498901
     -2.517518     27.684786     27.684786     55.369572
     -2.507508     24.310236     24.310236     48.620473
     -2.497497     21.220402     21.220402     42.440805
     -2.487487     19.042737     19.042737     38.085474
     -2.477477     18.244692     18.244692     36.489383
     -2.467467     18.977778     18.977778     37.955556
     -2.457457     21.031325     21.031325     42.062651
     -2.447447     23.920618     23.920618     47.841236
     -2.437437     27.074129     27.074129     54.148258
     -2.427427     30.039973     30.039973     60.079946
     -2.417417     32.621583     32.621583     65.243165
     -2.407407     34.882251     34.882251     69.764503
     -2.397397     37.016659     37.016659     74.033318
     -2.387387     39.150279     39.150279     78.300557
     -2.377377     41.166261     41.166261     82.332523
     -2.367367     42.653979     42.653979     85.307958
     -2.357357     43.021421     43.021421     86.042842
     -2.347347     41.734655     41.734655     83.469310
     -2.337337     38.578971     38.578971     77.157942
     -2.327327     33.817427     33.817427     67.634853
     -2.317317     28.169136     28.169136     56.338272
     -2.307307     22.617852     22.617852     45.235703
     -2.297297     18.139252     18.139252     36.278503
     -2.287287     15.459056     15.459056     30.918113
     -2.277277     14.918888     14.918888     29.837777
     -2.267267     16.465257     16.465257     32.930514
     -2.257257     19.728985     19.728985     39.457971
     -2.247247     24.145962     24.145962     48.291924
     -2.237237     29.077877     29.077877     58.155754
     -2.227227     33.907311     33.907311     67.814622
     -2.217217     38.096398     38.096398     76.192796
     -2.207207     41.212382     41.212382     82.424763
     -2.197197     42.936788     42.936788     85.873576
     -2.187187     43.081115     43.081115     86.162230
     -2.177177     41.621998     41.621998     83.243996
     -2.167167     38.743010     38.743010     77.486019
     -2.157157     34.844781     34.844781     69.689562
     -2.147147     30.483895     30.483895     60.967789
     -2.137137     26.235175     26.235175     52.470350
     -2.127127     22.524283     22.524283     45.048566
     -2.117117     19.510041     19.510041     39.020082
     -2.107107     17.079242     17.079242     34.158484
     -2.097097     14.956576     14.956576     29.913152
     -2.087087     12.868242     12.868242     25.736484
     -2.077077     10.672984     10.672984     21.345968
     -2.067067      8.402567      8.402567     16.805134
     -2.057057      6.211342      6.211342     12.422684
     -2.047047      4.281410      4.281410      8.562820
     -2.037037      2.740304      2.740304      5.480608
     -2.027027      1.625101      1.625101      3.250203
     -2.017017      0.893494      0.893494      1.786988
     -2.007007      0.460621      0.460621      0.921241
     -1.996997      0.237982      0.237982      0.475963
     -1.986987      0.160977      0.160977      0.321954
     -1.976977      0.203395      0.203395      0.406791
     -1.966967      0.383215      0.383215      0.766429
     -1.956957      0.763260      0.763260      1.526520
     -1.946947      1.445884      1.445884      2.891767
     -1.936937      2.557482      2.557482      5.114964
     -1.926927      4.219934      4.219934      8.439867
     -1.916917      6.512478      6.512478     13.024956
     -1.906907      9.435269      9.435269     18.870538
     -1.896897     12.888442     12.888442     25.776885
     -1.886887     16.674192     16.674192     33.348384
     -1.876877     20.518104     20.518104     41.036208
     -1.866867     24.099885     24.099885     48.199771
     -1.856857     27.088696     27.088696     54.177392
     -1.846847     29.187824     29.187824     58.375647
     -1.836837     30.192480     30.192480     60.384960
     -1.826827     30.047186     30.047186     60.094372
     -1.816817     28.870325     28.870325     57.740650
     -1.806807     26.917416     26.917416     53.834832
     -1.796797     24.488673     24.488673     48.977346
     -1.786787     21.827175     21.827175     43.654351
     -1.776777     19.065425     19.065425     38.130850
     -1.766767     16.246480     16.246480     32.492960
     -1.756757     13.394768     13.394768     26.789537
     -1.746747     10.581651     10.581651     21.163301
     -1.736737      7.943092      7.943092     15.886184
     -1.726727      5.646907      5.646907     11.293814
     -1.716717      3.841169      3.841169      7.682338
     -1.706707      2.620303      2.620303      5.240606
     -1.696697      2.023891      2.023891      4.047783
     -1.686687      2.055918      2.055918      4.111836
     -1.676677      2.698630      2.698630      5.397260
     -1.666667      3.902125      3.902125      7.804251
     -1.656657      5.551704      5.551704     11.103408
     -1.646647      7.436734      7.436734     14.873468
     -1.636637      9.253464      9.253464     18.506928
     -1.626627     10.662178     10.662178     21.324356
