# EIG2DOS: Utility for SIESTA to obtain the electronic density of states
#  E. Artacho, Apr 1999, A. Garcia, Apr 2012
#  Nick R. Papior, Feb 2017
# ------------------------------------------
# Eigenvalues calculated from a non-polarized calculation
# Eigenvalues read from siesta.EIG
# Kpoint weights read from siesta.KP
# Using smearing parameter:   0.0500
# Using 1000 points in the energy range
# Selected bands: 1 to: 2981
# Emin, Emax in file for selected band(s):    -27.1526948    218.3708720
# Nbands, Nspin, Nk   =   2981     1     1
# E_F                 =    -4.2291 eV --> (shifted to ZERO)
# Broadening          =     0.0500 eV
#
#        E            N(up)  (=)   N(down)         Ntot
     -5.000000     33.089629     33.089629     66.179259
     -4.989990     37.403970     37.403970     74.807940
     -4.979980     41.238458     41.238458     82.476916
     -4.969970     43.983568     43.983568     87.967136
     -4.959960     45.156869     45.156869     90.313738
     -4.949950     44.561706     44.561706     89.123413
     -4.939940     42.362072     42.362072     84.724143
     -4.929930     39.056643     39.056643     78.113285
     -4.919920     35.380160     35.380160     70.760320
     -4.909910     32.176052     32.176052     64.352104
     -4.899900     30.265179     30.265179     60.530358
     -4.889890     30.305883     30.305883     60.611766
     -4.879880     32.635225     32.635225     65.270449
     -4.869870     37.114480     37.114480     74.228959
     -4.859860     43.049249     43.049249     86.098498
     -4.849850     49.268056     49.268056     98.536113
     -4.839840     54.391906     54.391906    108.783812
     -4.829830     57.228378     57.228378    114.456756
     -4.819820     57.138602     57.138602    114.277204
     -4.809810     54.216513     54.216513    108.433026
     -4.799800     49.203016     49.203016     98.406033
     -4.789790     43.186171     43.186171     86.372343
     -4.779780     37.233904     37.233904     74.467807
     -4.769770     32.114239     32.114239     64.228477
     -4.759760     28.186381     28.186381     56.372762
     -4.749750     25.450003     25.450003     50.900005
     -4.739740     23.678421     23.678421     47.356841
     -4.729730     22.555636     22.555636     45.111272
     -4.719720     21.769745     21.769745     43.539491
     -4.709710     21.055172     21.055172     42.110345
     -4.699700     20.203535     20.203535     40.407070
     -4.689690     19.072298     19.072298     38.144597
     -4.679680     17.612634     17.612634     35.225268
     -4.669670     15.917341     15.917341     31.834682
     -4.659660     14.266508     14.266508     28.533017
     -4.649650     13.136523     13.136523     26.273046
     -4.639640     13.144636     13.144636     26.289272
     -4.629630     14.922252     14.922252     29.844503
     -4.619620     18.935138     18.935138     37.870276
     -4.609610     25.291579     25.291579     50.583158
     -4.599600     33.598142     33.598142     67.196284
     -4.589590     42.930785     42.930785     85.861570
     -4.579580     51.972340     51.972340    103.944679
     -4.569570     59.315683     59.315683    118.631365
     -4.559560     63.856555     63.856555    127.713109
     -4.549550     65.137563     65.137563    130.275126
     -4.539540     63.497798     63.497798    126.995596
     -4.529530     59.948577     59.948577    119.897154
     -4.519520     55.810892     55.810892    111.621784
     -4.509510     52.257404     52.257404    104.514809
     -4.499499     49.944183     49.944183     99.888367
     -4.489489     48.871599     48.871599     97.743198
     -4.479479     48.504768     48.504768     97.009537
     -4.469469     48.070025     48.070025     96.140049
     -4.459459     46.881883     46.881883     93.763766
     -4.449449     44.568833     44.568833     89.137665
     -4.439439     41.137558     41.137558     82.275117
     -4.429429     36.898826     36.898826     73.797653
     -4.419419     32.330159     32.330159     64.660317
     -4.409409     27.950259     27.950259     55.900518
     -4.399399     24.239562     24.239562     48.479124
     -4.389389     21.594348     21.594348     43.188696
     -4.379379     20.282458     20.282458     40.564915
     -4.369369     20.387193     20.387193     40.774385
     -4.359359     21.762456     21.762456     43.524912
     -4.349349     24.042201     24.042201     48.084403
     -4.339339     26.730115     26.730115     53.460231
     -4.329329     29.350755     29.350755     58.701509
     -4.319319     31.602679     31.602679     63.205359
     -4.309309     33.445633     33.445633     66.891266
     -4.299299     35.081671     35.081671     70.163342
     -4.289289     36.835314     36.835314     73.670628
     -4.279279     38.976366     38.976366     77.952732
     -4.269269     41.549171     41.549171     83.098343
     -4.259259     44.274425     44.274425     88.548849
     -4.249249     46.575021     46.575021     93.150042
     -4.239239     47.741042     47.741042     95.482084
     -4.229229     47.191073     47.191073     94.382147
     -4.219219     44.728621     44.728621     89.457242
     -4.209209     40.672053     40.672053     81.344105
     -4.199199     35.781759     35.781759     71.563518
     -4.189189     31.005378     31.005378     62.010755
     -4.179179     27.156125     27.156125     54.312250
     -4.169169     24.671777     24.671777     49.343555
     -4.159159     23.553644     23.553644     47.107289
     -4.149149     23.489110     23.489110     46.978220
     -4.139139     24.075418     24.075418     48.150836
     -4.129129     25.027581     25.027581     50.055162
     -4.119119     26.275184     26.275184     52.550369
     -4.109109     27.911388     27.911388     55.822777
     -4.099099     30.026775     30.026775     60.053551
     -4.089089     32.517895     32.517895     65.035790
     -4.079079     34.982461     34.982461     69.964922
     -4.069069     36.781291     36.781291     73.562582
     -4.059059     37.263952     37.263952     74.527904
     -4.049049     36.059042     36.059042     72.118084
     -4.039039     33.280501     33.280501     66.561002
     -4.029029     29.537195     29.537195     59.074389
     -4.019019     25.737764     25.737764     51.475527
     -4.009009     22.790992     22.790992     45.581984
     -3.998999     21.346167     21.346167     42.692334
     -3.988989     21.676400     21.676400     43.352800
     -3.978979     23.716664     23.716664     47.433327
     -3.968969     27.190211     27.190211     54.380422
     -3.958959     31.736500     31.736500     63.473000
     -3.948949     36.989892     36.989892     73.979784
     -3.938939     42.612455     42.612455     85.224911
     -3.928929     48.312409     48.312409     96.624817
     -3.918919     53.866415     53.866415    107.732831
     -3.908909     59.130583     59.130583    118.261165
     -3.898899     64.008932     64.008932    128.017865
     -3.888889     68.369384     68.369384    136.738768
     -3.878879     71.941984     71.941984    143.883969
     -3.868869     74.266729     74.266729    148.533458
     -3.858859     74.750007     74.750007    149.500014
     -3.848849     72.838259     72.838259    145.676518
     -3.838839     68.251572     68.251572    136.503144
     -3.828829     61.176343     61.176343    122.352687
     -3.818819     52.321555     52.321555    104.643110
     -3.808809     42.797829     42.797829     85.595659
     -3.798799     33.854783     33.854783     67.709566
     -3.788789     26.570691     26.570691     53.141382
     -3.778779     21.601389     21.601389     43.202779
     -3.768769     19.062623     19.062623     38.125247
     -3.758759     18.565288     18.565288     37.130575
     -3.748749     19.374723     19.374723     38.749445
     -3.738739     20.638899     20.638899     41.277798
     -3.728729     21.624941     21.624941     43.249881
     -3.718719     21.909997     21.909997     43.819995
     -3.708709     21.484094     21.484094     42.968189
     -3.698699     20.738327     20.738327     41.476653
     -3.688689     20.334104     20.334104     40.668207
     -3.678679     20.979232     20.979232     41.958463
     -3.668669     23.169860     23.169860     46.339720
     -3.658659     26.981411     26.981411     53.962822
     -3.648649     31.989657     31.989657     63.979314
     -3.638639     37.364038     37.364038     74.728076
     -3.628629     42.107171     42.107171     84.214342
     -3.618619     45.348752     45.348752     90.697504
     -3.608609     46.577788     46.577788     93.155576
     -3.598599     45.732415     45.732415     91.464831
     -3.588589     43.139950     43.139950     86.279901
     -3.578579     39.363697     39.363697     78.727393
     -3.568569     35.031167     35.031167     70.062335
     -3.558559     30.693656     30.693656     61.387312
     -3.548549     26.733059     26.733059     53.466118
     -3.538539     23.317328     23.317328     46.634657
     -3.528529     20.409656     20.409656     40.819312
     -3.518519     17.835769     17.835769     35.671539
     -3.508509     15.394483     15.394483     30.788966
     -3.498498     12.970639     12.970639     25.941277
     -3.488488     10.601767     10.601767     21.203534
     -3.478478      8.471313      8.471313     16.942626
     -3.468468      6.837902      6.837902     13.675804
     -3.458458      5.936372      5.936372     11.872744
     -3.448448      5.889079      5.889079     11.778158
     -3.438438      6.652815      6.652815     13.305630
     -3.428428      8.013275      8.013275     16.026550
     -3.418418      9.631601      9.631601     19.263203
     -3.408408     11.139129     11.139129     22.278258
     -3.398398     12.259392     12.259392     24.518783
     -3.388388     12.916091     12.916091     25.832182
     -3.378378     13.279291     13.279291     26.558581
     -3.368368     13.722337     13.722337     27.444674
     -3.358358     14.701680     14.701680     29.403360
     -3.348348     16.605989     16.605989     33.211978
     -3.338338     19.627187     19.627187     39.254375
     -3.328328     23.684200     23.684200     47.368401
     -3.318318     28.403334     28.403334     56.806668
     -3.308308     33.151128     33.151128     66.302255
     -3.298298     37.126436     37.126436     74.252873
     -3.288288     39.522990     39.522990     79.045981
     -3.278278     39.747353     39.747353     79.494706
     -3.268268     37.627929     37.627929     75.255859
     -3.258258     33.519445     33.519445     67.038889
     -3.248248     28.232616     28.232616     56.465231
     -3.238238     22.796941     22.796941     45.593882
     -3.228228     18.147731     18.147731     36.295462
     -3.218218     14.863357     14.863357     29.726714
     -3.208208     13.048444     13.048444     26.096887
     -3.198198     12.389470     12.389470     24.778940
     -3.188188     12.342220     12.342220     24.684440
     -3.178178     12.372179     12.372179     24.744359
     -3.168168     12.163881     12.163881     24.327763
     -3.158158     11.735867     11.735867     23.471733
     -3.148148     11.433678     11.433678     22.867356
     -3.138138     11.811783     11.811783     23.623565
     -3.128128     13.444055     13.444055     26.888111
     -3.118118     16.715381     16.715381     33.430762
     -3.108108     21.648033     21.648033     43.296067
     -3.098098     27.812837     27.812837     55.625675
     -3.088088     34.365672     34.365672     68.731343
     -3.078078     40.223659     40.223659     80.447318
     -3.068068     44.346324     44.346324     88.692648
     -3.058058     46.030939     46.030939     92.061879
     -3.048048     45.104772     45.104772     90.209544
     -3.038038     41.930712     41.930712     83.861424
     -3.028028     37.230056     37.230056     74.460111
     -3.018018     31.817528     31.817528     63.635055
     -3.008008     26.379648     26.379648     52.759296
     -2.997998     21.385489     21.385489     42.770978
     -2.987988     17.131265     17.131265     34.262529
     -2.977978     13.847649     13.847649     27.695298
     -2.967968     11.782386     11.782386     23.564771
     -2.957958     11.206183     11.206183     22.412366
     -2.947948     12.342048     12.342048     24.684095
     -2.937938     15.255153     15.255153     30.510307
     -2.927928     19.753179     19.753179     39.506358
     -2.917918     25.343048     25.343048     50.686095
     -2.907908     31.275548     31.275548     62.551096
     -2.897898     36.683771     36.683771     73.367542
     -2.887888     40.785342     40.785342     81.570683
     -2.877878     43.083728     43.083728     86.167456
     -2.867868     43.490566     43.490566     86.981131
     -2.857858     42.313690     42.313690     84.627381
     -2.847848     40.110130     40.110130     80.220261
     -2.837838     37.464846     37.464846     74.929692
     -2.827828     34.791868     34.791868     69.583735
     -2.817818     32.243164     32.243164     64.486327
     -2.807808     29.755666     29.755666     59.511333
     -2.797798     27.196643     27.196643     54.393287
     -2.787788     24.519884     24.519884     49.039769
     -2.777778     21.845958     21.845958     43.691915
     -2.767768     19.428106     19.428106     38.856212
     -2.757758     17.533303     17.533303     35.066606
     -2.747748     16.316398     16.316398     32.632796
     -2.737738     15.765758     15.765758     31.531516
     -2.727728     15.750780     15.750780     31.501559
     -2.717718     16.134192     16.134192     32.268383
     -2.707708     16.868309     16.868309     33.736617
     -2.697698     18.004660     18.004660     36.009320
     -2.687688     19.606943     19.606943     39.213886
     -2.677678     21.628780     21.628780     43.257559
     -2.667668     23.849798     23.849798     47.699595
     -2.657658     25.929602     25.929602     51.859203
     -2.647648     27.558920     27.558920     55.117841
     -2.637638     28.615968     28.615968     57.231936
     -2.627628     29.226395     29.226395     58.452790
     -2.617618     29.686480     29.686480     59.372959
     -2.607608     30.298019     30.298019     60.596038
     -2.597598     31.215412     31.215412     62.430823
     -2.587588     32.385398     32.385398     64.770796
     -2.577578     33.589161     33.589161     67.178321
     -2.567568     34.533588     34.533588     69.067176
     -2.557558     34.929571     34.929571     69.859142
     -2.547548     34.536343     34.536343     69.072686
     -2.537538     33.196163     33.196163     66.392326
     -2.527528     30.889097     30.889097     61.778195
     -2.517518     27.801027     27.801027     55.602055
     -2.507508     24.357234     24.357234     48.714469
     -2.497497     21.170355     21.170355     42.340710
     -2.487487     18.892910     18.892910     37.785820
     -2.477477     18.021923     18.021923     36.043846
     -2.467467     18.737435     18.737435     37.474870
     -2.457457     20.847897     20.847897     41.695795
     -2.447447     23.870236     23.870236     47.740473
     -2.437437     27.213709     27.213709     54.427419
     -2.427427     30.390258     30.390258     60.780517
     -2.417417     33.159940     33.159940     66.319881
     -2.407407     35.546643     35.546643     71.093286
     -2.397397     37.718071     37.718071     75.436141
     -2.387387     39.789690     39.789690     79.579381
     -2.377377     41.653408     41.653408     83.306816
     -2.367367     42.925847     42.925847     85.851694
     -2.357357     43.057039     43.057039     86.114079
     -2.347347     41.560945     41.560945     83.121890
     -2.337337     38.263571     38.263571     76.527141
     -2.327327     33.449551     33.449551     66.899101
     -2.317317     27.835604     27.835604     55.671208
     -2.307307     22.383769     22.383769     44.767538
     -2.297297     18.039596     18.039596     36.079191
     -2.287287     15.501078     15.501078     31.002155
     -2.277277     15.090334     15.090334     30.180668
     -2.267267     16.742569     16.742569     33.485137
     -2.257257     20.082147     20.082147     40.164294
     -2.247247     24.539965     24.539965     49.079930
     -2.237237     29.472811     29.472811     58.945622
     -2.227227     34.259463     34.259463     68.518926
     -2.217217     38.361909     38.361909     76.723817
     -2.207207     41.353597     41.353597     82.707193
     -2.197197     42.929859     42.929859     85.859718
     -2.187187     42.922254     42.922254     85.844508
     -2.177177     41.329729     41.329729     82.659457
     -2.167167     38.354992     38.354992     76.709984
     -2.157157     34.409821     34.409821     68.819641
     -2.147147     30.051584     30.051584     60.103168
     -2.137137     25.846383     25.846383     51.692766
     -2.127127     22.205147     22.205147     44.410294
     -2.117117     19.270553     19.270553     38.541106
     -2.107107     16.915808     16.915808     33.831615
     -2.097097     14.856787     14.856787     29.713575
     -2.087087     12.815931     12.815931     25.631862
     -2.077077     10.652211     10.652211     21.304422
     -2.067067      8.400041      8.400041     16.800082
     -2.057057      6.217389      6.217389     12.434777
     -2.047047      4.289906      4.289906      8.579812
     -2.037037      2.748003      2.748003      5.496007
     -2.027027      1.630712      1.630712      3.261425
     -2.017017      0.896732      0.896732      1.793463
     -2.007007      0.461330      0.461330      0.922660
     -1.996997      0.235288      0.235288      0.470576
     -1.986987      0.152321      0.152321      0.304642
     -1.976977      0.183338      0.183338      0.366677
     -1.966967      0.342088      0.342088      0.684175
     -1.956957      0.686023      0.686023      1.372047
     -1.946947      1.311726      1.311726      2.623452
     -1.936937      2.340421      2.340421      4.680841
     -1.926927      3.889902      3.889902      7.779804
     -1.916917      6.035698      6.035698     12.071395
     -1.906907      8.773355      8.773355     17.546710
     -1.896897     11.998482     11.998482     23.996964
     -1.886887     15.515637     15.515637     31.031274
     -1.876877     19.072730     19.072730     38.145459
     -1.866867     22.404331     22.404331     44.808662
     -1.856857     25.266345     25.266345     50.532690
     -1.846847     27.456664     27.456664     54.913328
     -1.836837     28.829590     28.829590     57.659180
     -1.826827     29.312046     29.312046     58.624091
     -1.816817     28.916775     28.916775     57.833549
     -1.806807     27.737342     27.737342     55.474683
     -1.796797     25.916751     25.916751     51.833502
     -1.786787     23.602781     23.602781     47.205561
     -1.776777     20.918116     20.918116     41.836232
     -1.766767     17.964852     17.964852     35.929705
     -1.756757     14.855839     14.855839     29.711678
     -1.746747     11.743305     11.743305     23.486609
     -1.736737      8.817836      8.817836     17.635673
     -1.726727      6.275264      6.275264     12.550529
     -1.716717      4.273718      4.273718      8.547435
     -1.706707      2.908310      2.908310      5.816620
     -1.696697      2.214719      2.214719      4.429437
     -1.686687      2.190029      2.190029      4.380058
     -1.676677      2.807006      2.807006      5.614013
     -1.666667      4.004213      4.004213      8.008425
     -1.656657      5.654570      5.654570     11.309140
     -1.646647      7.536248      7.536248     15.072496
     -1.636637      9.338126      9.338126     18.676252
     -1.626627     10.719424     10.719424     21.438849
