# EIG2DOS: Utility for SIESTA to obtain the electronic density of states
#  E. Artacho, Apr 1999, A. Garcia, Apr 2012
#  Nick R. Papior, Feb 2017
# ------------------------------------------
# Eigenvalues calculated from a non-polarized calculation
# Eigenvalues read from siesta.EIG
# Kpoint weights read from siesta.KP
# Using smearing parameter:   0.0500
# Using 1000 points in the energy range
# Selected bands: 1 to: 2981
# Emin, Emax in file for selected band(s):    -27.0303817    218.3133670
# Nbands, Nspin, Nk   =   2981     1     1
# E_F                 =    -4.2958 eV --> (shifted to ZERO)
# Broadening          =     0.0500 eV
#
#        E            N(up)  (=)   N(down)         Ntot
     -5.000000     43.676103     43.676103     87.352206
     -4.989990     48.372454     48.372454     96.744908
     -4.979980     51.686636     51.686636    103.373272
     -4.969970     53.142935     53.142935    106.285871
     -4.959960     52.560622     52.560622    105.121244
     -4.949950     50.109375     50.109375    100.218750
     -4.939940     46.268234     46.268234     92.536467
     -4.929930     41.720280     41.720280     83.440559
     -4.919920     37.237504     37.237504     74.475009
     -4.909910     33.593210     33.593210     67.186420
     -4.899900     31.496726     31.496726     62.993453
     -4.889890     31.510523     31.510523     63.021046
     -4.879880     33.915537     33.915537     67.831073
     -4.869870     38.543649     38.543649     77.087298
     -4.859860     44.664193     44.664193     89.328385
     -4.849850     51.036959     51.036959    102.073917
     -4.839840     56.187666     56.187666    112.375333
     -4.829830     58.840607     58.840607    117.681213
     -4.819820     58.332345     58.332345    116.664690
     -4.809810     54.812573     54.812573    109.625147
     -4.799800     49.138042     49.138042     98.276083
     -4.789790     42.523453     42.523453     85.046906
     -4.779780     36.127213     36.127213     72.254427
     -4.769770     30.752264     30.752264     61.504529
     -4.759760     26.747615     26.747615     53.495230
     -4.749750     24.081002     24.081002     48.162004
     -4.739740     22.489621     22.489621     44.979241
     -4.729730     21.622402     21.622402     43.244805
     -4.719720     21.132147     21.132147     42.264293
     -4.709710     20.717905     20.717905     41.435809
     -4.699700     20.139025     20.139025     40.278050
     -4.689690     19.225569     19.225569     38.451138
     -4.679680     17.902655     17.902655     35.805309
     -4.669670     16.231337     16.231337     32.462674
     -4.659660     14.449854     14.449854     28.899708
     -4.649650     12.986178     12.986178     25.972356
     -4.639640     12.414647     12.414647     24.829294
     -4.629630     13.345529     13.345529     26.691058
     -4.619620     16.259151     16.259151     32.518302
     -4.609610     21.319634     21.319634     42.639268
     -4.599600     28.225058     28.225058     56.450116
     -4.589590     36.163697     36.163697     72.327394
     -4.579580     43.933350     43.933350     87.866700
     -4.569570     50.229332     50.229332    100.458664
     -4.559560     54.027345     54.027345    108.054690
     -4.549550     54.920967     54.920967    109.841934
     -4.539540     53.267089     53.267089    106.534177
     -4.529530     50.063216     50.063216    100.126431
     -4.519520     46.596929     46.596929     93.193858
     -4.509510     44.008106     44.008106     88.016212
     -4.499499     42.936394     42.936394     85.872789
     -4.489489     43.378054     43.378054     86.756108
     -4.479479     44.779092     44.779092     89.558184
     -4.469469     46.297247     46.297247     92.594493
     -4.459459     47.115037     47.115037     94.230074
     -4.449449     46.692003     46.692003     93.384006
     -4.439439     44.890247     44.890247     89.780494
     -4.429429     41.964036     41.964036     83.928072
     -4.419419     38.446712     38.446712     76.893423
     -4.409409     34.986173     34.986173     69.972347
     -4.399399     32.177597     32.177597     64.355193
     -4.389389     30.429652     30.429652     60.859305
     -4.379379     29.887347     29.887347     59.774695
     -4.369369     30.423166     30.423166     60.846331
     -4.359359     31.695724     31.695724     63.391449
     -4.349349     33.259897     33.259897     66.519794
     -4.339339     34.697669     34.697669     69.395337
     -4.329329     35.731890     35.731890     71.463780
     -4.319319     36.290645     36.290645     72.581290
     -4.309309     36.507055     36.507055     73.014110
     -4.299299     36.660445     36.660445     73.320889
     -4.289289     37.080006     37.080006     74.160011
     -4.279279     38.035674     38.035674     76.071348
     -4.269269     39.636587     39.636587     79.273174
     -4.259259     41.755924     41.755924     83.511848
     -4.249249     44.007912     44.007912     88.015825
     -4.239239     45.808081     45.808081     91.616162
     -4.229229     46.530644     46.530644     93.061288
     -4.219219     45.728972     45.728972     91.457944
     -4.209209     43.330606     43.330606     86.661213
     -4.199199     39.702933     39.702933     79.405865
     -4.189189     35.537566     35.537566     71.075132
     -4.179179     31.598164     31.598164     63.196328
     -4.169169     28.454829     28.454829     56.909658
     -4.159159     26.333992     26.333992     52.667983
     -4.149149     25.143325     25.143325     50.286651
     -4.139139     24.634960     24.634960     49.269919
     -4.129129     24.604887     24.604887     49.209775
     -4.119119     25.020061     25.020061     50.040123
     -4.109109     26.009118     26.009118     52.018236
     -4.099099     27.722400     27.722400     55.444801
     -4.089089     30.135018     30.135018     60.270037
     -4.079079     32.906252     32.906252     65.812504
     -4.069069     35.394807     35.394807     70.789614
     -4.059059     36.855409     36.855409     73.710817
     -4.049049     36.738557     36.738557     73.477115
     -4.039039     34.943763     34.943763     69.887527
     -4.029029     31.890321     31.890321     63.780642
     -4.019019     28.368202     28.368202     56.736405
     -4.009009     25.253438     25.253438     50.506876
     -3.998999     23.237628     23.237628     46.475257
     -3.988989     22.691103     22.691103     45.382206
     -3.978979     23.682955     23.682955     47.365911
     -3.968969     26.090300     26.090300     52.180599
     -3.958959     29.702215     29.702215     59.404431
     -3.948949     34.266138     34.266138     68.532276
     -3.938939     39.490740     39.490740     78.981480
     -3.928929     45.054249     45.054249     90.108499
     -3.918919     50.648158     50.648158    101.296315
     -3.908909     56.037071     56.037071    112.074141
     -3.898899     61.082086     61.082086    122.164172
     -3.888889     65.687932     65.687932    131.375864
     -3.878879     69.686413     69.686413    139.372825
     -3.868869     72.724117     72.724117    145.448234
     -3.858859     74.241358     74.241358    148.482715
     -3.848849     73.593764     73.593764    147.187528
     -3.838839     70.292332     70.292332    140.584664
     -3.828829     64.262883     64.262883    128.525766
     -3.818819     55.997439     55.997439    111.994879
     -3.808809     46.510044     46.510044     93.020089
     -3.798799     37.099078     37.099078     74.198155
     -3.788789     29.006609     29.006609     58.013218
     -3.778779     23.104458     23.104458     46.208916
     -3.768769     19.711851     19.711851     39.423702
     -3.758759     18.585366     18.585366     37.170731
     -3.748749     19.058038     19.058038     38.116077
     -3.738739     20.267711     20.267711     40.535422
     -3.728729     21.407100     21.407100     42.814200
     -3.718719     21.937052     21.937052     43.874104
     -3.708709     21.718128     21.718128     43.436256
     -3.698699     21.030798     21.030798     42.061596
     -3.688689     20.474401     20.474401     40.948802
     -3.678679     20.762882     20.762882     41.525764
     -3.668669     22.468616     22.468616     44.937231
     -3.658659     25.793510     25.793510     51.587019
     -3.648649     30.452122     30.452122     60.904243
     -3.638639     35.721033     35.721033     71.442066
     -3.628629     40.645313     40.645313     81.290627
     -3.618619     44.323454     44.323454     88.646908
     -3.608609     46.156417     46.156417     92.312834
     -3.598599     45.969308     45.969308     91.938616
     -3.588589     43.982594     43.982594     87.965188
     -3.578579     40.678933     40.678933     81.357866
     -3.568569     36.639487     36.639487     73.278974
     -3.558559     32.404600     32.404600     64.809200
     -3.548549     28.378137     28.378137     56.756273
     -3.538539     24.775925     24.775925     49.551851
     -3.528529     21.621655     21.621655     43.243310
     -3.518519     18.796902     18.796902     37.593805
     -3.508509     16.137157     16.137157     32.274313
     -3.498498     13.539465     13.539465     27.078930
     -3.488488     11.034331     11.034331     22.068661
     -3.478478      8.790156      8.790156     17.580312
     -3.468468      7.053019      7.053019     14.106038
     -3.458458      6.053123      6.053123     12.106245
     -3.448448      5.915968      5.915968     11.831937
     -3.438438      6.605598      6.605598     13.211196
     -3.428428      7.914054      7.914054     15.828107
     -3.418418      9.503092      9.503092     19.006184
     -3.408408     10.995577     10.995577     21.991153
     -3.398398     12.097187     12.097187     24.194374
     -3.388388     12.708279     12.708279     25.416557
     -3.378378     12.977501     12.977501     25.955002
     -3.368368     13.266767     13.266767     26.533535
     -3.358358     14.036225     14.036225     28.072449
     -3.348348     15.694136     15.694136     31.388271
     -3.338338     18.466037     18.466037     36.932073
     -3.328328     22.316762     22.316762     44.633524
     -3.318318     26.928801     26.928801     53.857602
     -3.308308     31.727355     31.727355     63.454711
     -3.298298     35.952683     35.952683     71.905365
     -3.288288     38.792385     38.792385     77.584770
     -3.278278     39.571951     39.571951     79.143902
     -3.268268     37.958377     37.958377     75.916753
     -3.258258     34.092705     34.092705     68.185410
     -3.248248     28.575427     28.575427     57.150854
     -3.238238     22.293056     22.293056     44.586112
     -3.228228     16.156171     16.156171     32.312341
     -3.218218     10.862145     10.862145     21.724290
     -3.208208      6.772592      6.772592     13.545184
     -3.198198      3.927942      3.927942      7.855884
     -3.188188      2.157572      2.157572      4.315145
     -3.178178      1.218301      1.218301      2.436601
     -3.168168      0.908014      0.908014      1.816029
     -3.158158      1.131759      1.131759      2.263518
     -3.148148      1.920896      1.920896      3.841792
     -3.138138      3.413056      3.413056      6.826111
     -3.128128      5.798005      5.798005     11.596009
     -3.118118      9.234452      9.234452     18.468904
     -3.108108     13.752466     13.752466     27.504932
     -3.098098     19.171970     19.171970     38.343940
     -3.088088     25.076504     25.076504     50.153008
     -3.078078     30.869412     30.869412     61.738823
     -3.068068     35.904766     35.904766     71.809532
     -3.058058     39.644390     39.644390     79.288781
     -3.048048     41.773172     41.773172     83.546343
     -3.038038     42.226355     42.226355     84.452709
     -3.028028     41.135362     41.135362     82.270724
     -3.018018     38.746839     38.746839     77.493679
     -3.008008     35.376524     35.376524     70.753047
     -2.997998     31.419168     31.419168     62.838337
     -2.987988     27.380363     27.380363     54.760726
     -2.977978     23.870129     23.870129     47.740258
     -2.967968     21.521379     21.521379     43.042757
     -2.957958     20.848861     20.848861     41.697722
     -2.947948     22.105819     22.105819     44.211637
     -2.937938     25.199217     25.199217     50.398433
     -2.927928     29.694045     29.694045     59.388090
     -2.917918     34.898683     34.898683     69.797365
     -2.907908     40.000552     40.000552     80.001104
     -2.897898     44.219587     44.219587     88.439174
     -2.887888     46.954237     46.954237     93.908474
     -2.877878     47.896800     47.896800     95.793600
     -2.867868     47.090221     47.090221     94.180442
     -2.857858     44.899506     44.899506     89.799013
     -2.847848     41.890816     41.890816     83.781633
     -2.837838     38.648720     38.648720     77.297439
     -2.827828     35.597364     35.597364     71.194728
     -2.817818     32.899279     32.899279     65.798558
     -2.807808     30.474474     30.474474     60.948948
     -2.797798     28.125002     28.125002     56.250005
     -2.787788     25.697069     25.697069     51.394137
     -2.777778     23.194799     23.194799     46.389598
     -2.767768     20.788777     20.788777     41.577554
     -2.757758     18.723213     18.723213     37.446426
     -2.747748     17.183889     17.183889     34.367778
     -2.737738     16.210373     16.210373     32.420747
     -2.727728     15.706435     15.706435     31.412870
     -2.717718     15.538791     15.538791     31.077582
     -2.707708     15.655525     15.655525     31.311050
     -2.697698     16.140195     16.140195     32.280389
     -2.687688     17.158143     17.158143     34.316285
     -2.677678     18.823658     18.823658     37.647316
     -2.667668     21.073677     21.073677     42.147354
     -2.657658     23.636040     23.636040     47.272081
     -2.647648     26.123064     26.123064     52.246129
     -2.637638     28.199879     28.199879     56.399757
     -2.627628     29.726322     29.726322     59.452643
     -2.617618     30.787662     30.787662     61.575324
     -2.607608     31.602896     31.602896     63.205793
     -2.597598     32.377498     32.377498     64.754996
     -2.587588     33.193681     33.193681     66.387363
     -2.577578     33.989980     33.989980     67.979959
     -2.567568     34.611594     34.611594     69.223189
     -2.557558     34.872962     34.872962     69.745924
     -2.547548     34.592445     34.592445     69.184890
     -2.537538     33.609497     33.609497     67.218995
     -2.527528     31.823106     31.823106     63.646212
     -2.517518     29.267526     29.267526     58.535052
     -2.507508     26.189425     26.189425     52.378849
     -2.497497     23.060431     23.060431     46.120862
     -2.487487     20.482560     20.482560     40.965121
     -2.477477     19.006899     19.006899     38.013798
     -2.467467     18.943401     18.943401     37.886802
     -2.457457     20.253279     20.253279     40.506558
     -2.447447     22.578426     22.578426     45.156852
     -2.437437     25.396955     25.396955     50.793910
     -2.427427     28.234017     28.234017     56.468035
     -2.417417     30.830403     30.830403     61.660806
     -2.407407     33.190259     33.190259     66.380519
     -2.397397     35.485858     35.485858     70.971716
     -2.387387     37.866536     37.866536     75.733071
     -2.377377     40.268285     40.268285     80.536569
     -2.367367     42.325520     42.325520     84.651040
     -2.357357     43.442634     43.442634     86.885268
     -2.347347     43.008017     43.008017     86.016035
     -2.337337     40.661496     40.661496     81.322992
     -2.327327     36.494265     36.494265     72.988530
     -2.317317     31.088013     31.088013     62.176026
     -2.307307     25.374911     25.374911     50.749821
     -2.297297     20.381273     20.381273     40.762545
     -2.287287     16.960546     16.960546     33.921092
     -2.277277     15.608030     15.608030     31.216060
     -2.267267     16.398988     16.398988     32.797977
     -2.257257     19.039188     19.039188     38.078377
     -2.247247     22.986572     22.986572     45.973144
     -2.237237     27.596055     27.596055     55.192110
     -2.227227     32.245562     32.245562     64.491125
     -2.217217     36.414024     36.414024     72.828048
     -2.207207     39.702369     39.702369     79.404739
     -2.197197     41.815345     41.815345     83.630690
     -2.187187     42.542745     42.542745     85.085490
     -2.177177     41.775787     41.775787     83.551574
     -2.167167     39.562328     39.562328     79.124656
     -2.157157     36.161612     36.161612     72.323223
     -2.147147     32.038894     32.038894     64.077789
     -2.137137     27.765491     27.765491     55.530982
     -2.127127     23.849775     23.849775     47.699549
     -2.117117     20.578235     20.578235     41.156471
     -2.107107     17.951176     17.951176     35.902352
     -2.097097     15.746889     15.746889     31.493777
     -2.087087     13.674709     13.674709     27.349418
     -2.077077     11.530919     11.530919     23.061838
     -2.067067      9.280375      9.280375     18.560751
     -2.057057      7.039111      7.039111     14.078222
     -2.047047      4.989884      4.989884      9.979768
     -2.037037      3.288910      3.288910      6.577821
     -2.027027      2.009803      2.009803      4.019605
     -2.017017      1.138003      1.138003      2.276007
     -2.007007      0.600730      0.600730      1.201459
     -1.996997      0.307598      0.307598      0.615197
     -1.986987      0.183663      0.183663      0.367325
     -1.976977      0.188896      0.188896      0.377791
     -1.966967      0.326689      0.326689      0.653377
     -1.956957      0.645288      0.645288      1.290576
     -1.946947      1.232353      1.232353      2.464706
     -1.936937      2.198710      2.198710      4.397420
     -1.926927      3.647417      3.647417      7.294835
     -1.916917      5.630502      5.630502     11.261005
     -1.906907      8.105714      8.105714     16.211427
     -1.896897     10.912644     10.912644     21.825288
     -1.886887     13.784726     13.784726     27.569452
     -1.876877     16.399864     16.399864     32.799728
     -1.866867     18.455319     18.455319     36.910638
     -1.856857     19.742366     19.742366     39.484732
     -1.846847     20.197729     20.197729     40.395457
     -1.836837     19.917223     19.917223     39.834446
     -1.826827     19.125647     19.125647     38.251294
     -1.816817     18.105530     18.105530     36.211060
     -1.806807     17.100864     17.100864     34.201727
     -1.796797     16.229237     16.229237     32.458474
     -1.786787     15.443876     15.443876     30.887752
     -1.776777     14.571192     14.571192     29.142384
     -1.766767     13.411292     13.411292     26.822584
     -1.756757     11.851792     11.851792     23.703585
     -1.746747      9.936910      9.936910     19.873820
     -1.736737      7.862042      7.862042     15.724084
     -1.726727      5.908827      5.908827     11.817654
     -1.716717      4.365357      4.365357      8.730715
     -1.706707      3.472618      3.472618      6.945237
     -1.696697      3.408566      3.408566      6.817131
     -1.686687      4.289536      4.289536      8.579072
     -1.676677      6.157212      6.157212     12.314423
     -1.666667      8.935179      8.935179     17.870359
     -1.656657     12.371647     12.371647     24.743294
     -1.646647     16.012412     16.012412     32.024823
     -1.636637     19.249596     19.249596     38.499192
     -1.626627     21.459564     21.459564     42.919127
