# EIG2DOS: Utility for SIESTA to obtain the electronic density of states
#  E. Artacho, Apr 1999, A. Garcia, Apr 2012
#  Nick R. Papior, Feb 2017
# ------------------------------------------
# Eigenvalues calculated from a non-polarized calculation
# Eigenvalues read from siesta.EIG
# Kpoint weights read from siesta.KP
# Using smearing parameter:   0.0500
# Using 1000 points in the energy range
# Selected bands: 1 to: 2981
# Emin, Emax in file for selected band(s):    -27.0886938    218.3436610
# Nbands, Nspin, Nk   =   2981     1     1
# E_F                 =    -4.2637 eV --> (shifted to ZERO)
# Broadening          =     0.0500 eV
#
#        E            N(up)  (=)   N(down)         Ntot
     -5.000000     35.242221     35.242221     70.484443
     -4.989990     38.373995     38.373995     76.747991
     -4.979980     41.302855     41.302855     82.605709
     -4.969970     43.431943     43.431943     86.863887
     -4.959960     44.283504     44.283504     88.567009
     -4.949950     43.638237     43.638237     87.276474
     -4.939940     41.597830     41.597830     83.195659
     -4.929930     38.565760     38.565760     77.131520
     -4.919920     35.172575     35.172575     70.345150
     -4.909910     32.178007     32.178007     64.356014
     -4.899900     30.362411     30.362411     60.724822
     -4.889890     30.394998     30.394998     60.789997
     -4.879880     32.666162     32.666162     65.332324
     -4.869870     37.108733     37.108733     74.217466
     -4.859860     43.085576     43.085576     86.171153
     -4.849850     49.440279     49.440279     98.880558
     -4.839840     54.757608     54.757608    109.515216
     -4.829830     57.773906     57.773906    115.547812
     -4.819820     57.778190     57.778190    115.556380
     -4.809810     54.824737     54.824737    109.649474
     -4.799800     49.662056     49.662056     99.324112
     -4.789790     43.424089     43.424089     86.848178
     -4.779780     37.239388     37.239388     74.478776
     -4.769770     31.928456     31.928456     63.856912
     -4.759760     27.882708     27.882708     55.765415
     -4.749750     25.112733     25.112733     50.225465
     -4.739740     23.385757     23.385757     46.771513
     -4.729730     22.367294     22.367294     44.734588
     -4.719720     21.718662     21.718662     43.437325
     -4.709710     21.144096     21.144096     42.288191
     -4.699700     20.406952     20.406952     40.813905
     -4.689690     19.341414     19.341414     38.682827
     -4.679680     17.878578     17.878578     35.757156
     -4.669670     16.088711     16.088711     32.177422
     -4.659660     14.221862     14.221862     28.443725
     -4.649650     12.717692     12.717692     25.435385
     -4.639640     12.158943     12.158943     24.317887
     -4.629630     13.158908     13.158908     26.317815
     -4.619620     16.194173     16.194173     32.388346
     -4.609610     21.416426     21.416426     42.832851
     -4.599600     28.500644     28.500644     57.001288
     -4.589590     36.603032     36.603032     73.206065
     -4.579580     44.490205     44.490205     88.980409
     -4.569570     50.845507     50.845507    101.691013
     -4.559560     54.671753     54.671753    109.343506
     -4.549550     55.638448     55.638448    111.276895
     -4.539540     54.217505     54.217505    108.435009
     -4.529530     51.530695     51.530695    103.061391
     -4.519520     48.957522     48.957522     97.915045
     -4.509510     47.656803     47.656803     95.313607
     -4.499499     48.186159     48.186159     96.372318
     -4.489489     50.352510     50.352510    100.705020
     -4.479479     53.327075     53.327075    106.654150
     -4.469469     55.959024     55.959024    111.918048
     -4.459459     57.160730     57.160730    114.321460
     -4.449449     56.229786     56.229786    112.459572
     -4.439439     53.013424     53.013424    106.026848
     -4.429429     47.890012     47.890012     95.780024
     -4.419419     41.610871     41.610871     83.221741
     -4.409409     35.084619     35.084619     70.169238
     -4.399399     29.180732     29.180732     58.361465
     -4.389389     24.590526     24.590526     49.181052
     -4.379379     21.743800     21.743800     43.487600
     -4.369369     20.765592     20.765592     41.531185
     -4.359359     21.471286     21.471286     42.942572
     -4.349349     23.415778     23.415778     46.831555
     -4.339339     26.008029     26.008029     52.016058
     -4.329329     28.673012     28.673012     57.346023
     -4.319319     31.010593     31.010593     62.021187
     -4.309309     32.891728     32.891728     65.783456
     -4.299299     34.454885     34.454885     68.909770
     -4.289289     36.005248     36.005248     72.010495
     -4.279279     37.853211     37.853211     75.706422
     -4.269269     40.145381     40.145381     80.290762
     -4.259259     42.743847     42.743847     85.487694
     -4.249249     45.203227     45.203227     90.406455
     -4.239239     46.874920     46.874920     93.749840
     -4.229229     47.124906     47.124906     94.249812
     -4.219219     45.592400     45.592400     91.184801
     -4.209209     42.374663     42.374663     84.749327
     -4.199199     38.037631     38.037631     76.075262
     -4.189189     33.430937     33.430937     66.861874
     -4.179179     29.388607     29.388607     58.777213
     -4.169169     26.458092     26.458092     52.916183
     -4.159159     24.780340     24.780340     49.560679
     -4.149149     24.157683     24.157683     48.315365
     -4.139139     24.250231     24.250231     48.500462
     -4.129129     24.787931     24.787931     49.575862
     -4.119119     25.692480     25.692480     51.384960
     -4.109109     27.055671     27.055671     54.111342
     -4.099099     28.991266     28.991266     57.982532
     -4.089089     31.440750     31.440750     62.881499
     -4.079079     34.045387     34.045387     68.090775
     -4.069069     36.176451     36.176451     72.352903
     -4.059059     37.139156     37.139156     74.278312
     -4.049049     36.466089     36.466089     72.932179
     -4.039039     34.152428     34.152428     68.304857
     -4.029029     30.705483     30.705483     61.410966
     -4.019019     26.979826     26.979826     53.959652
     -4.009009     23.885254     23.885254     47.770509
     -3.998999     22.114056     22.114056     44.228112
     -3.988989     22.003262     22.003262     44.006525
     -3.978979     23.555934     23.555934     47.111868
     -3.968969     26.558786     26.558786     53.117573
     -3.958959     30.704827     30.704827     61.409655
     -3.948949     35.664904     35.664904     71.329808
     -3.938939     41.111989     41.111989     82.223977
     -3.928929     46.736556     46.736556     93.473112
     -3.918919     52.278412     52.278412    104.556824
     -3.908909     57.559744     57.559744    115.119488
     -3.898899     62.478011     62.478011    124.956022
     -3.888889     66.933449     66.933449    133.866897
     -3.878879     70.715549     70.715549    141.431097
     -3.868869     73.418560     73.418560    146.837119
     -3.858859     74.460807     74.460807    148.921614
     -3.848849     73.236569     73.236569    146.473138
     -3.838839     69.355942     69.355942    138.711883
     -3.828829     62.869999     62.869999    125.739998
     -3.818819     54.371224     54.371224    108.742448
     -3.808809     44.909547     44.909547     89.819093
     -3.798799     35.745831     35.745831     71.491662
     -3.788789     28.033492     28.033492     56.066985
     -3.778779     22.541444     22.541444     45.082889
     -3.768769     19.503659     19.503659     39.007319
     -3.758759     18.625265     18.625265     37.250530
     -3.748749     19.222895     19.222895     38.445789
     -3.738739     20.446309     20.446309     40.892619
     -3.728729     21.519929     21.519929     43.039858
     -3.718719     21.947966     21.947966     43.895933
     -3.708709     21.637710     21.637710     43.275420
     -3.698699     20.910472     20.910472     41.820944
     -3.688689     20.391108     20.391108     40.782216
     -3.678679     20.796402     20.796402     41.592805
     -3.668669     22.676462     22.676462     45.352924
     -3.658659     26.190268     26.190268     52.380535
     -3.648649     31.000010     31.000010     62.000020
     -3.638639     36.335649     36.335649     72.671299
     -3.628629     41.215578     41.215578     82.431156
     -3.618619     44.739601     44.739601     89.479201
     -3.608609     46.337035     46.337035     92.674070
     -3.598599     45.879296     45.879296     91.758592
     -3.588589     43.637790     43.637790     87.275581
     -3.578579     40.137836     40.137836     80.275672
     -3.568569     35.985939     35.985939     71.971878
     -3.558559     31.726894     31.726894     63.453788
     -3.548549     27.750153     27.750153     55.500305
     -3.538539     24.244912     24.244912     48.489824
     -3.528529     21.205078     21.205078     42.410156
     -3.518519     18.487723     18.487723     36.975446
     -3.508509     15.914053     15.914053     31.828106
     -3.498498     13.377324     13.377324     26.754648
     -3.488488     10.911376     10.911376     21.822751
     -3.478478      8.690566      8.690566     17.381132
     -3.468468      6.966313      6.966313     13.932627
     -3.458458      5.972645      5.972645     11.945290
     -3.448448      5.838289      5.838289     11.676579
     -3.438438      6.531256      6.531256     13.062513
     -3.428428      7.848775      7.848775     15.697550
     -3.418418      9.458150      9.458150     18.916299
     -3.408408     10.986432     10.986432     21.972863
     -3.398398     12.140495     12.140495     24.280991
     -3.388388     12.818179     12.818179     25.636357
     -3.378378     13.162339     13.162339     26.324679
     -3.368368     13.527183     13.527183     27.054367
     -3.358358     14.365050     14.365050     28.730099
     -3.348348     16.078013     16.078013     32.156026
     -3.338338     18.887851     18.887851     37.775702
     -3.328328     22.757097     22.757097     45.514194
     -3.318318     27.364670     27.364670     54.729339
     -3.308308     32.128341     32.128341     64.256682
     -3.298298     36.277855     36.277855     72.555709
     -3.288288     38.993186     38.993186     77.986372
     -3.278278     39.603931     39.603931     79.207862
     -3.268268     37.798508     37.798508     75.597015
     -3.258258     33.753393     33.753393     67.506785
     -3.248248     28.106224     28.106224     56.212447
     -3.238238     21.767562     21.767562     43.535124
     -3.228228     15.650264     15.650264     31.300528
     -3.218218     10.434488     10.434488     20.868976
     -3.208208      6.456594      6.456594     12.913188
     -3.198198      3.738483      3.738483      7.476966
     -3.188188      2.110489      2.110489      4.220978
     -3.178178      1.358558      1.358558      2.717115
     -3.168168      1.342317      1.342317      2.684633
     -3.158158      2.059523      2.059523      4.119047
     -3.148148      3.651784      3.651784      7.303569
     -3.138138      6.352005      6.352005     12.704010
     -3.128128     10.377089     10.377089     20.754178
     -3.118118     15.783386     15.783386     31.566772
     -3.108108     22.328527     22.328527     44.657053
     -3.098098     29.405545     29.405545     58.811089
     -3.088088     36.109194     36.109194     72.218388
     -3.078078     41.447107     41.447107     82.894213
     -3.068068     44.634861     44.634861     89.269721
     -3.058058     45.355166     45.355166     90.710331
     -3.048048     43.859343     43.859343     87.718685
     -3.038038     40.855723     40.855723     81.711447
     -3.028028     37.232232     37.232232     74.464464
     -3.018018     33.741160     33.741160     67.482320
     -3.008008     30.787036     30.787036     61.574073
     -2.997998     28.399227     28.399227     56.798454
     -2.987988     26.376773     26.376773     52.753546
     -2.977978     24.515759     24.515759     49.031518
     -2.967968     22.803611     22.803611     45.607222
     -2.957958     21.492708     21.492708     42.985416
     -2.947948     21.025797     21.025797     42.051594
     -2.937938     21.849237     21.849237     43.698474
     -2.927928     24.194309     24.194309     48.388618
     -2.917918     27.919073     27.919073     55.838147
     -2.907908     32.480919     32.480919     64.961837
     -2.897898     37.060128     37.060128     74.120255
     -2.887888     40.794584     40.794584     81.589168
     -2.877878     43.038291     43.038291     86.076582
     -2.867868     43.543004     43.543004     87.086007
     -2.857858     42.491762     42.491762     84.983525
     -2.847848     40.375373     40.375373     80.750745
     -2.837838     37.770811     37.770811     75.541622
     -2.827828     35.122201     35.122201     70.244403
     -2.817818     32.619210     32.619210     65.238420
     -2.807808     30.216432     30.216432     60.432864
     -2.797798     27.765945     27.765945     55.531889
     -2.787788     25.180493     25.180493     50.360986
     -2.777778     22.535352     22.535352     45.070705
     -2.767768     20.057272     20.057272     40.114544
     -2.757758     18.016230     18.016230     36.032461
     -2.747748     16.591776     16.591776     33.183551
     -2.737738     15.798093     15.798093     31.596185
     -2.727728     15.512985     15.512985     31.025969
     -2.717718     15.588599     15.588599     31.177199
     -2.707708     15.967611     15.967611     31.935222
     -2.697698     16.723244     16.723244     33.446489
     -2.687688     17.990927     17.990927     35.981854
     -2.677678     19.833443     19.833443     39.666886
     -2.667668     22.131262     22.131262     44.262524
     -2.657658     24.579357     24.579357     49.158713
     -2.647648     26.804478     26.804478     53.608955
     -2.637638     28.535937     28.535937     57.071874
     -2.627628     29.724522     29.724522     59.449045
     -2.617618     30.536926     30.536926     61.073852
     -2.607608     31.234877     31.234877     62.469754
     -2.597598     32.020080     32.020080     64.040159
     -2.587588     32.936797     32.936797     65.873594
     -2.577578     33.870825     33.870825     67.741651
     -2.567568     34.614085     34.614085     69.228170
     -2.557558     34.934343     34.934343     69.868687
     -2.547548     34.616418     34.616418     69.232835
     -2.537538     33.489798     33.489798     66.979597
     -2.527528     31.477111     31.477111     62.954221
     -2.517518     28.669404     28.669404     57.338808
     -2.507508     25.386983     25.386983     50.773967
     -2.497497     22.165713     22.165713     44.331426
     -2.487487     19.640076     19.640076     39.280151
     -2.477477     18.354883     18.354883     36.709767
     -2.467467     18.584847     18.584847     37.169695
     -2.457457     20.245219     20.245219     40.490437
     -2.447447     22.936952     22.936952     45.873903
     -2.437437     26.108764     26.108764     52.217528
     -2.427427     29.265164     29.265164     58.530328
     -2.417417     32.127421     32.127421     64.254842
     -2.407407     34.674299     34.674299     69.348597
     -2.397397     37.044590     37.044590     74.089180
     -2.387387     39.350671     39.350671     78.701343
     -2.377377     41.499628     41.499628     82.999256
     -2.367367     43.121146     43.121146     86.242292
     -2.357357     43.654178     43.654178     87.308356
     -2.347347     42.566619     42.566619     85.133238
     -2.337337     39.611476     39.611476     79.222951
     -2.327327     34.997973     34.997973     69.995946
     -2.317317     29.393935     29.393935     58.787870
     -2.307307     23.757412     23.757412     47.514825
     -2.297297     19.073968     19.073968     38.147936
     -2.287287     16.107816     16.107816     32.215633
     -2.277277     15.249690     15.249690     30.499380
     -2.267267     16.487824     16.487824     32.975649
     -2.257257     19.478210     19.478210     38.956419
     -2.247247     23.667296     23.667296     47.334592
     -2.237237     28.421910     28.421910     56.843821
     -2.227227     33.133889     33.133889     66.267779
     -2.217217     37.282365     37.282365     74.564729
     -2.207207     40.454063     40.454063     80.908127
     -2.197197     42.340101     42.340101     84.680203
     -2.187187     42.738431     42.738431     85.476863
     -2.177177     41.583257     41.583257     83.166514
     -2.167167     38.994688     38.994688     77.989376
     -2.157157     35.309803     35.309803     70.619606
     -2.147147     31.046927     31.046927     62.093855
     -2.137137     26.784539     26.784539     53.569077
     -2.127127     22.991513     22.991513     45.983026
     -2.117117     19.888021     19.888021     39.776041
     -2.107107     17.410923     17.410923     34.821846
     -2.097097     15.302231     15.302231     30.604463
     -2.087087     13.270001     13.270001     26.540002
     -2.077077     11.134631     11.134631     22.269261
     -2.067067      8.891770      8.891770     17.783540
     -2.057057      6.678453      6.678453     13.356907
     -2.047047      4.681876      4.681876      9.363753
     -2.037037      3.049345      3.049345      6.098690
     -2.027027      1.840470      1.840470      3.680940
     -2.017017      1.029075      1.029075      2.058151
     -2.007007      0.536641      0.536641      1.073282
     -1.996997      0.272503      0.272503      0.545006
     -1.986987      0.164467      0.164467      0.328935
     -1.976977      0.175835      0.175835      0.351670
     -1.966967      0.312496      0.312496      0.624993
     -1.956957      0.624230      0.624230      1.248461
     -1.946947      1.200144      1.200144      2.400288
     -1.936937      2.153831      2.153831      4.307662
     -1.926927      3.593627      3.593627      7.187254
     -1.916917      5.579316      5.579316     11.158631
     -1.906907      8.076734      8.076734     16.153468
     -1.896897     10.929671     10.929671     21.859342
     -1.886887     13.867137     13.867137     27.734274
     -1.876877     16.551677     16.551677     33.103354
     -1.866867     18.657015     18.657015     37.314029
     -1.856857     19.950930     19.950930     39.901860
     -1.846847     20.357507     20.357507     40.715014
     -1.836837     19.979362     19.979362     39.958725
     -1.826827     19.070128     19.070128     38.140256
     -1.816817     17.959668     17.959668     35.919337
     -1.806807     16.951573     16.951573     33.903146
     -1.796797     16.230522     16.230522     32.461045
     -1.786787     15.822087     15.822087     31.644174
     -1.776777     15.626453     15.626453     31.252905
     -1.766767     15.505867     15.505867     31.011734
     -1.756757     15.370392     15.370392     30.740783
     -1.746747     15.207218     15.207218     30.414437
     -1.736737     15.039934     15.039934     30.079868
     -1.726727     14.857227     14.857227     29.714454
     -1.716717     14.574687     14.574687     29.149374
     -1.706707     14.068717     14.068717     28.137434
     -1.696697     13.266108     13.266108     26.532216
     -1.686687     12.228073     12.228073     24.456145
     -1.676677     11.165747     11.165747     22.331493
     -1.666667     10.365402     10.365402     20.730805
     -1.656657     10.056817     10.056817     20.113635
     -1.646647     10.292915     10.292915     20.585831
     -1.636637     10.904895     10.904895     21.809791
     -1.626627     11.559906     11.559906     23.119811
