# EIG2DOS: Utility for SIESTA to obtain the electronic density of states
#  E. Artacho, Apr 1999, A. Garcia, Apr 2012
#  Nick R. Papior, Feb 2017
# ------------------------------------------
# Eigenvalues calculated from a non-polarized calculation
# Eigenvalues read from siesta.EIG
# Kpoint weights read from siesta.KP
# Using smearing parameter:   0.0500
# Using 1000 points in the energy range
# Selected bands: 1 to: 2981
# Emin, Emax in file for selected band(s):    -27.0502884    218.3274760
# Nbands, Nspin, Nk   =   2981     1     1
# E_F                 =    -4.2789 eV --> (shifted to ZERO)
# Broadening          =     0.0500 eV
#
#        E            N(up)  (=)   N(down)         Ntot
     -5.000000     41.012654     41.012654     82.025308
     -4.989990     42.623991     42.623991     85.247982
     -4.979980     43.805171     43.805171     87.610342
     -4.969970     44.292107     44.292107     88.584215
     -4.959960     43.848960     43.848960     87.697920
     -4.949950     42.379281     42.379281     84.758562
     -4.939940     39.991415     39.991415     79.982830
     -4.929930     37.008018     37.008018     74.016036
     -4.919920     33.934867     33.934867     67.869733
     -4.909910     31.405639     31.405639     62.811279
     -4.899900     30.100984     30.100984     60.201968
     -4.889890     30.623262     30.623262     61.246523
     -4.879880     33.318508     33.318508     66.637016
     -4.869870     38.081996     38.081996     76.163992
     -4.859860     44.237487     44.237487     88.474973
     -4.849850     50.593999     50.593999    101.187997
     -4.839840     55.723946     55.723946    111.447892
     -4.829830     58.390822     58.390822    116.781644
     -4.819820     57.953100     57.953100    115.906201
     -4.809810     54.558813     54.558813    109.117627
     -4.799800     49.042816     49.042816     98.085631
     -4.789790     42.589253     42.589253     85.178506
     -4.779780     36.329907     36.329907     72.659814
     -4.769770     31.051864     31.051864     62.103727
     -4.759760     27.098724     27.098724     54.197449
     -4.749750     24.439443     24.439443     48.878887
     -4.739740     22.816126     22.816126     45.632252
     -4.729730     21.885705     21.885705     43.771410
     -4.719720     21.312157     21.312157     42.624314
     -4.709710     20.807675     20.807675     41.615350
     -4.699700     20.144223     20.144223     40.288445
     -4.689690     19.161981     19.161981     38.323962
     -4.679680     17.793789     17.793789     35.587578
     -4.669670     16.107781     16.107781     32.215561
     -4.659660     14.349952     14.349952     28.699905
     -4.649650     12.955521     12.955521     25.911043
     -4.639640     12.501237     12.501237     25.002475
     -4.629630     13.588916     13.588916     27.177833
     -4.619620     16.674800     16.674800     33.349600
     -4.609610     21.883583     21.883583     43.767167
     -4.599600     28.866903     28.866903     57.733806
     -4.589590     36.775718     36.775718     73.551435
     -4.579580     44.398330     44.398330     88.796660
     -4.569570     50.460371     50.460371    100.920741
     -4.559560     54.004586     54.004586    108.009172
     -4.549550     54.708823     54.708823    109.417647
     -4.539540     53.003820     53.003820    106.007641
     -4.529530     49.928886     49.928886     99.857772
     -4.519520     46.777512     46.777512     93.555024
     -4.509510     44.675399     44.675399     89.350798
     -4.499499     44.253309     44.253309     88.506619
     -4.489489     45.521183     45.521183     91.042366
     -4.479479     47.953981     47.953981     95.907962
     -4.469469     50.716270     50.716270    101.432541
     -4.459459     52.919849     52.919849    105.839698
     -4.449449     53.831425     53.831425    107.662850
     -4.439439     52.998658     52.998658    105.997316
     -4.429429     50.305684     50.305684    100.611368
     -4.419419     45.980995     45.980995     91.961990
     -4.409409     40.565393     40.565393     81.130785
     -4.399399     34.829237     34.829237     69.658474
     -4.389389     29.629141     29.629141     59.258283
     -4.379379     25.719668     25.719668     51.439335
     -4.369369     23.569467     23.569467     47.138934
     -4.359359     23.248369     23.248369     46.496738
     -4.349349     24.435491     24.435491     48.870983
     -4.339339     26.552121     26.552121     53.104243
     -4.329329     28.969721     28.969721     57.939443
     -4.319319     31.211661     31.211661     62.423323
     -4.309309     33.074059     33.074059     66.148119
     -4.299299     34.630787     34.630787     69.261573
     -4.289289     36.136102     36.136102     72.272204
     -4.279279     37.870477     37.870477     75.740955
     -4.269269     39.982834     39.982834     79.965667
     -4.259259     42.376064     42.376064     84.752127
     -4.249249     44.674922     44.674922     89.349844
     -4.239239     46.303594     46.303594     92.607188
     -4.229229     46.669982     46.669982     93.339964
     -4.219219     45.401956     45.401956     90.803913
     -4.209209     42.534002     42.534002     85.068004
     -4.199199     38.542810     38.542810     77.085621
     -4.189189     34.196108     34.196108     68.392216
     -4.179179     30.278656     30.278656     60.557312
     -4.169169     27.328601     27.328601     54.657202
     -4.159159     25.508982     25.508982     51.017965
     -4.149149     24.660511     24.660511     49.321021
     -4.139139     24.485330     24.485330     48.970660
     -4.129129     24.752749     24.752749     49.505499
     -4.119119     25.419547     25.419547     50.839093
     -4.109109     26.607475     26.607475     53.214949
     -4.099099     28.452295     28.452295     56.904589
     -4.089089     30.905082     30.905082     61.810164
     -4.079079     33.601195     33.601195     67.202390
     -4.069069     35.891794     35.891794     71.783588
     -4.059059     37.053787     37.053787     74.107575
     -4.049049     36.590902     36.590902     73.181804
     -4.039039     34.473635     34.473635     68.947271
     -4.029029     31.188299     31.188299     62.376598
     -4.019019     27.568539     27.568539     55.137078
     -4.009009     24.501973     24.501973     49.003946
     -3.998999     22.662606     22.662606     45.325212
     -3.988989     22.383544     22.383544     44.767088
     -3.978979     23.687273     23.687273     47.374546
     -3.968969     26.403160     26.403160     52.806320
     -3.958959     30.278325     30.278325     60.556649
     -3.948949     35.030847     35.030847     70.061694
     -3.938939     40.358466     40.358466     80.716931
     -3.928929     45.948653     45.948653     91.897305
     -3.918919     51.517094     51.517094    103.034188
     -3.908909     56.855388     56.855388    113.710776
     -3.898899     61.839783     61.839783    123.679566
     -3.888889     66.368735     66.368735    132.737470
     -3.878879     70.248522     70.248522    140.497043
     -3.868869     73.096068     73.096068    146.192136
     -3.858859     74.339338     74.339338    148.678676
     -3.848849     73.354928     73.354928    146.709856
     -3.838839     69.708510     69.708510    139.417020
     -3.828829     63.397258     63.397258    126.794516
     -3.818819     54.974907     54.974907    109.949814
     -3.808809     45.485105     45.485105     90.970210
     -3.798799     36.215148     36.215148     72.430296
     -3.788789     28.362384     28.362384     56.724767
     -3.778779     22.737071     22.737071     45.474141
     -3.768769     19.598200     19.598200     39.196400
     -3.758759     18.657038     18.657038     37.314076
     -3.748749     19.223469     19.223469     38.446938
     -3.738739     20.436072     20.436072     40.872144
     -3.728729     21.509664     21.509664     43.019328
     -3.718719     21.942406     21.942406     43.884813
     -3.708709     21.638069     21.638069     43.276137
     -3.698699     20.914934     20.914934     41.829869
     -3.688689     20.393930     20.393930     40.787860
     -3.678679     20.787224     20.787224     41.574448
     -3.668669     22.641569     22.641569     45.283137
     -3.658659     26.116780     26.116780     52.233560
     -3.648649     30.882334     30.882334     61.764667
     -3.638639     36.181584     36.181584     72.363168
     -3.628629     41.048498     41.048498     82.096996
     -3.618619     44.594189     44.594189     89.188377
     -3.608609     46.249093     46.249093     92.498187
     -3.598599     45.873576     45.873576     91.747152
     -3.588589     43.719315     43.719315     87.438630
     -3.578579     40.290650     40.290650     80.581299
     -3.568569     36.179425     36.179425     72.358851
     -3.558559     31.926166     31.926166     63.852332
     -3.548549     27.925681     27.925681     55.851362
     -3.538539     24.378016     24.378016     48.756032
     -3.528529     21.288770     21.288770     42.577540
     -3.518519     18.524620     18.524620     37.049240
     -3.508509     15.913534     15.913534     31.827067
     -3.498498     13.353166     13.353166     26.706331
     -3.488488     10.879910     10.879910     21.759821
     -3.478478      8.668820      8.668820     17.337640
     -3.468468      6.969666      6.969666     13.939332
     -3.458458      6.011916      6.011916     12.023832
     -3.448448      5.916582      5.916582     11.833164
     -3.438438      6.641410      6.641410     13.282820
     -3.428428      7.972765      7.972765     15.945529
     -3.418418      9.569767      9.569767     19.139534
     -3.408408     11.057573     11.057573     22.115146
     -3.398398     12.149617     12.149617     24.299234
     -3.388388     12.757989     12.757989     25.515979
     -3.378378     13.043711     13.043711     26.087422
     -3.368368     13.377720     13.377720     26.755439
     -3.358358     14.222747     14.222747     28.445495
     -3.348348     15.981764     15.981764     31.963529
     -3.338338     18.866915     18.866915     37.733830
     -3.328328     22.821840     22.821840     45.643680
     -3.318318     27.501359     27.501359     55.002719
     -3.308308     32.300868     32.300868     64.601735
     -3.298298     36.437602     36.437602     72.875204
     -3.288288     39.094646     39.094646     78.189293
     -3.278278     39.619980     39.619980     79.239960
     -3.268268     37.728459     37.728459     75.456918
     -3.258258     33.620282     33.620282     67.240564
     -3.248248     27.945378     27.945378     55.890756
     -3.238238     21.612650     21.612650     43.225299
     -3.228228     15.523106     15.523106     31.046212
     -3.218218     10.341361     10.341361     20.682721
     -3.208208      6.389238      6.389238     12.778475
     -3.198198      3.675133      3.675133      7.350265
     -3.188188      2.011855      2.011855      4.023710
     -3.178178      1.155350      1.155350      2.310700
     -3.168168      0.914260      0.914260      1.828519
     -3.158158      1.211280      1.211280      2.422560
     -3.148148      2.098842      2.098842      4.197683
     -3.138138      3.736837      3.736837      7.473673
     -3.128128      6.336474      6.336474     12.672949
     -3.118118     10.074044     10.074044     20.148089
     -3.108108     14.988042     14.988042     29.976083
     -3.098098     20.889049     20.889049     41.778097
     -3.088088     27.321827     27.321827     54.643654
     -3.078078     33.610788     33.610788     67.221576
     -3.068068     38.990584     38.990584     77.981169
     -3.058058     42.785026     42.785026     85.570052
     -3.048048     44.571533     44.571533     89.143066
     -3.038038     44.272335     44.272335     88.544669
     -3.028028     42.147120     42.147120     84.294240
     -3.018018     38.705000     38.705000     77.409999
     -3.008008     34.580561     34.580561     69.161122
     -2.997998     30.417037     30.417037     60.834075
     -2.987988     26.778561     26.778561     53.557123
     -2.977978     24.094150     24.094150     48.188299
     -2.967968     22.630756     22.630756     45.261511
     -2.957958     22.495056     22.495056     44.990112
     -2.947948     23.659294     23.659294     47.318588
     -2.937938     25.993102     25.993102     51.986205
     -2.927928     29.276129     29.276129     58.552257
     -2.917918     33.181858     33.181858     66.363716
     -2.907908     37.256332     37.256332     74.512664
     -2.897898     40.938590     40.938590     81.877180
     -2.887888     43.655724     43.655724     87.311448
     -2.877878     44.976144     44.976144     89.952288
     -2.867868     44.753538     44.753538     89.507075
     -2.857858     43.180809     43.180809     86.361619
     -2.847848     40.712546     40.712546     81.425092
     -2.837838     37.884071     37.884071     75.768142
     -2.827828     35.112255     35.112255     70.224511
     -2.817818     32.573472     32.573472     65.146943
     -2.807808     30.211840     30.211840     60.423679
     -2.797798     27.860903     27.860903     55.721806
     -2.787788     25.403397     25.403397     50.806795
     -2.777778     22.878474     22.878474     45.756947
     -2.767768     20.480984     20.480984     40.961969
     -2.757758     18.462469     18.462469     36.924938
     -2.747748     17.000943     17.000943     34.001885
     -2.737738     16.122759     16.122759     32.245517
     -2.727728     15.724532     15.724532     31.449064
     -2.717718     15.677108     15.677108     31.354216
     -2.707708     15.938184     15.938184     31.876367
     -2.697698     16.592253     16.592253     33.184507
     -2.687688     17.783811     17.783811     35.567622
     -2.677678     19.583264     19.583264     39.166528
     -2.667668     21.875935     21.875935     43.751869
     -2.657658     24.356180     24.356180     48.712361
     -2.647648     26.642791     26.642791     53.285583
     -2.637638     28.450747     28.450747     56.901495
     -2.627628     29.714067     29.714067     59.428135
     -2.617618     30.585070     30.585070     61.170141
     -2.607608     31.316657     31.316657     62.633315
     -2.597598     32.107774     32.107774     64.215548
     -2.587588     33.005189     33.005189     66.010378
     -2.577578     33.902136     33.902136     67.804272
     -2.567568     34.603130     34.603130     69.206259
     -2.557558     34.892547     34.892547     69.785095
     -2.547548     34.571601     34.571601     69.143203
     -2.537538     33.479578     33.479578     66.959156
     -2.527528     31.537345     31.537345     63.074689
     -2.517518     28.822534     28.822534     57.645069
     -2.507508     25.635322     25.635322     51.270643
     -2.497497     22.491363     22.491363     44.982726
     -2.487487     20.009057     20.009057     40.018114
     -2.477477     18.721475     18.721475     37.442951
     -2.467467     18.894254     18.894254     37.788508
     -2.457457     20.436184     20.436184     40.872369
     -2.447447     22.947682     22.947682     45.895365
     -2.437437     25.887811     25.887811     51.775622
     -2.427427     28.785213     28.785213     57.570426
     -2.417417     31.397169     31.397169     62.794337
     -2.407407     33.743826     33.743826     67.487652
     -2.397397     36.002380     36.002380     72.004760
     -2.387387     38.313202     38.313202     76.626404
     -2.377377     40.595407     40.595407     81.190814
     -2.367367     42.470502     42.470502     84.941003
     -2.357357     43.346284     43.346284     86.692568
     -2.347347     42.637672     42.637672     85.275343
     -2.337337     40.031140     40.031140     80.062281
     -2.327327     35.671597     35.671597     71.343194
     -2.317317     30.183280     30.183280     60.366560
     -2.307307     24.514579     24.514579     49.029157
     -2.297297     19.676799     19.676799     39.353597
     -2.287287     16.484443     16.484443     32.968887
     -2.277277     15.385167     15.385167     30.770335
     -2.267267     16.413524     16.413524     32.827048
     -2.257257     19.250947     19.250947     38.501895
     -2.247247     23.347847     23.347847     46.695695
     -2.237237     28.061287     28.061287     56.122574
     -2.227227     32.771082     32.771082     65.542164
     -2.217217     36.950995     36.950995     73.901991
     -2.207207     40.190517     40.190517     80.381034
     -2.197197     42.185256     42.185256     84.370511
     -2.187187     42.729744     42.729744     85.459488
     -2.177177     41.740820     41.740820     83.481639
     -2.167167     39.309442     39.309442     78.618885
     -2.157157     35.741488     35.741488     71.482976
     -2.147147     31.534140     31.534140     63.068280
     -2.137137     27.262852     27.262852     54.525705
     -2.127127     23.411642     23.411642     46.823284
     -2.117117     20.226438     20.226438     40.452876
     -2.107107     17.669549     17.669549     35.339099
     -2.097097     15.499252     15.499252     30.998504
     -2.087087     13.427531     13.427531     26.855062
     -2.077077     11.269184     11.269184     22.538368
     -2.067067      9.010684      9.010684     18.021367
     -2.057057      6.781752      6.781752     13.563504
     -2.047047      4.766678      4.766678      9.533356
     -2.037037      3.113757      3.113757      6.227514
     -2.027027      1.885365      1.885365      3.770730
     -2.017017      1.057855      1.057855      2.115711
     -2.007007      0.554046      0.554046      1.108093
     -1.996997      0.283579      0.283579      0.567157
     -1.986987      0.174283      0.174283      0.348566
     -1.976977      0.189985      0.189985      0.379970
     -1.966967      0.337961      0.337961      0.675921
     -1.956957      0.669862      0.669862      1.339724
     -1.946947      1.275890      1.275890      2.551780
     -1.936937      2.267961      2.267961      4.535923
     -1.926927      3.748054      3.748054      7.496107
     -1.916917      5.764506      5.764506     11.529012
     -1.906907      8.269115      8.269115     16.538230
     -1.896897     11.094567     11.094567     22.189134
     -1.886887     13.968346     13.968346     27.936692
     -1.876877     16.565173     16.565173     33.130346
     -1.866867     18.583001     18.583001     37.166002
     -1.856857     19.817880     19.817880     39.635759
     -1.846847     20.214736     20.214736     40.429472
     -1.836837     19.879446     19.879446     39.758892
     -1.826827     19.046201     19.046201     38.092403
     -1.816817     18.003364     18.003364     36.006728
     -1.806807     16.995446     16.995446     33.990891
     -1.796797     16.136513     16.136513     32.273026
     -1.786787     15.377445     15.377445     30.754890
     -1.776777     14.551703     14.551703     29.103407
     -1.766767     13.484498     13.484498     26.968995
     -1.756757     12.112263     12.112263     24.224526
     -1.746747     10.550395     10.550395     21.100791
     -1.736737      9.074589      9.074589     18.149178
     -1.726727      8.026333      8.026333     16.052666
     -1.716717      7.687924      7.687924     15.375847
     -1.706707      8.180468      8.180468     16.360936
     -1.696697      9.422688      9.422688     18.845376
     -1.686687     11.161277     11.161277     22.322554
     -1.676677     13.055928     13.055928     26.111855
     -1.666667     14.781225     14.781225     29.562449
     -1.656657     16.101619     16.101619     32.203237
     -1.646647     16.891586     16.891586     33.783172
     -1.636637     17.106445     17.106445     34.212890
     -1.626627     16.740218     16.740218     33.480436
