# EIG2DOS: Utility for SIESTA to obtain the electronic density of states
#  E. Artacho, Apr 1999, A. Garcia, Apr 2012
#  Nick R. Papior, Feb 2017
# ------------------------------------------
# Eigenvalues calculated from a non-polarized calculation
# Eigenvalues read from siesta.EIG
# Kpoint weights read from siesta.KP
# Using smearing parameter:   0.0500
# Using 1000 points in the energy range
# Selected bands: 1 to: 2981
# Emin, Emax in file for selected band(s):    -27.0464138    218.3094010
# Nbands, Nspin, Nk   =   2981     1     1
# E_F                 =    -4.2995 eV --> (shifted to ZERO)
# Broadening          =     0.0500 eV
#
#        E            N(up)  (=)   N(down)         Ntot
     -5.000000     41.955535     41.955535     83.911071
     -4.989990     46.991607     46.991607     93.983213
     -4.979980     50.908073     50.908073    101.816145
     -4.969970     53.120436     53.120436    106.240871
     -4.959960     53.286671     53.286671    106.573341
     -4.949950     51.418883     51.418883    102.837767
     -4.939940     47.895087     47.895087     95.790173
     -4.929930     43.378083     43.378083     86.756166
     -4.919920     38.688883     38.688883     77.377765
     -4.909910     34.685270     34.685270     69.370541
     -4.899900     32.162601     32.162601     64.325201
     -4.889890     31.753008     31.753008     63.506015
     -4.879880     33.790438     33.790438     67.580876
     -4.869870     38.150045     38.150045     76.300091
     -4.859860     44.136328     44.136328     88.272656
     -4.849850     50.527596     50.527596    101.055192
     -4.839840     55.838561     55.838561    111.677122
     -4.829830     58.747414     58.747414    117.494828
     -4.819820     58.519417     58.519417    117.038834
     -4.809810     55.231034     55.231034    110.462067
     -4.799800     49.689082     49.689082     99.378165
     -4.789790     43.095859     43.095859     86.191717
     -4.779780     36.632267     36.632267     73.264534
     -4.769770     31.143334     31.143334     62.286669
     -4.759760     27.021466     27.021466     54.042933
     -4.749750     24.266083     24.266083     48.532167
     -4.739740     22.629186     22.629186     45.258373
     -4.729730     21.758479     21.758479     43.516957
     -4.719720     21.293550     21.293550     42.587100
     -4.709710     20.913908     20.913908     41.827816
     -4.699700     20.359312     20.359312     40.718625
     -4.689690     19.445561     19.445561     38.891122
     -4.679680     18.091259     18.091259     36.182519
     -4.669670     16.357210     16.357210     32.714419
     -4.659660     14.483619     14.483619     28.967238
     -4.649650     12.899332     12.899332     25.798665
     -4.639640     12.179039     12.179039     24.358078
     -4.629630     12.938158     12.938158     25.876317
     -4.619620     15.674357     15.674357     31.348713
     -4.609610     20.585310     20.585310     41.170620
     -4.599600     27.414109     27.414109     54.828218
     -4.589590     35.390459     35.390459     70.780918
     -4.579580     43.329777     43.329777     86.659554
     -4.569570     49.906200     49.906200     99.812400
     -4.559560     54.035850     54.035850    108.071700
     -4.549550     55.232903     55.232903    110.465806
     -4.539540     53.784168     53.784168    107.568336
     -4.529530     50.651852     50.651852    101.303703
     -4.519520     47.132483     47.132483     94.264967
     -4.509510     44.409513     44.409513     88.819026
     -4.499499     43.179247     43.179247     86.358494
     -4.489489     43.486343     43.486343     86.972686
     -4.479479     44.805413     44.805413     89.610827
     -4.469469     46.303680     46.303680     92.607359
     -4.459459     47.162268     47.162268     94.324535
     -4.449449     46.836515     46.836515     93.673029
     -4.439439     45.183294     45.183294     90.366589
     -4.429429     42.444960     42.444960     84.889920
     -4.419419     39.127565     39.127565     78.255130
     -4.409409     35.832450     35.832450     71.664900
     -4.399399     33.096648     33.096648     66.193296
     -4.389389     31.279116     31.279116     62.558233
     -4.379379     30.508049     30.508049     61.016098
     -4.369369     30.687333     30.687333     61.374667
     -4.359359     31.550031     31.550031     63.100063
     -4.349349     32.742218     32.742218     65.484435
     -4.339339     33.918679     33.918679     67.837358
     -4.329329     34.830912     34.830912     69.661824
     -4.319319     35.387964     35.387964     70.775928
     -4.309309     35.674530     35.674530     71.349060
     -4.299299     35.919943     35.919943     71.839887
     -4.289289     36.423792     36.423792     72.847585
     -4.279279     37.453578     37.453578     74.907156
     -4.269269     39.135314     39.135314     78.270629
     -4.259259     41.363316     41.363316     82.726632
     -4.249249     43.763427     43.763427     87.526854
     -4.239239     45.745918     45.745918     91.491836
     -4.229229     46.663007     46.663007     93.326015
     -4.219219     46.035595     46.035595     92.071190
     -4.209209     43.758364     43.758364     87.516727
     -4.199199     40.176394     40.176394     80.352789
     -4.189189     35.977604     35.977604     71.955209
     -4.179179     31.942300     31.942300     63.884599
     -4.169169     28.671799     28.671799     57.343598
     -4.159159     26.427171     26.427171     52.854343
     -4.149149     25.142169     25.142169     50.284337
     -4.139139     24.578365     24.578365     49.156731
     -4.129129     24.523430     24.523430     49.046861
     -4.119119     24.924569     24.924569     49.849139
     -4.109109     25.890894     25.890894     51.781788
     -4.099099     27.565561     27.565561     55.131123
     -4.089089     29.935122     29.935122     59.870245
     -4.079079     32.684707     32.684707     65.369413
     -4.069069     35.199177     35.199177     70.398354
     -4.059059     36.742920     36.742920     73.485841
     -4.049049     36.750351     36.750351     73.500701
     -4.039039     35.084067     35.084067     70.168134
     -4.029029     32.122596     32.122596     64.245192
     -4.019019     28.630306     28.630306     57.260612
     -4.009009     25.482669     25.482669     50.965338
     -3.998999     23.391717     23.391717     46.783434
     -3.988989     22.755513     22.755513     45.511026
     -3.978979     23.664408     23.664408     47.328815
     -3.968969     26.004112     26.004112     52.008225
     -3.958959     29.562177     29.562177     59.124354
     -3.948949     34.080890     34.080890     68.161780
     -3.938939     39.264916     39.264916     78.529833
     -3.928929     44.790392     44.790392     89.580784
     -3.918919     50.347533     50.347533    100.695065
     -3.908909     55.700910     55.700910    111.401820
     -3.898899     60.715836     60.715836    121.431673
     -3.888889     65.308639     65.308639    130.617277
     -3.878879     69.329483     69.329483    138.658966
     -3.868869     72.443792     72.443792    144.887585
     -3.858859     74.101168     74.101168    148.202335
     -3.848849     73.648258     73.648258    147.296516
     -3.838839     70.566576     70.566576    141.133152
     -3.828829     64.738505     64.738505    129.477009
     -3.818819     56.611933     56.611933    113.223866
     -3.808809     47.170614     47.170614     94.341228
     -3.798799     37.706268     37.706268     75.412537
     -3.788789     29.479395     29.479395     58.958790
     -3.778779     23.398660     23.398660     46.797320
     -3.768769     19.827049     19.827049     39.654098
     -3.758759     18.559724     18.559724     37.119447
     -3.748749     18.953837     18.953837     37.907674
     -3.738739     20.152155     20.152155     40.304309
     -3.728729     21.333384     21.333384     42.666769
     -3.718719     21.930244     21.930244     43.860489
     -3.708709     21.769334     21.769334     43.538668
     -3.698699     21.101351     21.101351     42.202702
     -3.688689     20.509407     20.509407     41.018814
     -3.678679     20.710634     20.710634     41.421268
     -3.668669     22.299920     22.299920     44.599841
     -3.658659     25.514029     25.514029     51.028058
     -3.648649     30.102587     30.102587     60.205174
     -3.638639     35.364785     35.364785     70.729569
     -3.628629     40.348262     40.348262     80.696525
     -3.618619     44.135103     44.135103     88.270206
     -3.608609     46.099545     46.099545     92.199090
     -3.598599     46.040688     46.040688     92.081376
     -3.588589     44.161231     44.161231     88.322462
     -3.578579     40.935670     40.935670     81.871340
     -3.568569     36.943730     36.943730     73.887461
     -3.558559     32.727858     32.727858     65.455716
     -3.548549     28.696430     28.696430     57.392859
     -3.538539     25.072359     25.072359     50.144718
     -3.528529     21.888183     21.888183     43.776366
     -3.518519     19.033349     19.033349     38.066698
     -3.508509     16.346976     16.346976     32.693952
     -3.498498     13.724127     13.724127     27.448254
     -3.488488     11.189357     11.189357     22.378715
     -3.478478      8.904873      8.904873     17.809745
     -3.468468      7.114024      7.114024     14.228048
     -3.458458      6.049927      6.049927     12.099854
     -3.448448      5.846783      5.846783     11.693565
     -3.438438      6.481395      6.481395     12.962790
     -3.428428      7.759201      7.759201     15.518402
     -3.418418      9.351242      9.351242     18.702484
     -3.408408     10.880825     10.880825     21.761650
     -3.398398     12.042709     12.042709     24.085418
     -3.388388     12.716574     12.716574     25.433147
     -3.378378     13.026378     13.026378     26.052756
     -3.368368     13.312959     13.312959     26.625917
     -3.358358     14.025435     14.025435     28.050869
     -3.348348     15.574510     15.574510     31.149020
     -3.338338     18.202231     18.202231     36.404462
     -3.328328     21.902717     21.902717     43.805434
     -3.318318     26.397038     26.397038     52.794075
     -3.308308     31.150878     31.150878     62.301756
     -3.298298     35.434789     35.434789     70.869577
     -3.288288     38.442798     38.442798     76.885596
     -3.278278     39.474740     39.474740     78.949479
     -3.268268     38.143935     38.143935     76.287870
     -3.258258     34.526942     34.526942     69.053883
     -3.248248     29.172020     29.172020     58.344039
     -3.238238     22.943193     22.943193     45.886385
     -3.228228     16.761919     16.761919     33.523838
     -3.218218     11.359604     11.359604     22.719208
     -3.208208      7.138240      7.138240     14.276479
     -3.198198      4.170611      4.170611      8.341222
     -3.188188      2.303852      2.303852      4.607704
     -3.178178      1.299203      1.299203      2.598407
     -3.168168      0.951494      0.951494      1.902989
     -3.158158      1.162253      1.162253      2.324506
     -3.148148      1.965322      1.965322      3.930644
     -3.138138      3.512334      3.512334      7.024669
     -3.128128      6.022470      6.022470     12.044940
     -3.118118      9.698681      9.698681     19.397363
     -3.108108     14.620040     14.620040     29.240079
     -3.098098     20.636302     20.636302     41.272604
     -3.088088     27.306119     27.306119     54.612239
     -3.078078     33.920238     33.920238     67.840475
     -3.068068     39.626870     39.626870     79.253740
     -3.058058     43.633316     43.633316     87.266631
     -3.048048     45.416471     45.416471     90.832941
     -3.038038     44.861197     44.861197     89.722394
     -3.028028     42.273416     42.273416     84.546832
     -3.018018     38.272071     38.272071     76.544143
     -3.008008     33.616940     33.616940     67.233880
     -2.997998     29.045471     29.045471     58.090942
     -2.987988     25.166160     25.166160     50.332320
     -2.977978     22.413459     22.413459     44.826918
     -2.967968     21.042230     21.042230     42.084460
     -2.957958     21.139776     21.139776     42.279551
     -2.947948     22.645918     22.645918     45.291836
     -2.937938     25.376661     25.376661     50.753323
     -2.927928     29.042781     29.042781     58.085563
     -2.917918     33.256072     33.256072     66.512145
     -2.907908     37.532525     37.532525     75.065049
     -2.897898     41.321187     41.321187     82.642375
     -2.887888     44.085576     44.085576     88.171153
     -2.877878     45.431582     45.431582     90.863164
     -2.867868     45.231789     45.231789     90.463577
     -2.857858     43.676576     43.676576     87.353153
     -2.847848     41.208652     41.208652     82.417304
     -2.837838     38.357767     38.357767     76.715534
     -2.827828     35.549198     35.549198     71.098395
     -2.817818     32.976946     32.976946     65.953892
     -2.807808     30.599283     30.599283     61.198567
     -2.797798     28.249268     28.249268     56.498536
     -2.787788     25.792959     25.792959     51.585918
     -2.777778     23.246169     23.246169     46.492339
     -2.767768     20.788259     20.788259     41.576518
     -2.757758     18.672759     18.672759     37.345519
     -2.747748     17.094755     17.094755     34.189511
     -2.737738     16.099038     16.099038     32.198077
     -2.727728     15.586096     15.586096     31.172192
     -2.717718     15.410133     15.410133     30.820266
     -2.707708     15.502807     15.502807     31.005613
     -2.697698     15.937207     15.937207     31.874413
     -2.687688     16.883273     16.883273     33.766547
     -2.677678     18.477015     18.477015     36.954031
     -2.667668     20.686124     20.686124     41.372248
     -2.657658     23.263020     23.263020     46.526040
     -2.647648     25.824332     25.824332     51.648664
     -2.637638     28.014963     28.014963     56.029927
     -2.627628     29.658847     29.658847     59.317695
     -2.617618     30.806796     30.806796     61.613592
     -2.607608     31.660098     31.660098     63.320196
     -2.597598     32.428299     32.428299     64.856599
     -2.587588     33.213155     33.213155     66.426310
     -2.577578     33.976732     33.976732     67.953463
     -2.567568     34.582925     34.582925     69.165850
     -2.557558     34.857134     34.857134     69.714269
     -2.547548     34.621447     34.621447     69.242895
     -2.537538     33.711390     33.711390     67.422779
     -2.527528     32.012140     32.012140     64.024281
     -2.517518     29.533732     29.533732     59.067464
     -2.507508     26.493479     26.493479     52.986958
     -2.497497     23.339693     23.339693     46.679386
     -2.487487     20.669025     20.669025     41.338050
     -2.477477     19.050873     19.050873     38.101746
     -2.467467     18.832635     18.832635     37.665270
     -2.457457     20.018750     20.018750     40.037500
     -2.447447     22.283932     22.283932     44.567864
     -2.437437     25.117004     25.117004     50.234009
     -2.427427     28.029494     28.029494     56.058987
     -2.417417     30.731943     30.731943     61.463885
     -2.407407     33.195109     33.195109     66.390217
     -2.397397     35.567559     35.567559     71.135118
     -2.387387     37.991481     37.991481     75.982963
     -2.377377     40.411372     40.411372     80.822745
     -2.367367     42.478905     42.478905     84.957810
     -2.357357     43.615255     43.615255     87.230511
     -2.347347     43.217284     43.217284     86.434569
     -2.337337     40.921318     40.921318     81.842637
     -2.327327     36.804813     36.804813     73.609626
     -2.317317     31.431720     31.431720     62.863440
     -2.307307     25.720192     25.720192     51.440384
     -2.297297     20.691630     20.691630     41.383259
     -2.287287     17.204327     17.204327     34.408654
     -2.277277     15.764598     15.764598     31.529196
     -2.267267     16.459850     16.459850     32.919700
     -2.257257     19.005619     19.005619     38.011239
     -2.247247     22.866603     22.866603     45.733206
     -2.237237     27.402972     27.402972     54.805944
     -2.227227     31.998307     31.998307     63.996614
     -2.217217     36.138303     36.138303     72.276606
     -2.207207     39.430548     39.430548     78.861097
     -2.197197     41.583453     41.583453     83.166906
     -2.187187     42.384036     42.384036     84.768073
     -2.177177     41.712176     41.712176     83.424351
     -2.167167     39.596936     39.596936     79.193872
     -2.157157     36.276470     36.276470     72.552940
     -2.147147     32.200344     32.200344     64.400687
     -2.137137     27.936168     27.936168     55.872337
     -2.127127     24.002177     24.002177     48.004354
     -2.117117     20.703363     20.703363     41.406727
     -2.107107     18.058099     18.058099     36.116198
     -2.097097     15.854014     15.854014     31.708028
     -2.087087     13.797981     13.797981     27.595962
     -2.077077     11.675288     11.675288     23.350575
     -2.067067      9.438239      9.438239     18.876479
     -2.057057      7.195101      7.195101     14.390203
     -2.047047      5.128218      5.128218     10.256435
     -2.037037      3.399192      3.399192      6.798385
     -2.027027      2.089104      2.089104      4.178209
     -2.017017      1.189499      1.189499      2.378998
     -2.007007      0.630622      0.630622      1.261243
     -1.996997      0.322061      0.322061      0.644121
     -1.986987      0.186689      0.186689      0.373379
     -1.976977      0.181106      0.181106      0.362212
     -1.966967      0.304808      0.304808      0.609616
     -1.956957      0.602243      0.602243      1.204487
     -1.946947      1.158364      1.158364      2.316728
     -1.936937      2.083926      2.083926      4.167852
     -1.926927      3.486215      3.486215      6.972430
     -1.916917      5.426430      5.426430     10.852860
     -1.906907      7.874862      7.874862     15.749724
     -1.896897     10.682901     10.682901     21.365803
     -1.886887     13.589676     13.589676     27.179352
     -1.876877     16.268709     16.268709     32.537418
     -1.866867     18.402653     18.402653     36.805306
     -1.856857     19.762263     19.762263     39.524527
     -1.846847     20.264926     20.264926     40.529851
     -1.836837     19.995202     19.995202     39.990404
     -1.826827     19.178850     19.178850     38.357699
     -1.816817     18.111645     18.111645     36.223289
     -1.806807     17.059085     17.059085     34.118170
     -1.796797     16.161347     16.161347     32.322694
     -1.786787     15.387069     15.387069     30.774139
     -1.776777     14.564776     14.564776     29.129552
     -1.766767     13.482639     13.482639     26.965277
     -1.756757     12.008146     12.008146     24.016292
     -1.746747     10.167503     10.167503     20.335007
     -1.736737      8.150133      8.150133     16.300266
     -1.726727      6.248283      6.248283     12.496566
     -1.716717      4.773700      4.773700      9.547399
     -1.706707      3.992861      3.992861      7.985722
     -1.696697      4.095377      4.095377      8.190754
     -1.686687      5.180771      5.180771     10.361542
     -1.676677      7.239217      7.239217     14.478435
     -1.666667     10.117286     10.117286     20.234573
     -1.656657     13.487119     13.487119     26.974238
     -1.646647     16.855054     16.855054     33.710107
     -1.636637     19.637847     19.637847     39.275694
     -1.626627     21.302100     21.302100     42.604200
