# EIG2DOS: Utility for SIESTA to obtain the electronic density of states
#  E. Artacho, Apr 1999, A. Garcia, Apr 2012
#  Nick R. Papior, Feb 2017
# ------------------------------------------
# Eigenvalues calculated from a non-polarized calculation
# Eigenvalues read from siesta.EIG
# Kpoint weights read from siesta.KP
# Using smearing parameter:   0.0500
# Using 1000 points in the energy range
# Selected bands: 1 to: 2981
# Emin, Emax in file for selected band(s):    -27.0453092    218.3148560
# Nbands, Nspin, Nk   =   2981     1     1
# E_F                 =    -4.2990 eV --> (shifted to ZERO)
# Broadening          =     0.0500 eV
#
#        E            N(up)  (=)   N(down)         Ntot
     -5.000000     45.812138     45.812138     91.624277
     -4.989990     47.991940     47.991940     95.983881
     -4.979980     48.860416     48.860416     97.720832
     -4.969970     48.448848     48.448848     96.897696
     -4.959960     46.890581     46.890581     93.781163
     -4.949950     44.393599     44.393599     88.787198
     -4.939940     41.231917     41.231917     82.463833
     -4.929930     37.755405     37.755405     75.510811
     -4.919920     34.406857     34.406857     68.813715
     -4.909910     31.726448     31.726448     63.452897
     -4.899900     30.316327     30.316327     60.632654
     -4.889890     30.737979     30.737979     61.475957
     -4.879880     33.336120     33.336120     66.672240
     -4.869870     38.031251     38.031251     76.062502
     -4.859860     44.177491     44.177491     88.354983
     -4.849850     50.597793     50.597793    101.195586
     -4.839840     55.849740     55.849740    111.699479
     -4.829830     58.656329     58.656329    117.312658
     -4.819820     58.326768     58.326768    116.653537
     -4.809810     54.972189     54.972189    109.944378
     -4.799800     49.416746     49.416746     98.833492
     -4.789790     42.860528     42.860528     85.721056
     -4.779780     36.467459     36.467459     72.934918
     -4.769770     31.059386     31.059386     62.118771
     -4.759760     27.007389     27.007389     54.014779
     -4.749750     24.296403     24.296403     48.592807
     -4.739740     22.672625     22.672625     45.345249
     -4.729730     21.786357     21.786357     43.572714
     -4.719720     21.286467     21.286467     42.572935
     -4.709710     20.865416     20.865416     41.730831
     -4.699700     20.275814     20.275814     40.551629
     -4.689690     19.342944     19.342944     38.685888
     -4.679680     17.990171     17.990171     35.980342
     -4.669670     16.279338     16.279338     32.558675
     -4.659660     14.450239     14.450239     28.900477
     -4.649650     12.931392     12.931392     25.862784
     -4.639640     12.296409     12.296409     24.592819
     -4.629630     13.155603     13.155603     26.311206
     -4.619620     15.993643     15.993643     31.987285
     -4.609610     20.986093     20.986093     41.972185
     -4.599600     27.849037     27.849037     55.698074
     -4.589590     35.790135     35.790135     71.580269
     -4.579580     43.619502     43.619502     87.239004
     -4.569570     50.029965     50.029965    100.059929
     -4.559560     53.977549     53.977549    107.955098
     -4.549550     55.024307     55.024307    110.048614
     -4.539540     53.494992     53.494992    106.989984
     -4.529530     50.366309     50.366309    100.732618
     -4.519520     46.923646     46.923646     93.847292
     -4.509510     44.323760     44.323760     88.647519
     -4.499499     43.238098     43.238098     86.476197
     -4.489489     43.705268     43.705268     87.410536
     -4.479479     45.222161     45.222161     90.444321
     -4.469469     47.003844     47.003844     94.007688
     -4.459459     48.287191     48.287191     96.574382
     -4.449449     48.559211     48.559211     97.118422
     -4.439439     47.645164     47.645164     95.290328
     -4.429429     45.662745     45.662745     91.325489
     -4.419419     42.903396     42.903396     85.806792
     -4.409409     39.717163     39.717163     79.434327
     -4.399399     36.450069     36.450069     72.900139
     -4.389389     33.432397     33.432397     66.864793
     -4.379379     30.976829     30.976829     61.953658
     -4.369369     29.344808     29.344808     58.689616
     -4.359359     28.677179     28.677179     57.354359
     -4.349349     28.930097     28.930097     57.860195
     -4.339339     29.870981     29.870981     59.741962
     -4.329329     31.158241     31.158241     62.316483
     -4.319319     32.475135     32.475135     64.950270
     -4.309309     33.652291     33.652291     67.304581
     -4.299299     34.719326     34.719326     69.438652
     -4.289289     35.864525     35.864525     71.729051
     -4.279279     37.323323     37.323323     74.646647
     -4.269269     39.239230     39.239230     78.478460
     -4.259259     41.544933     41.544933     83.089866
     -4.249249     43.908188     43.908188     87.816377
     -4.239239     45.778611     45.778611     91.557222
     -4.229229     46.545174     46.545174     93.090348
     -4.219219     45.763744     45.763744     91.527489
     -4.209209     43.360751     43.360751     86.721502
     -4.199199     39.705791     39.705791     79.411582
     -4.189189     35.499342     35.499342     70.998685
     -4.179179     31.519593     31.519593     63.039186
     -4.169169     28.352307     28.352307     56.704615
     -4.159159     26.234884     26.234884     52.469767
     -4.149149     25.076952     25.076952     50.153905
     -4.139139     24.622727     24.622727     49.245454
     -4.129129     24.653224     24.653224     49.306448
     -4.119119     25.118609     25.118609     50.237218
     -4.109109     26.134707     26.134707     52.269413
     -4.099099     27.847419     27.847419     55.694838
     -4.089089     30.237132     30.237132     60.474264
     -4.079079     32.975548     32.975548     65.951096
     -4.069069     35.435150     35.435150     70.870299
     -4.059059     36.879367     36.879367     73.758735
     -4.049049     36.758709     36.758709     73.517418
     -4.039039     34.965334     34.965334     69.930668
     -4.029029     31.909346     31.909346     63.818691
     -4.019019     28.375849     28.375849     56.751697
     -4.009009     25.243207     25.243207     50.486414
     -3.998999     23.210478     23.210478     46.420957
     -3.988989     22.655284     22.655284     45.310569
     -3.978979     23.649103     23.649103     47.298205
     -3.968969     26.065340     26.065340     52.130680
     -3.958959     29.685903     29.685903     59.371807
     -3.948949     34.251687     34.251687     68.503373
     -3.938939     39.468162     39.468162     78.936323
     -3.928929     45.013802     45.013802     90.027605
     -3.918919     50.582299     50.582299    101.164599
     -3.908909     55.941287     55.941287    111.882574
     -3.898899     60.956069     60.956069    121.912138
     -3.888889     65.537937     65.537937    131.075875
     -3.878879     69.527849     69.527849    139.055698
     -3.868869     72.582056     72.582056    145.164113
     -3.858859     74.146889     74.146889    148.293779
     -3.848849     73.576082     73.576082    147.152164
     -3.838839     70.369036     70.369036    140.738072
     -3.828829     64.432582     64.432582    128.865164
     -3.818819     56.238227     56.238227    112.476455
     -3.808809     46.784929     46.784929     93.569857
     -3.798799     37.366312     37.366312     74.732624
     -3.788789     29.230893     29.230893     58.461786
     -3.778779     23.265009     23.265009     46.530019
     -3.768769     19.805150     19.805150     39.610299
     -3.758759     18.622646     18.622646     37.245291
     -3.748749     19.059264     19.059264     38.118528
     -3.738739     20.254320     20.254320     40.508640
     -3.728729     21.395518     21.395518     42.791036
     -3.718719     21.934350     21.934350     43.868701
     -3.708709     21.720609     21.720609     43.441219
     -3.698699     21.025766     21.025766     42.051532
     -3.688689     20.444834     20.444834     40.889667
     -3.678679     20.693993     20.693993     41.387985
     -3.668669     22.354462     22.354462     44.708924
     -3.658659     25.641260     25.641260     51.282521
     -3.648649     30.281900     30.281900     60.563801
     -3.638639     35.560801     35.560801     71.121602
     -3.628629     40.522502     40.522502     81.045004
     -3.618619     44.256837     44.256837     88.513674
     -3.608609     46.151681     46.151681     92.303362
     -3.598599     46.019782     46.019782     92.039563
     -3.588589     44.073871     44.073871     88.147741
     -3.578579     40.794473     40.794473     81.588946
     -3.568569     36.764707     36.764707     73.529413
     -3.558559     32.528675     32.528675     65.057349
     -3.548549     28.494260     28.494260     56.988520
     -3.538539     24.880999     24.880999     49.761998
     -3.528529     21.715692     21.715692     43.431383
     -3.518519     18.881843     18.881843     37.763687
     -3.508509     16.215017     16.215017     32.430033
     -3.498498     13.610381     13.610381     27.220762
     -3.488488     11.095459     11.095459     22.190917
     -3.478478      8.836026      8.836026     17.672052
     -3.468468      7.077249      7.077249     14.154498
     -3.458458      6.050864      6.050864     12.101728
     -3.448448      5.886304      5.886304     11.772609
     -3.438438      6.553172      6.553172     13.106344
     -3.428428      7.849252      7.849252     15.698505
     -3.418418      9.440263      9.440263     18.880525
     -3.408408     10.949304     10.949304     21.898608
     -3.398398     12.077586     12.077586     24.155172
     -3.388388     12.717036     12.717036     25.434072
     -3.378378     13.006363     13.006363     26.012727
     -3.368368     13.299176     13.299176     26.598352
     -3.358358     14.051478     14.051478     28.102956
     -3.348348     15.672677     15.672677     31.345355
     -3.338338     18.394596     18.394596     36.789192
     -3.328328     22.192616     22.192616     44.385231
     -3.318318     26.762565     26.762565     53.525131
     -3.308308     31.543267     31.543267     63.086534
     -3.298298     35.785018     35.785018     71.570035
     -3.288288     38.677567     38.677567     77.355133
     -3.278278     39.538070     39.538070     79.076141
     -3.268268     38.016044     38.016044     76.032088
     -3.258258     34.231461     34.231461     68.462921
     -3.248248     28.767631     28.767631     57.535262
     -3.238238     22.503498     22.503498     45.006996
     -3.228228     16.352937     16.352937     32.705874
     -3.218218     11.024240     11.024240     22.048479
     -3.208208      6.892130      6.892130     13.784261
     -3.198198      4.007654      4.007654      8.015307
     -3.188188      2.206104      2.206104      4.412207
     -3.178178      1.245813      1.245813      2.491627
     -3.168168      0.923441      0.923441      1.846881
     -3.158158      1.141824      1.141824      2.283648
     -3.148148      1.930306      1.930306      3.860612
     -3.138138      3.425176      3.425176      6.850351
     -3.128128      5.815656      5.815656     11.631311
     -3.118118      9.260794      9.260794     18.521589
     -3.108108     13.792029     13.792029     27.584059
     -3.098098     19.231592     19.231592     38.463184
     -3.088088     25.165410     25.165410     50.330820
     -3.078078     30.997321     30.997321     61.994642
     -3.068068     36.077484     36.077484     72.154968
     -3.058058     39.858025     39.858025     79.716049
     -3.048048     42.010231     42.010231     84.020462
     -3.038038     42.457837     42.457837     84.915674
     -3.028028     41.330962     41.330962     82.661923
     -3.018018     38.890804     38.890804     77.781608
     -3.008008     35.481803     35.481803     70.963606
     -2.997998     31.530751     31.530751     63.061501
     -2.987988     27.562079     27.562079     55.124159
     -2.977978     24.176888     24.176888     48.353777
     -2.967968     21.967253     21.967253     43.934507
     -2.957958     21.386194     21.386194     42.772389
     -2.947948     22.628224     22.628224     45.256449
     -2.937938     25.571605     25.571605     51.143211
     -2.927928     29.799463     29.799463     59.598925
     -2.917918     34.681868     34.681868     69.363737
     -2.907908     39.488283     39.488283     78.976567
     -2.897898     43.509067     43.509067     87.018134
     -2.887888     46.176723     46.176723     92.353446
     -2.877878     47.174685     47.174685     94.349370
     -2.867868     46.505858     46.505858     93.011716
     -2.857858     44.484849     44.484849     88.969698
     -2.847848     41.635585     41.635585     83.271170
     -2.837838     38.517940     38.517940     77.035880
     -2.827828     35.548851     35.548851     71.097702
     -2.817818     32.895550     32.895550     65.791099
     -2.807808     30.488021     30.488021     60.976042
     -2.797798     28.138626     28.138626     56.277252
     -2.787788     25.701739     25.701739     51.403478
     -2.777778     23.187062     23.187062     46.374123
     -2.767768     20.768761     20.768761     41.537523
     -2.757758     18.693368     18.693368     37.386737
     -2.747748     17.147952     17.147952     34.295904
     -2.737738     16.171973     16.171973     32.343946
     -2.727728     15.667253     15.667253     31.334507
     -2.717718     15.496967     15.496967     30.993934
     -2.707708     15.605467     15.605467     31.210935
     -2.697698     16.074642     16.074642     32.149285
     -2.687688     17.072096     17.072096     34.144191
     -2.677678     18.718390     18.718390     37.436781
     -2.667668     20.958396     20.958396     41.916793
     -2.657658     23.525620     23.525620     47.051239
     -2.647648     26.032414     26.032414     52.064827
     -2.637638     28.137701     28.137701     56.275402
     -2.627628     29.691697     29.691697     59.383393
     -2.617618     30.771386     30.771386     61.542772
     -2.607608     31.592692     31.592692     63.185385
     -2.597598     32.363980     32.363980     64.727960
     -2.587588     33.173914     33.173914     66.347829
     -2.577578     33.967467     33.967467     67.934935
     -2.567568     34.593867     34.593867     69.187735
     -2.557558     34.868813     34.868813     69.737625
     -2.547548     34.609919     34.609919     69.219839
     -2.537538     33.654282     33.654282     67.308565
     -2.527528     31.896526     31.896526     63.793052
     -2.517518     29.364342     29.364342     58.728685
     -2.507508     26.296884     26.296884     52.593768
     -2.497497     23.160128     23.160128     46.320257
     -2.487487     20.555315     20.555315     41.110630
     -2.477477     19.038952     19.038952     38.077904
     -2.467467     18.931219     18.931219     37.862439
     -2.457457     20.204769     20.204769     40.409538
     -2.447447     22.510048     22.510048     45.020097
     -2.437437     25.328106     25.328106     50.656211
     -2.427427     28.181101     28.181101     56.362202
     -2.417417     30.802853     30.802853     61.605705
     -2.407407     33.189559     33.189559     66.379118
     -2.397397     35.507229     35.507229     71.014457
     -2.387387     37.902088     37.902088     75.804176
     -2.377377     40.310369     40.310369     80.620738
     -2.367367     42.369358     42.369358     84.738715
     -2.357357     43.487618     43.487618     86.975236
     -2.347347     43.057257     43.057257     86.114514
     -2.337337     40.719654     40.719654     81.439309
     -2.327327     36.564518     36.564518     73.129037
     -2.317317     31.169621     31.169621     62.339243
     -2.307307     25.462669     25.462669     50.925339
     -2.297297     20.467064     20.467064     40.934129
     -2.287287     17.035991     17.035991     34.071982
     -2.277277     15.666779     15.666779     31.333559
     -2.267267     16.437723     16.437723     32.875446
     -2.257257     19.057347     19.057347     38.114694
     -2.247247     22.985478     22.985478     45.970955
     -2.237237     27.578142     27.578142     55.156284
     -2.227227     32.214044     32.214044     64.428088
     -2.217217     36.372927     36.372927     72.745855
     -2.207207     39.656661     39.656661     79.313322
     -2.197197     41.770793     41.770793     83.541587
     -2.187187     42.505248     42.505248     85.010496
     -2.177177     41.750143     41.750143     83.500287
     -2.167167     39.550841     39.550841     79.101682
     -2.157157     36.163255     36.163255     72.326510
     -2.147147     32.049722     32.049722     64.099444
     -2.137137     27.780366     27.780366     55.560732
     -2.127127     23.864665     23.864665     47.729330
     -2.117117     20.591865     20.591865     41.183731
     -2.107107     17.965123     17.965123     35.930247
     -2.097097     15.764132     15.764132     31.528264
     -2.087087     13.697550     13.697550     27.395099
     -2.077077     11.559483     11.559483     23.118966
     -2.067067      9.312428      9.312428     18.624856
     -2.057057      7.071067      7.071067     14.142134
     -2.047047      5.018280      5.018280     10.036561
     -2.037037      3.311527      3.311527      6.623053
     -2.027027      2.026016      2.026016      4.052033
     -2.017017      1.148448      1.148448      2.296896
     -2.007007      0.606606      0.606606      1.213212
     -1.996997      0.309972      0.309972      0.619943
     -1.986987      0.182907      0.182907      0.365813
     -1.976977      0.184283      0.184283      0.368567
     -1.966967      0.316112      0.316112      0.632224
     -1.956957      0.625200      0.625200      1.250400
     -1.946947      1.198189      1.198189      2.396378
     -1.936937      2.146066      2.146066      4.292131
     -1.926927      3.574015      3.574015      7.148031
     -1.916917      5.538438      5.538438     11.076877
     -1.906907      8.002914      8.002914     16.005829
     -1.896897     10.812353     10.812353     21.624707
     -1.886887     13.702485     13.702485     27.404970
     -1.876877     16.348710     16.348710     32.697419
     -1.866867     18.441076     18.441076     36.882153
     -1.856857     19.761150     19.761150     39.522299
     -1.846847     20.236881     20.236881     40.473763
     -1.836837     19.959430     19.959430     39.918859
     -1.826827     19.154719     19.154719     38.309438
     -1.816817     18.111860     18.111860     36.223720
     -1.806807     17.084736     17.084736     34.169472
     -1.796797     16.200848     16.200848     32.401695
     -1.786787     15.419950     15.419950     30.839901
     -1.776777     14.569479     14.569479     29.138958
     -1.766767     13.445529     13.445529     26.891058
     -1.756757     11.930216     11.930216     23.860432
     -1.746747     10.066420     10.066420     20.132840
     -1.736737      8.057772      8.057772     16.115544
     -1.726727      6.205802      6.205802     12.411603
     -1.716717      4.826020      4.826020      9.652041
     -1.706707      4.182409      4.182409      8.364818
     -1.696697      4.453083      4.453083      8.906167
     -1.686687      5.713135      5.713135     11.426270
     -1.676677      7.914198      7.914198     15.828396
     -1.666667     10.856524     10.856524     21.713048
     -1.656657     14.173233     14.173233     28.346465
     -1.646647     17.357563     17.357563     34.715126
     -1.636637     19.851233     19.851233     39.702466
     -1.626627     21.180735     21.180735     42.361471
