# EIG2DOS: Utility for SIESTA to obtain the electronic density of states
#  E. Artacho, Apr 1999, A. Garcia, Apr 2012
#  Nick R. Papior, Feb 2017
# ------------------------------------------
# Eigenvalues calculated from a non-polarized calculation
# Eigenvalues read from siesta.EIG
# Kpoint weights read from siesta.KP
# Using smearing parameter:   0.0500
# Using 1000 points in the energy range
# Selected bands: 1 to: 2981
# Emin, Emax in file for selected band(s):    -27.2047274    218.3496850
# Nbands, Nspin, Nk   =   2981     1     1
# E_F                 =    -4.2564 eV --> (shifted to ZERO)
# Broadening          =     0.0500 eV
#
#        E            N(up)  (=)   N(down)         Ntot
     -5.000000     34.648221     34.648221     69.296441
     -4.989990     38.299961     38.299961     76.599922
     -4.979980     41.330774     41.330774     82.661548
     -4.969970     43.266608     43.266608     86.533217
     -4.959960     43.790175     43.790175     87.580351
     -4.949950     42.830461     42.830461     85.660923
     -4.939940     40.592161     40.592161     81.184322
     -4.929930     37.525349     37.525349     75.050697
     -4.919920     34.258857     34.258857     68.517715
     -4.909910     31.520111     31.520111     63.040222
     -4.899900     30.042611     30.042611     60.085222
     -4.889890     30.442146     30.442146     60.884292
     -4.879880     33.050764     33.050764     66.101528
     -4.869870     37.740801     37.740801     75.481602
     -4.859860     43.822852     43.822852     87.645704
     -4.849850     50.113676     50.113676    100.227352
     -4.839840     55.211874     55.211874    110.423749
     -4.829830     57.910295     57.910295    115.820591
     -4.819820     57.580797     57.580797    115.161594
     -4.809810     54.357961     54.357961    108.715922
     -4.799800     49.040576     49.040576     98.081152
     -4.789790     42.770048     42.770048     85.540095
     -4.779780     36.645804     36.645804     73.291608
     -4.769770     31.441540     31.441540     62.883080
     -4.759760     27.504238     27.504238     55.008476
     -4.749750     24.814960     24.814960     49.629920
     -4.739740     23.129455     23.129455     46.258911
     -4.729730     22.116818     22.116818     44.233636
     -4.719720     21.451807     21.451807     42.903615
     -4.709710     20.856699     20.856699     41.713398
     -4.699700     20.113094     20.113094     40.226188
     -4.689690     19.071246     19.071246     38.142491
     -4.679680     17.677193     17.677193     35.354386
     -4.669670     16.019424     16.019424     32.038847
     -4.659660     14.374801     14.374801     28.749603
     -4.649650     13.220489     13.220489     26.440978
     -4.639640     13.182930     13.182930     26.365859
     -4.629630     14.913866     14.913866     29.827731
     -4.619620     18.907928     18.907928     37.815856
     -4.609610     25.300901     25.300901     50.601802
     -4.599600     33.710317     33.710317     67.420634
     -4.589590     43.192865     43.192865     86.385730
     -4.579580     52.378798     52.378798    104.757597
     -4.569570     59.788644     59.788644    119.577288
     -4.559560     64.253366     64.253366    128.506731
     -4.549550     65.287485     65.287485    130.574971
     -4.539540     63.255012     63.255012    126.510024
     -4.529530     59.240935     59.240935    118.481870
     -4.519520     54.667448     54.667448    109.334896
     -4.509510     50.808699     50.808699    101.617397
     -4.499499     48.399176     48.399176     96.798352
     -4.489489     47.478769     47.478769     94.957538
     -4.479479     47.503972     47.503972     95.007943
     -4.469469     47.641510     47.641510     95.283020
     -4.459459     47.102040     47.102040     94.204079
     -4.449449     45.385918     45.385918     90.771836
     -4.439439     42.379133     42.379133     84.758266
     -4.429429     38.313254     38.313254     76.626508
     -4.419419     33.650727     33.650727     67.301453
     -4.409409     28.960169     28.960169     57.920338
     -4.399399     24.815851     24.815851     49.631702
     -4.389389     21.719151     21.719151     43.438303
     -4.379379     20.024578     20.024578     40.049156
     -4.369369     19.867329     19.867329     39.734658
     -4.359359     21.117039     21.117039     42.234078
     -4.349349     23.395190     23.395190     46.790380
     -4.339339     26.174707     26.174707     52.349413
     -4.329329     28.938352     28.938352     57.876705
     -4.319319     31.336113     31.336113     62.672227
     -4.309309     33.276422     33.276422     66.552844
     -4.299299     34.915160     34.915160     69.830320
     -4.289289     36.550153     36.550153     73.100305
     -4.279279     38.462511     38.462511     76.925023
     -4.269269     40.759115     40.759115     81.518231
     -4.259259     43.268711     43.268711     86.537421
     -4.249249     45.535121     45.535121     91.070242
     -4.239239     46.930761     46.930761     93.861522
     -4.229229     46.872483     46.872483     93.744966
     -4.219219     45.066371     45.066371     90.132743
     -4.209209     41.670842     41.670842     83.341685
     -4.199199     37.285990     37.285990     74.571980
     -4.189189     32.757065     32.757065     65.514131
     -4.179179     28.878888     28.878888     57.757776
     -4.169169     26.142063     26.142063     52.284126
     -4.159159     24.635437     24.635437     49.270874
     -4.149149     24.131532     24.131532     48.263064
     -4.139139     24.289022     24.289022     48.578045
     -4.129129     24.858560     24.858560     49.717120
     -4.119119     25.790057     25.790057     51.580114
     -4.109109     27.194433     27.194433     54.388867
     -4.099099     29.183949     29.183949     58.367898
     -4.089089     31.677207     31.677207     63.354414
     -4.079079     34.282999     34.282999     68.565998
     -4.069069     36.350165     36.350165     72.700331
     -4.059059     37.188570     37.188570     74.377140
     -4.049049     36.366151     36.366151     72.732301
     -4.039039     33.930410     33.930410     67.860820
     -4.029029     30.433623     30.433623     60.867247
     -4.019019     26.746787     26.746787     53.493573
     -4.009009     23.761564     23.761564     47.523128
     -3.998999     22.129181     22.129181     44.258362
     -3.988989     22.143784     22.143784     44.287567
     -3.978979     23.781623     23.781623     47.563245
     -3.968969     26.824672     26.824672     53.649345
     -3.958959     30.977444     30.977444     61.954888
     -3.948949     35.927895     35.927895     71.855791
     -3.938939     41.363745     41.363745     82.727490
     -3.928929     46.985050     46.985050     93.970100
     -3.918919     52.535716     52.535716    105.071432
     -3.908909     57.835246     57.835246    115.670492
     -3.898899     62.769471     62.769471    125.538942
     -3.888889     67.218608     67.218608    134.437217
     -3.878879     70.949912     70.949912    141.899825
     -3.868869     73.543341     73.543341    147.086682
     -3.858859     74.419565     74.419565    148.839131
     -3.848849     72.993981     72.993981    145.987963
     -3.838839     68.911274     68.911274    137.822548
     -3.828829     62.261023     62.261023    124.522045
     -3.818819     53.668408     53.668408    107.336817
     -3.808809     44.202736     44.202736     88.405472
     -3.798799     35.126250     35.126250     70.252500
     -3.788789     27.574385     27.574385     55.148770
     -3.778779     22.281599     22.281599     44.563198
     -3.768769     19.438542     19.438542     38.877084
     -3.758759     18.709192     18.709192     37.418383
     -3.748749     19.382545     19.382545     38.765090
     -3.738739     20.602204     20.602204     41.204408
     -3.728729     21.609791     21.609791     43.219581
     -3.718719     21.945097     21.945097     43.890195
     -3.708709     21.558682     21.558682     43.117365
     -3.698699     20.809194     20.809194     41.618387
     -3.688689     20.340200     20.340200     40.680400
     -3.678679     20.861110     20.861110     41.722220
     -3.668669     22.889744     22.889744     45.779487
     -3.658659     26.538565     26.538565     53.077129
     -3.648649     31.425962     31.425962     62.851925
     -3.638639     36.757117     36.757117     73.514234
     -3.628629     41.552696     41.552696     83.105393
     -3.618619     44.937780     44.937780     89.875560
     -3.608609     46.376649     46.376649     92.753297
     -3.598599     45.770817     45.770817     91.541633
     -3.588589     43.408932     43.408932     86.817863
     -3.578579     39.821576     39.821576     79.643153
     -3.568569     35.614371     35.614371     71.228741
     -3.558559     31.329770     31.329770     62.659541
     -3.548549     27.354022     27.354022     54.708043
     -3.538539     23.870488     23.870488     47.740977
     -3.528529     20.864291     20.864291     41.728582
     -3.518519     18.183572     18.183572     36.367145
     -3.508509     15.644591     15.644591     31.289182
     -3.498498     13.141787     13.141787     26.283574
     -3.488488     10.714775     10.714775     21.429551
     -3.478478      8.544147      8.544147     17.088294
     -3.468468      6.883789      6.883789     13.767577
     -3.458458      5.964086      5.964086     11.928171
     -3.448448      5.904052      5.904052     11.808105
     -3.438438      6.658052      6.658052     13.316103
     -3.428428      8.009621      8.009621     16.019241
     -3.418418      9.617416      9.617416     19.234832
     -3.408408     11.109723     11.109723     22.219447
     -3.398398     12.206796     12.206796     24.413592
     -3.388388     12.829775     12.829775     25.659549
     -3.378378     13.148194     13.148194     26.296388
     -3.368368     13.537927     13.537927     27.075854
     -3.358358     14.461040     14.461040     28.922081
     -3.348348     16.313802     16.313802     32.627605
     -3.338338     19.296298     19.296298     38.592596
     -3.328328     23.335900     23.335900     46.671800
     -3.318318     28.069283     28.069283     56.138567
     -3.308308     32.877870     32.877870     65.755740
     -3.298298     36.981204     36.981204     73.962409
     -3.288288     39.597603     39.597603     79.195206
     -3.278278     40.156735     40.156735     80.313471
     -3.268268     38.500317     38.500317     77.000634
     -3.258258     34.975054     34.975054     69.950108
     -3.248248     30.347369     30.347369     60.694738
     -3.238238     25.552258     25.552258     51.104515
     -3.228228     21.379918     21.379918     42.759835
     -3.218218     18.242000     18.242000     36.484000
     -3.208208     16.118129     16.118129     32.236258
     -3.198198     14.689669     14.689669     29.379338
     -3.188188     13.578516     13.578516     27.157032
     -3.178178     12.570955     12.570955     25.141909
     -3.168168     11.731406     11.731406     23.462811
     -3.158158     11.374318     11.374318     22.748636
     -3.148148     11.926412     11.926412     23.852825
     -3.138138     13.746973     13.746973     27.493945
     -3.128128     16.974020     16.974020     33.948041
     -3.118118     21.440903     21.440903     42.881806
     -3.108108     26.678907     26.678907     53.357815
     -3.098098     31.998861     31.998861     63.997721
     -3.088088     36.630430     36.630430     73.260860
     -3.078078     39.888257     39.888257     79.776514
     -3.068068     41.325753     41.325753     82.651506
     -3.058058     40.832780     40.832780     81.665560
     -3.048048     38.641136     38.641136     77.282272
     -3.038038     35.229310     35.229310     70.458620
     -3.028028     31.160363     31.160363     62.320727
     -3.018018     26.921912     26.921912     53.843824
     -3.008008     22.838782     22.838782     45.677564
     -2.997998     19.089426     19.089426     38.178853
     -2.987988     15.799024     15.799024     31.598048
     -2.977978     13.142823     13.142823     26.285647
     -2.967968     11.395685     11.395685     22.791371
     -2.957958     10.899875     10.899875     21.799751
     -2.947948     11.965218     11.965218     23.930436
     -2.937938     14.741428     14.741428     29.482856
     -2.927928     19.108642     19.108642     38.217284
     -2.917918     24.627231     24.627231     49.254462
     -2.907908     30.576373     30.576373     61.152747
     -2.897898     36.088919     36.088919     72.177838
     -2.887888     40.355791     40.355791     80.711583
     -2.877878     42.837062     42.837062     85.674124
     -2.867868     43.399990     43.399990     86.799979
     -2.857858     42.323568     42.323568     84.647136
     -2.847848     40.162254     40.162254     80.324509
     -2.837838     37.524688     37.524688     75.049375
     -2.827828     34.863249     34.863249     69.726498
     -2.817818     32.364302     32.364302     64.728604
     -2.807808     29.977940     29.977940     59.955880
     -2.797798     27.555927     27.555927     55.111854
     -2.787788     25.014244     25.014244     50.028488
     -2.777778     22.430219     22.430219     44.860438
     -2.767768     20.026729     20.026729     40.053458
     -2.757758     18.063240     18.063240     36.126480
     -2.747748     16.707053     16.707053     33.414106
     -2.737738     15.966635     15.966635     31.933270
     -2.727728     15.726776     15.726776     31.453551
     -2.717718     15.857798     15.857798     31.715595
     -2.707708     16.320759     16.320759     32.641519
     -2.697698     17.191693     17.191693     34.383386
     -2.687688     18.582394     18.582394     37.164787
     -2.677678     20.508909     20.508909     41.017817
     -2.667668     22.801338     22.801338     45.602676
     -2.657658     25.127630     25.127630     50.255261
     -2.647648     27.129868     27.129868     54.259736
     -2.637638     28.593401     28.593401     57.186802
     -2.627628     29.542649     29.542649     59.085298
     -2.617618     30.203559     30.203559     60.407118
     -2.607608     30.859852     30.859852     61.719705
     -2.597598     31.695360     31.695360     63.390721
     -2.587588     32.711963     32.711963     65.423926
     -2.577578     33.749552     33.749552     67.499104
     -2.567568     34.565228     34.565228     69.130455
     -2.557558     34.907643     34.907643     69.815287
     -2.547548     34.557386     34.557386     69.114772
     -2.537538     33.354109     33.354109     66.708217
     -2.527528     31.245584     31.245584     62.491168
     -2.517518     28.360371     28.360371     56.720741
     -2.507508     25.058858     25.058858     50.117715
     -2.497497     21.904071     21.904071     43.808142
     -2.487487     19.530518     19.530518     39.061035
     -2.477477     18.450979     18.450979     36.901959
     -2.467467     18.884371     18.884371     37.768741
     -2.457457     20.685361     20.685361     41.370723
     -2.447447     23.411554     23.411554     46.823109
     -2.437437     26.501287     26.501287     53.002573
     -2.427427     29.484320     29.484320     58.968640
     -2.417417     32.131390     32.131390     64.262780
     -2.407407     34.474976     34.474976     68.949953
     -2.397397     36.692789     36.692789     73.385577
     -2.387387     38.911452     38.911452     77.822904
     -2.377377     41.029742     41.029742     82.059484
     -2.367367     42.657081     42.657081     85.314161
     -2.357357     43.212458     43.212458     86.424916
     -2.347347     42.152071     42.152071     84.304141
     -2.337337     39.226849     39.226849     78.453699
     -2.327327     34.649851     34.649851     69.299702
     -2.317317     29.093388     29.093388     58.186776
     -2.307307     23.517124     23.517124     47.034247
     -2.297297     18.904865     18.904865     37.809730
     -2.287287     16.017386     16.017386     32.034773
     -2.277277     15.242146     15.242146     30.484292
     -2.267267     16.564656     16.564656     33.129313
     -2.257257     19.637463     19.637463     39.274927
     -2.247247     23.901112     23.901112     47.802225
     -2.237237     28.713451     28.713451     57.426902
     -2.227227     33.455659     33.455659     66.911319
     -2.217217     37.597675     37.597675     75.195351
     -2.207207     40.722214     40.722214     81.444428
     -2.197197     42.524522     42.524522     85.049044
     -2.187187     42.815858     42.815858     85.631716
     -2.177177     41.551118     41.551118     83.102237
     -2.167167     38.873510     38.873510     77.747020
     -2.157157     35.138264     35.138264     70.276528
     -2.147147     30.869761     30.869761     61.739523
     -2.137137     26.637119     26.637119     53.274237
     -2.127127     22.887614     22.887614     45.775228
     -2.117117     19.816710     19.816710     39.633421
     -2.107107     17.344343     17.344343     34.688686
     -2.097097     15.210390     15.210390     30.420779
     -2.087087     13.135077     13.135077     26.270154
     -2.077077     10.958018     10.958018     21.916036
     -2.067067      8.691547      8.691547     17.383095
     -2.057057      6.480150      6.480150     12.960300
     -2.047047      4.508152      4.508152      9.016305
     -2.037037      2.913373      2.913373      5.826747
     -2.027027      1.744737      1.744737      3.489474
     -2.017017      0.968320      0.968320      1.936640
     -2.007007      0.502348      0.502348      1.004697
     -1.996997      0.256854      0.256854      0.513707
     -1.986987      0.162903      0.162903      0.325805
     -1.976977      0.188424      0.188424      0.376849
     -1.966967      0.344546      0.344546      0.689093
     -1.956957      0.686174      0.686174      1.372347
     -1.946947      1.306165      1.306165      2.612329
     -1.936937      2.318570      2.318570      4.637140
     -1.926927      3.827169      3.827169      7.654338
     -1.916917      5.882557      5.882557     11.765115
     -1.906907      8.441388      8.441388     16.882775
     -1.896897     11.348050     11.348050     22.696099
     -1.886887     14.355076     14.355076     28.710151
     -1.876877     17.182907     17.182907     34.365814
     -1.866867     19.599992     19.599992     39.199984
     -1.856857     21.491775     21.491775     42.983551
     -1.846847     22.888658     22.888658     45.777317
     -1.836837     23.936999     23.936999     47.873998
     -1.826827     24.817962     24.817962     49.635924
     -1.816817     25.641249     25.641249     51.282497
     -1.806807     26.358371     26.358371     52.716743
     -1.796797     26.742593     26.742593     53.485186
     -1.786787     26.459817     26.459817     52.919633
     -1.776777     25.209935     25.209935     50.419870
     -1.766767     22.875018     22.875018     45.750036
     -1.756757     19.599754     19.599754     39.199507
     -1.746747     15.763064     15.763064     31.526129
     -1.736737     11.858303     11.858303     23.716606
     -1.726727      8.345166      8.345166     16.690332
     -1.716717      5.542145      5.542145     11.084290
     -1.706707      3.595806      3.595806      7.191612
     -1.696697      2.517727      2.517727      5.035454
     -1.686687      2.249040      2.249040      4.498079
     -1.676677      2.708807      2.708807      5.417615
     -1.666667      3.801688      3.801688      7.603377
     -1.656657      5.389149      5.389149     10.778299
     -1.646647      7.252903      7.252903     14.505806
     -1.636637      9.087970      9.087970     18.175941
     -1.626627     10.550218     10.550218     21.100437
