# EIG2DOS: Utility for SIESTA to obtain the electronic density of states
#  E. Artacho, Apr 1999, A. Garcia, Apr 2012
#  Nick R. Papior, Feb 2017
# ------------------------------------------
# Eigenvalues calculated from a non-polarized calculation
# Eigenvalues read from siesta.EIG
# Kpoint weights read from siesta.KP
# Using smearing parameter:   0.0500
# Using 1000 points in the energy range
# Selected bands: 1 to: 2981
# Emin, Emax in file for selected band(s):    -27.3539855    218.3805600
# Nbands, Nspin, Nk   =   2981     1     1
# E_F                 =    -4.2312 eV --> (shifted to ZERO)
# Broadening          =     0.0500 eV
#
#        E            N(up)  (=)   N(down)         Ntot
     -5.000000     31.392070     31.392070     62.784139
     -4.989990     36.004440     36.004440     72.008881
     -4.979980     40.395824     40.395824     80.791648
     -4.969970     43.866180     43.866180     87.732360
     -4.959960     45.787685     45.787685     91.575370
     -4.949950     45.808870     45.808870     91.617739
     -4.939940     43.978635     43.978635     87.957270
     -4.929930     40.750837     40.750837     81.501675
     -4.919920     36.885977     36.885977     73.771954
     -4.909910     33.299008     33.299008     66.598017
     -4.899900     30.895317     30.895317     61.790635
     -4.889890     30.407866     30.407866     60.815733
     -4.879880     32.233438     32.233438     64.466877
     -4.869870     36.286164     36.286164     72.572328
     -4.859860     41.925727     41.925727     83.851454
     -4.849850     48.032496     48.032496     96.064992
     -4.839840     53.260107     53.260107    106.520214
     -4.829830     56.409096     56.409096    112.818192
     -4.819820     56.786208     56.786208    113.572416
     -4.809810     54.400200     54.400200    108.800399
     -4.799800     49.914189     49.914189     99.828379
     -4.789790     44.388627     44.388627     88.777255
     -4.779780     38.939114     38.939114     77.878229
     -4.769770     34.448610     34.448610     68.897221
     -4.759760     31.415886     31.415886     62.831773
     -4.749750     29.939841     29.939841     59.879681
     -4.739740     29.787297     29.787297     59.574595
     -4.729730     30.490911     30.490911     60.981822
     -4.719720     31.453334     31.453334     62.906667
     -4.709710     32.058469     32.058469     64.116938
     -4.699700     31.791413     31.791413     63.582826
     -4.689690     30.352766     30.352766     60.705533
     -4.679680     27.739735     27.739735     55.479470
     -4.669670     24.268713     24.268713     48.537426
     -4.659660     20.530500     20.530500     41.061001
     -4.649650     17.288725     17.288725     34.577450
     -4.639640     15.342898     15.342898     30.685796
     -4.629630     15.376327     15.376327     30.752653
     -4.619620     17.803487     17.803487     35.606973
     -4.609610     22.634467     22.634467     45.268934
     -4.599600     29.390798     29.390798     58.781596
     -4.589590     37.124036     37.124036     74.248071
     -4.579580     44.579991     44.579991     89.159982
     -4.569570     50.501998     50.501998    101.003997
     -4.559560     53.992000     53.992000    107.984000
     -4.549550     54.793275     54.793275    109.586550
     -4.539540     53.366680     53.366680    106.733360
     -4.529530     50.711172     50.711172    101.422345
     -4.519520     47.991882     47.991882     95.983763
     -4.509510     46.125597     46.125597     92.251194
     -4.499499     45.489423     45.489423     90.978846
     -4.489489     45.857880     45.857880     91.715760
     -4.479479     46.570157     46.570157     93.140313
     -4.469469     46.834029     46.834029     93.668057
     -4.459459     46.029021     46.029021     92.058042
     -4.449449     43.893197     43.893197     87.786395
     -4.439439     40.547558     40.547558     81.095116
     -4.429429     36.390423     36.390423     72.780846
     -4.419419     31.942103     31.942103     63.884206
     -4.409409     27.717567     27.717567     55.435135
     -4.399399     24.161095     24.161095     48.322189
     -4.389389     21.624933     21.624933     43.249867
     -4.379379     20.349863     20.349863     40.699727
     -4.369369     20.423237     20.423237     40.846473
     -4.359359     21.731365     21.731365     43.462729
     -4.349349     23.951622     23.951622     47.903243
     -4.339339     26.619916     26.619916     53.239832
     -4.329329     29.266668     29.266668     58.533336
     -4.319319     31.569559     31.569559     63.139119
     -4.309309     33.454684     33.454684     66.909369
     -4.299299     35.097919     35.097919     70.195837
     -4.289289     36.820346     36.820346     73.640692
     -4.279279     38.913188     38.913188     77.826376
     -4.269269     41.455258     41.455258     82.910516
     -4.259259     44.195801     44.195801     88.391602
     -4.249249     46.564408     46.564408     93.128815
     -4.239239     47.831068     47.831068     95.662135
     -4.229229     47.375476     47.375476     94.750952
     -4.219219     44.960089     44.960089     89.920178
     -4.209209     40.877631     40.877631     81.755262
     -4.199199     35.889350     35.889350     71.778699
     -4.189189     30.970654     30.970654     61.941308
     -4.179179     26.979438     26.979438     53.958877
     -4.169169     24.398927     24.398927     48.797854
     -4.159159     23.260853     23.260853     46.521707
     -4.149149     23.258445     23.258445     46.516890
     -4.139139     23.969850     23.969850     47.939700
     -4.129129     25.074076     25.074076     50.148151
     -4.119119     26.460626     26.460626     52.921251
     -4.109109     28.191491     28.191491     56.382981
     -4.099099     30.343870     30.343870     60.687740
     -4.089089     32.820424     32.820424     65.640847
     -4.079079     35.238247     35.238247     70.476493
     -4.069069     36.979194     36.979194     73.958387
     -4.059059     37.404220     37.404220     74.808439
     -4.049049     36.139001     36.139001     72.278001
     -4.039039     33.285340     33.285340     66.570680
     -4.029029     29.442938     29.442938     58.885877
     -4.019019     25.526090     25.526090     51.052180
     -4.009009     22.467735     22.467735     44.935471
     -3.998999     20.952084     20.952084     41.904168
     -3.988989     21.282378     21.282378     42.564756
     -3.978979     23.404022     23.404022     46.808043
     -3.968969     27.024862     27.024862     54.049724
     -3.958959     31.748571     31.748571     63.497142
     -3.948949     37.166570     37.166570     74.333141
     -3.938939     42.904519     42.904519     85.809038
     -3.928929     48.649083     48.649083     97.298167
     -3.918919     54.171760     54.171760    108.343519
     -3.908909     59.336791     59.336791    118.673582
     -3.898899     64.065225     64.065225    128.130451
     -3.888889     68.247618     68.247618    136.495236
     -3.878879     71.641226     71.641226    143.282452
     -3.868869     73.818212     73.818212    147.636425
     -3.858859     74.220769     74.220769    148.441538
     -3.848849     72.327820     72.327820    144.655639
     -3.838839     67.875339     67.875339    135.750677
     -3.828829     61.035187     61.035187    122.070374
     -3.818819     52.467212     52.467212    104.934425
     -3.808809     43.210775     43.210775     86.421551
     -3.798799     34.447967     34.447967     68.895933
     -3.788789     27.219582     27.219582     54.439164
     -3.778779     22.186648     22.186648     44.373297
     -3.768769     19.505936     19.505936     39.011872
     -3.758759     18.844432     18.844432     37.688864
     -3.748749     19.515647     19.515647     39.031293
     -3.738739     20.692615     20.692615     41.385230
     -3.728729     21.640819     21.640819     43.281638
     -3.718719     21.915131     21.915131     43.830262
     -3.708709     21.474152     21.474152     42.948304
     -3.698699     20.681393     20.681393     41.362786
     -3.688689     20.185910     20.185910     40.371820
     -3.678679     20.705228     20.705228     41.410455
     -3.668669     22.766584     22.766584     45.533168
     -3.658659     26.488065     26.488065     52.976131
     -3.648649     31.482967     31.482967     62.965933
     -3.638639     36.936200     36.936200     73.872400
     -3.628629     41.835498     41.835498     83.670996
     -3.618619     45.271030     45.271030     90.542059
     -3.608609     46.684989     46.684989     93.369979
     -3.598599     45.980773     45.980773     91.961546
     -3.588589     43.473657     43.473657     86.947313
     -3.578579     39.735040     39.735040     79.470080
     -3.568569     35.409265     35.409265     70.818529
     -3.558559     31.061929     31.061929     62.123857
     -3.548549     27.082116     27.082116     54.164232
     -3.538539     23.640003     23.640003     47.280006
     -3.528529     20.700373     20.700373     41.400745
     -3.518519     18.092169     18.092169     36.184338
     -3.508509     15.618624     15.618624     31.237247
     -3.498498     13.169682     13.169682     26.339364
     -3.488488     10.790983     10.790983     21.581967
     -3.478478      8.683276      8.683276     17.366551
     -3.468468      7.140297      7.140297     14.280594
     -3.458458      6.457261      6.457261     12.914522
     -3.448448      6.842863      6.842863     13.685725
     -3.438438      8.353251      8.353251     16.706501
     -3.428428     10.854942     10.854942     21.709883
     -3.418418     14.024178     14.024178     28.048356
     -3.408408     17.394760     17.394760     34.789521
     -3.398398     20.459943     20.459943     40.919886
     -3.388388     22.811172     22.811172     45.622345
     -3.378378     24.269347     24.269347     48.538693
     -3.368368     24.953810     24.953810     49.907619
     -3.358358     25.252749     25.252749     50.505499
     -3.348348     25.698224     25.698224     51.396448
     -3.338338     26.786779     26.786779     53.573557
     -3.328328     28.802776     28.802776     57.605553
     -3.318318     31.694852     31.694852     63.389704
     -3.308308     35.040324     35.040324     70.080647
     -3.298298     38.118297     38.118297     76.236594
     -3.288288     40.093253     40.093253     80.186506
     -3.278278     40.274358     40.274358     80.548717
     -3.268268     38.367873     38.367873     76.735747
     -3.258258     34.614070     34.614070     69.228139
     -3.248248     29.730658     29.730658     59.461315
     -3.238238     24.670033     24.670033     49.340067
     -3.228228     20.290915     20.290915     40.581830
     -3.218218     17.087735     17.087735     34.175470
     -3.208208     15.088128     15.088128     30.176255
     -3.198198     13.943667     13.943667     27.887335
     -3.188188     13.152208     13.152208     26.304417
     -3.178178     12.304253     12.304253     24.608506
     -3.168168     11.254250     11.254250     22.508500
     -3.158158     10.165592     10.165592     20.331184
     -3.148148      9.435415      9.435415     18.870830
     -3.138138      9.544570      9.544570     19.089140
     -3.128128     10.888181     10.888181     21.776363
     -3.118118     13.631440     13.631440     27.262880
     -3.108108     17.621181     17.621181     35.242362
     -3.098098     22.375870     22.375870     44.751740
     -3.088088     27.168648     27.168648     54.337296
     -3.078078     31.196858     31.196858     62.393716
     -3.068068     33.795220     33.795220     67.590439
     -3.058058     34.617154     34.617154     69.234308
     -3.048048     33.707766     33.707766     67.415533
     -3.038038     31.435731     31.435731     62.871461
     -3.028028     28.321106     28.321106     56.642213
     -3.018018     24.849477     24.849477     49.698953
     -3.008008     21.363507     21.363507     42.727015
     -2.997998     18.070051     18.070051     36.140103
     -2.987988     15.130500     15.130500     30.260999
     -2.977978     12.759945     12.759945     25.519891
     -2.967968     11.268104     11.268104     22.536209
     -2.957958     11.016995     11.016995     22.033991
     -2.947948     12.314724     12.314724     24.629448
     -2.937938     15.288957     15.288957     30.577913
     -2.927928     19.786696     19.786696     39.573393
     -2.917918     25.338758     25.338758     50.677515
     -2.907908     31.213173     31.213173     62.426345
     -2.897898     36.558901     36.558901     73.117802
     -2.887888     40.608688     40.608688     81.217375
     -2.877878     42.877983     42.877983     85.755965
     -2.867868     43.284666     43.284666     86.569333
     -2.857858     42.136273     42.136273     84.272545
     -2.847848     39.984118     39.984118     79.968237
     -2.837838     37.403904     37.403904     74.807809
     -2.827828     34.798293     34.798293     69.596585
     -2.817818     32.306833     32.306833     64.613665
     -2.807808     29.854616     29.854616     59.709232
     -2.797798     27.300449     27.300449     54.600898
     -2.787788     24.596265     24.596265     49.192530
     -2.777778     21.869243     21.869243     43.738485
     -2.767768     19.386553     19.386553     38.773106
     -2.757758     17.431983     17.431983     34.863966
     -2.747748     16.173758     16.173758     32.347516
     -2.737738     15.604593     15.604593     31.209186
     -2.727728     15.587195     15.587195     31.174389
     -2.717718     15.969970     15.969970     31.939940
     -2.707708     16.691452     16.691452     33.382904
     -2.697698     17.799233     17.799233     35.598465
     -2.687688     19.367941     19.367941     38.735882
     -2.677678     21.373638     21.373638     42.747276
     -2.667668     23.618581     23.618581     47.237161
     -2.657658     25.771654     25.771654     51.543309
     -2.647648     27.511824     27.511824     55.023648
     -2.637638     28.687878     28.687878     57.375757
     -2.627628     29.391456     29.391456     58.782911
     -2.617618     29.895599     29.895599     59.791198
     -2.607608     30.498717     30.498717     60.997435
     -2.597598     31.370265     31.370265     62.740530
     -2.587588     32.481033     32.481033     64.962066
     -2.577578     33.634283     33.634283     67.268566
     -2.567568     34.550235     34.550235     69.100470
     -2.557558     34.943259     34.943259     69.886518
     -2.547548     34.568420     34.568420     69.136839
     -2.537538     33.258502     33.258502     66.517004
     -2.527528     30.980209     30.980209     61.960417
     -2.517518     27.903912     27.903912     55.807825
     -2.507508     24.441016     24.441016     48.882032
     -2.497497     21.197618     21.197618     42.395237
     -2.487487     18.832297     18.832297     37.664594
     -2.477477     17.862220     17.862220     35.724441
     -2.467467     18.497284     18.497284     36.994569
     -2.457457     20.575900     20.575900     41.151800
     -2.447447     23.633735     23.633735     47.267470
     -2.437437     27.079559     27.079559     54.159117
     -2.427427     30.404891     30.404891     60.809783
     -2.417417     33.336629     33.336629     66.673259
     -2.407407     35.864392     35.864392     71.728785
     -2.397397     38.130969     38.130969     76.261938
     -2.387387     40.241218     40.241218     80.482436
     -2.377377     42.089546     42.089546     84.179093
     -2.367367     43.303574     43.303574     86.607148
     -2.357357     43.348292     43.348292     86.696584
     -2.347347     41.753874     41.753874     83.507747
     -2.337337     38.362305     38.362305     76.724610
     -2.327327     33.472219     33.472219     66.944438
     -2.317317     27.809733     27.809733     55.619467
     -2.307307     22.339103     22.339103     44.678205
     -2.297297     17.999913     17.999913     35.999825
     -2.287287     15.477644     15.477644     30.955288
     -2.277277     15.079417     15.079417     30.158834
     -2.267267     16.728149     16.728149     33.456298
     -2.257257     20.043057     20.043057     40.086113
     -2.247247     24.458889     24.458889     48.917778
     -2.237237     29.343711     29.343711     58.687421
     -2.227227     34.090589     34.090589     68.181178
     -2.217217     38.173565     38.173565     76.347130
     -2.207207     41.172043     41.172043     82.344086
     -2.197197     42.779985     42.779985     85.559969
     -2.187187     42.821416     42.821416     85.642832
     -2.177177     41.284115     41.284115     82.568230
     -2.167167     38.359040     38.359040     76.718080
     -2.157157     34.448784     34.448784     68.897568
     -2.147147     30.106832     30.106832     60.213664
     -2.137137     25.902089     25.902089     51.804178
     -2.127127     22.254281     22.254281     44.508561
     -2.117117     19.318600     19.318600     38.637200
     -2.107107     16.982746     16.982746     33.965491
     -2.097097     14.980586     14.980586     29.961172
     -2.087087     13.062214     13.062214     26.124427
     -2.077077     11.132817     11.132817     22.265634
     -2.067067      9.297408      9.297408     18.594817
     -2.057057      7.803286      7.803286     15.606572
     -2.047047      6.919999      6.919999     13.839999
     -2.037037      6.813968      6.813968     13.627937
     -2.027027      7.464144      7.464144     14.928288
     -2.017017      8.643319      8.643319     17.286637
     -2.007007      9.969429      9.969429     19.938858
     -1.996997     11.013212     11.013212     22.026424
     -1.986987     11.430343     11.430343     22.860685
     -1.976977     11.072958     11.072958     22.145915
     -1.966967     10.038548     10.038548     20.077095
     -1.956957      8.638299      8.638299     17.276599
     -1.946947      7.300904      7.300904     14.601808
     -1.936937      6.451488      6.451488     12.902977
     -1.926927      6.406150      6.406150     12.812301
     -1.916917      7.305630      7.305630     14.611259
     -1.906907      9.092834      9.092834     18.185667
     -1.896897     11.529556     11.529556     23.059111
     -1.886887     14.246493     14.246493     28.492986
     -1.876877     16.819406     16.819406     33.638811
     -1.866867     18.858815     18.858815     37.717630
     -1.856857     20.094474     20.094474     40.188949
     -1.846847     20.434025     20.434025     40.868051
     -1.836837     19.978810     19.978810     39.957621
     -1.826827     18.987282     18.987282     37.974565
     -1.816817     17.788686     17.788686     35.577373
     -1.806807     16.668319     16.668319     33.336638
     -1.796797     15.765252     15.765252     31.530504
     -1.786787     15.029211     15.029211     30.058422
     -1.776777     14.262527     14.262527     28.525054
     -1.766767     13.230770     13.230770     26.461541
     -1.756757     11.787048     11.787048     23.574095
     -1.746747      9.947454      9.947454     19.894907
     -1.736737      7.885485      7.885485     15.770969
     -1.726727      5.860455      5.860455     11.720911
     -1.716717      4.127338      4.127338      8.254676
     -1.706707      2.874594      2.874594      5.749188
     -1.696697      2.208752      2.208752      4.417504
     -1.686687      2.171979      2.171979      4.343957
     -1.676677      2.762213      2.762213      5.524425
     -1.666667      3.931702      3.931702      7.863404
     -1.656657      5.562105      5.562105     11.124210
     -1.646647      7.438241      7.438241     14.876482
     -1.636637      9.253117      9.253117     18.506233
     -1.626627     10.665689     10.665689     21.331379
