# EIG2DOS: Utility for SIESTA to obtain the electronic density of states
#  E. Artacho, Apr 1999, A. Garcia, Apr 2012
#  Nick R. Papior, Feb 2017
# ------------------------------------------
# Eigenvalues calculated from a non-polarized calculation
# Eigenvalues read from siesta.EIG
# Kpoint weights read from siesta.KP
# Using smearing parameter:   0.0500
# Using 1000 points in the energy range
# Selected bands: 1 to: 2981
# Emin, Emax in file for selected band(s):    -27.0950170    218.3276820
# Nbands, Nspin, Nk   =   2981     1     1
# E_F                 =    -4.2801 eV --> (shifted to ZERO)
# Broadening          =     0.0500 eV
#
#        E            N(up)  (=)   N(down)         Ntot
     -5.000000     43.532803     43.532803     87.065606
     -4.989990     44.950060     44.950060     89.900120
     -4.979980     45.636669     45.636669     91.273339
     -4.969970     45.538307     45.538307     91.076614
     -4.959960     44.590332     44.590332     89.180664
     -4.949950     42.782676     42.782676     85.565353
     -4.939940     40.225036     40.225036     80.450071
     -4.929930     37.186712     37.186712     74.373424
     -4.919920     34.103219     34.103219     68.206438
     -4.909910     31.550039     31.550039     63.100078
     -4.899900     30.177008     30.177008     60.354015
     -4.889890     30.587258     30.587258     61.174516
     -4.879880     33.155482     33.155482     66.310964
     -4.869870     37.822669     37.822669     75.645338
     -4.859860     43.957838     43.957838     87.915677
     -4.849850     50.394704     50.394704    100.789409
     -4.839840     55.695651     55.695651    111.391302
     -4.829830     58.579610     58.579610    117.159220
     -4.819820     58.342245     58.342245    116.684491
     -4.809810     55.075331     55.075331    110.150663
     -4.799800     49.584742     49.584742     99.169485
     -4.789790     43.060030     43.060030     86.120061
     -4.779780     36.665304     36.665304     73.330609
     -4.769770     31.231444     31.231444     62.462887
     -4.759760     27.142283     27.142283     54.284566
     -4.749750     24.393883     24.393883     48.787766
     -4.739740     22.738809     22.738809     45.477617
     -4.729730     21.828708     21.828708     43.657417
     -4.719720     21.310475     21.310475     42.620949
     -4.709710     20.873520     20.873520     41.747041
     -4.699700     20.268212     20.268212     40.536424
     -4.689690     19.319652     19.319652     38.639304
     -4.679680     17.953814     17.953814     35.907628
     -4.669670     16.237935     16.237935     32.475870
     -4.659660     14.418915     14.418915     28.837830
     -4.649650     12.931740     12.931740     25.863480
     -4.639640     12.352554     12.352554     24.705107
     -4.629630     13.286979     13.286979     26.573957
     -4.619620     16.205976     16.205976     32.411953
     -4.609610     21.263744     21.263744     42.527489
     -4.599600     28.152897     28.152897     56.305794
     -4.589590     36.064523     36.064523     72.129046
     -4.579580     43.808323     43.808323     87.616646
     -4.569570     50.097749     50.097749    100.195498
     -4.559560     53.927733     53.927733    107.855465
     -4.549550     54.907885     54.907885    109.815771
     -4.539540     53.407923     53.407923    106.815846
     -4.529530     50.440680     50.440680    100.881360
     -4.519520     47.320896     47.320896     94.641793
     -4.509510     45.234692     45.234692     90.469384
     -4.499499     44.884480     44.884480     89.768961
     -4.489489     46.326664     46.326664     92.653328
     -4.479479     49.027686     49.027686     98.055371
     -4.469469     52.079659     52.079659    104.159318
     -4.459459     54.477824     54.477824    108.955647
     -4.449449     55.373235     55.373235    110.746469
     -4.439439     54.251714     54.251714    108.503428
     -4.429429     51.024563     51.024563    102.049126
     -4.419419     46.033357     46.033357     92.066715
     -4.409409     39.975146     39.975146     79.950292
     -4.399399     33.758400     33.758400     67.516799
     -4.389389     28.311400     28.311400     56.622800
     -4.379379     24.380742     24.380742     48.761484
     -4.369369     22.369404     22.369404     44.738807
     -4.359359     22.262197     22.262197     44.524393
     -4.349349     23.666275     23.666275     47.332549
     -4.339339     25.958302     25.958302     51.916604
     -4.329329     28.490478     28.490478     56.980955
     -4.319319     30.783601     30.783601     61.567202
     -4.309309     32.641114     32.641114     65.282227
     -4.299299     34.151939     34.151939     68.303878
     -4.289289     35.593368     35.593368     71.186736
     -4.279279     37.276004     37.276004     74.552009
     -4.269269     39.381941     39.381941     78.763881
     -4.259259     41.843101     41.843101     83.686201
     -4.249249     44.300340     44.300340     88.600679
     -4.239239     46.173065     46.173065     92.346130
     -4.229229     46.839729     46.839729     93.679458
     -4.219219     45.877772     45.877772     91.755544
     -4.209209     43.262544     43.262544     86.525088
     -4.199199     39.420562     39.420562     78.841124
     -4.189189     35.094338     35.094338     70.188676
     -4.179179     31.075477     31.075477     62.150953
     -4.169169     27.936144     27.936144     55.872287
     -4.159159     25.886459     25.886459     51.772917
     -4.149149     24.810498     24.810498     49.620996
     -4.139139     24.437475     24.437475     48.874950
     -4.129129     24.543569     24.543569     49.087138
     -4.119119     25.078062     25.078062     50.156123
     -4.109109     26.153618     26.153618     52.307236
     -4.099099     27.908687     27.908687     55.817373
     -4.089089     30.314747     30.314747     60.629494
     -4.079079     33.038404     33.038404     66.076809
     -4.069069     35.454933     35.454933     70.909866
     -4.059059     36.838760     36.838760     73.677521
     -4.049049     36.656005     36.656005     73.312011
     -4.039039     34.813751     34.813751     69.627502
     -4.029029     31.732281     31.732281     63.464562
     -4.019019     28.201047     28.201047     56.402095
     -4.009009     25.098253     25.098253     50.196506
     -3.998999     23.120031     23.120031     46.240061
     -3.988989     22.638875     22.638875     45.277750
     -3.978979     23.718395     23.718395     47.436790
     -3.968969     26.221232     26.221232     52.442463
     -3.958959     29.917293     29.917293     59.834585
     -3.948949     34.537772     34.537772     69.075545
     -3.938939     39.784591     39.784591     79.569183
     -3.928929     45.340678     45.340678     90.681355
     -3.918919     50.910283     50.910283    101.820565
     -3.908909     56.271957     56.271957    112.543914
     -3.898899     61.294822     61.294822    122.589643
     -3.888889     65.881724     65.881724    131.763447
     -3.878879     69.854045     69.854045    139.708089
     -3.868869     72.846016     72.846016    145.692033
     -3.858859     74.292344     74.292344    148.584689
     -3.848849     73.555489     73.555489    147.110979
     -3.838839     70.164494     70.164494    140.328988
     -3.828829     64.066543     64.066543    128.133085
     -3.818819     55.768392     55.768392    111.536784
     -3.808809     46.286123     46.286123     92.572246
     -3.798799     36.908333     36.908333     73.816666
     -3.788789     28.861817     28.861817     57.723633
     -3.778779     23.004934     23.004934     46.009868
     -3.768769     19.649554     19.649554     39.299107
     -3.758759     18.551008     18.551008     37.102016
     -3.748749     19.044408     19.044408     38.088816
     -3.738739     20.269912     20.269912     40.539823
     -3.728729     21.421233     21.421233     42.842466
     -3.718719     21.959182     21.959182     43.918364
     -3.708709     21.744516     21.744516     43.489032
     -3.698699     21.059163     21.059163     42.118325
     -3.688689     20.505153     20.505153     41.010306
     -3.678679     20.799194     20.799194     41.598387
     -3.668669     22.514812     22.514812     45.029625
     -3.658659     25.852205     25.852205     51.704410
     -3.648649     30.521328     30.521328     61.042657
     -3.638639     35.792778     35.792778     71.585555
     -3.628629     40.706774     40.706774     81.413547
     -3.618619     44.360500     44.360500     88.721000
     -3.608609     46.158178     46.158178     92.316357
     -3.598599     45.931780     45.931780     91.863561
     -3.588589     43.909766     43.909766     87.819533
     -3.578579     40.581181     40.581181     81.162362
     -3.568569     36.530312     36.530312     73.060623
     -3.558559     32.297333     32.297333     64.594667
     -3.548549     28.283798     28.283798     56.567597
     -3.538539     24.702407     24.702407     49.404814
     -3.528529     21.573588     21.573588     43.147176
     -3.518519     18.775466     18.775466     37.550932
     -3.508509     16.139610     16.139610     32.279220
     -3.498498     13.558828     13.558828     27.117656
     -3.488488     11.059834     11.059834     22.119668
     -3.478478      8.808777      8.808777     17.617554
     -3.468468      7.051971      7.051971     14.103942
     -3.458458      6.022875      6.022875     12.045750
     -3.448448      5.853262      5.853262     11.706523
     -3.438438      6.515719      6.515719     13.031437
     -3.428428      7.811354      7.811354     15.622709
     -3.418418      9.408760      9.408760     18.817520
     -3.408408     10.932454     10.932454     21.864907
     -3.398398     12.082883     12.082883     24.165765
     -3.388388     12.749067     12.749067     25.498135
     -3.378378     13.065524     13.065524     26.131049
     -3.368368     13.381718     13.381718     26.763435
     -3.358358     14.150797     14.150797     28.301594
     -3.348348     15.781316     15.781316     31.562633
     -3.338338     18.506170     18.506170     37.012340
     -3.328328     22.302826     22.302826     44.605651
     -3.318318     26.868665     26.868665     53.737329
     -3.308308     31.642024     31.642024     63.284048
     -3.298298     35.870280     35.870280     71.740559
     -3.288288     38.739300     38.739300     77.478601
     -3.278278     39.564346     39.564346     79.128692
     -3.268268     37.997685     37.997685     75.995371
     -3.258258     34.167106     34.167106     68.334212
     -3.248248     28.666352     28.666352     57.332704
     -3.238238     22.383704     22.383704     44.767408
     -3.228228     16.239171     16.239171     32.478342
     -3.218218     10.945858     10.945858     21.891716
     -3.208208      6.888413      6.888413     13.776827
     -3.198198      4.142346      4.142346      8.284692
     -3.188188      2.591035      2.591035      5.182071
     -3.178178      2.068146      2.068146      4.136293
     -3.168168      2.464566      2.464566      4.929132
     -3.158158      3.770177      3.770177      7.540353
     -3.148148      6.050366      6.050366     12.100732
     -3.138138      9.376226      9.376226     18.752452
     -3.128128     13.737101     13.737101     27.474203
     -3.118118     18.967242     18.967242     37.934483
     -3.108108     24.714571     24.714571     49.429143
     -3.098098     30.468351     30.468351     60.936703
     -3.088088     35.645493     35.645493     71.290986
     -3.078078     39.716245     39.716245     79.432489
     -3.068068     42.332601     42.332601     84.665201
     -3.058058     43.412188     43.412188     86.824375
     -3.048048     43.135721     43.135721     86.271443
     -3.038038     41.846133     41.846133     83.692266
     -3.028028     39.887397     39.887397     79.774794
     -3.018018     37.464184     37.464184     74.928369
     -3.008008     34.604208     34.604208     69.208416
     -2.997998     31.250692     31.250692     62.501384
     -2.987988     27.432379     27.432379     54.864758
     -2.977978     23.407891     23.407891     46.815782
     -2.967968     19.696008     19.696008     39.392016
     -2.957958     16.970291     16.970291     33.940582
     -2.947948     15.866498     15.866498     31.732996
     -2.937938     16.782618     16.782618     33.565235
     -2.927928     19.739288     19.739288     39.478576
     -2.917918     24.337322     24.337322     48.674645
     -2.907908     29.822023     29.822023     59.644045
     -2.897898     35.243854     35.243854     70.487707
     -2.887888     39.682502     39.682502     79.365004
     -2.877878     42.474975     42.474975     84.949950
     -2.867868     43.372822     43.372822     86.745644
     -2.857858     42.567520     42.567520     85.135039
     -2.847848     40.570395     40.570395     81.140790
     -2.837838     37.995115     37.995115     75.990230
     -2.827828     35.334907     35.334907     70.669814
     -2.817818     32.828016     32.828016     65.656031
     -2.807808     30.460582     30.460582     60.921163
     -2.797798     28.088029     28.088029     56.176058
     -2.787788     25.599204     25.599204     51.198408
     -2.777778     23.031620     23.031620     46.063241
     -2.767768     20.579366     20.579366     41.158732
     -2.757758     18.499146     18.499146     36.998293
     -2.747748     16.978829     16.978829     33.957657
     -2.737738     16.052706     16.052706     32.105411
     -2.727728     15.616217     15.616217     31.232434
     -2.717718     15.528065     15.528065     31.056130
     -2.707708     15.729470     15.729470     31.458940
     -2.697698     16.296671     16.296671     32.593343
     -2.687688     17.384979     17.384979     34.769958
     -2.677678     19.095492     19.095492     38.190983
     -2.667668     21.351716     21.351716     42.703432
     -2.657658     23.873457     23.873457     47.746915
     -2.647648     26.275814     26.275814     52.551628
     -2.637638     28.239200     28.239200     56.478400
     -2.627628     29.647457     29.647457     59.294914
     -2.617618     30.610826     30.610826     61.221652
     -2.607608     31.366389     31.366389     62.732779
     -2.597598     32.126418     32.126418     64.252837
     -2.587588     32.968761     32.968761     65.937522
     -2.577578     33.819567     33.819567     67.639134
     -2.567568     34.507612     34.507612     69.015224
     -2.557558     34.830471     34.830471     69.660942
     -2.547548     34.592439     34.592439     69.184879
     -2.537538     33.624562     33.624562     67.249124
     -2.527528     31.824859     31.824859     63.649719
     -2.517518     29.233792     29.233792     58.467583
     -2.507508     26.108983     26.108983     52.217965
     -2.497497     22.934429     22.934429     45.868859
     -2.487487     20.323372     20.323372     40.646744
     -2.477477     18.836020     18.836020     37.672040
     -2.467467     18.789325     18.789325     37.578650
     -2.457457     20.148911     20.148911     40.297822
     -2.447447     22.556871     22.556871     45.113741
     -2.437437     25.485207     25.485207     50.970415
     -2.427427     28.445657     28.445657     56.891314
     -2.417417     31.159610     31.159610     62.319221
     -2.407407     33.609435     33.609435     67.218870
     -2.397397     35.948001     35.948001     71.896002
     -2.387387     38.312185     38.312185     76.624369
     -2.377377     40.635858     40.635858     81.271716
     -2.367367     42.563310     42.563310     85.126620
     -2.357357     43.520092     43.520092     87.040184
     -2.347347     42.923369     42.923369     85.846738
     -2.337337     40.442896     40.442896     80.885793
     -2.327327     36.193272     36.193272     72.386543
     -2.317317     30.766905     30.766905     61.533811
     -2.307307     25.091853     25.091853     50.183705
     -2.297297     20.178059     20.178059     40.356118
     -2.287287     16.856313     16.856313     33.712625
     -2.277277     15.599809     15.599809     31.199618
     -2.267267     16.467718     16.467718     32.935435
     -2.257257     19.158390     19.158390     38.316779
     -2.247247     23.130451     23.130451     46.260902
     -2.237237     27.744204     27.744204     55.488408
     -2.227227     32.383040     32.383040     64.766079
     -2.217217     36.528059     36.528059     73.056118
     -2.207207     39.779045     39.779045     79.558089
     -2.197197     41.839628     41.839628     83.679255
     -2.187187     42.502785     42.502785     85.005571
     -2.177177     41.669054     41.669054     83.338108
     -2.167167     39.399441     39.399441     78.798882
     -2.157157     35.964947     35.964947     71.929894
     -2.147147     31.836212     31.836212     63.672424
     -2.137137     27.581638     27.581638     55.163275
     -2.127127     23.700252     23.700252     47.400503
     -2.117117     20.467026     20.467026     40.934052
     -2.107107     17.872889     17.872889     35.745779
     -2.097097     15.691435     15.691435     31.382869
     -2.087087     13.632097     13.632097     27.264195
     -2.077077     11.494352     11.494352     22.988703
     -2.067067      9.247019      9.247019     18.494038
     -2.057057      7.009064      7.009064     14.018128
     -2.047047      4.964437      4.964437      9.928874
     -2.037037      3.269091      3.269091      6.538181
     -2.027027      1.995692      1.995692      3.991384
     -2.017017      1.128754      1.128754      2.257509
     -2.007007      0.594914      0.594914      1.189829
     -1.996997      0.303505      0.303505      0.607010
     -1.986987      0.179316      0.179316      0.358633
     -1.976977      0.181782      0.181782      0.363563
     -1.966967      0.313349      0.313349      0.626697
     -1.956957      0.621123      0.621123      1.242245
     -1.946947      1.192089      1.192089      2.384178
     -1.936937      2.137920      2.137920      4.275839
     -1.926927      3.565067      3.565067      7.130134
     -1.916917      5.531732      5.531732     11.063463
     -1.906907      8.003274      8.003274     16.006548
     -1.896897     10.825314     10.825314     21.650628
     -1.886887     13.732033     13.732033     27.464067
     -1.876877     16.394440     16.394440     32.788880
     -1.866867     18.496043     18.496043     36.992087
     -1.856857     19.811885     19.811885     39.623771
     -1.846847     20.266385     20.266385     40.532770
     -1.836837     19.952739     19.952739     39.905477
     -1.826827     19.105664     19.105664     38.211327
     -1.816817     18.029554     18.029554     36.059108
     -1.806807     16.999494     16.999494     33.998988
     -1.796797     16.170938     16.170938     32.341875
     -1.786787     15.541651     15.541651     31.083301
     -1.776777     14.991652     14.991652     29.983304
     -1.766767     14.385137     14.385137     28.770275
     -1.756757     13.677339     13.677339     27.354678
     -1.746747     12.960204     12.960204     25.920407
     -1.736737     12.415384     12.415384     24.830767
     -1.726727     12.201446     12.201446     24.402893
     -1.716717     12.345920     12.345920     24.691839
     -1.706707     12.712140     12.712140     25.424280
     -1.696697     13.065338     13.065338     26.130676
     -1.686687     13.200524     13.200524     26.401047
     -1.676677     13.055249     13.055249     26.110498
     -1.666667     12.738014     12.738014     25.476028
     -1.656657     12.453508     12.453508     24.907016
     -1.646647     12.368306     12.368306     24.736612
     -1.636637     12.496999     12.496999     24.993998
     -1.626627     12.677290     12.677290     25.354580
