# EIG2DOS: Utility for SIESTA to obtain the electronic density of states
#  E. Artacho, Apr 1999, A. Garcia, Apr 2012
#  Nick R. Papior, Feb 2017
# ------------------------------------------
# Eigenvalues calculated from a non-polarized calculation
# Eigenvalues read from siesta.EIG
# Kpoint weights read from siesta.KP
# Using smearing parameter:   0.0500
# Using 1000 points in the energy range
# Selected bands: 1 to: 2981
# Emin, Emax in file for selected band(s):    -27.1060152    218.3392940
# Nbands, Nspin, Nk   =   2981     1     1
# E_F                 =    -4.2658 eV --> (shifted to ZERO)
# Broadening          =     0.0500 eV
#
#        E            N(up)  (=)   N(down)         Ntot
     -5.000000     37.897800     37.897800     75.795599
     -4.989990     40.215289     40.215289     80.430579
     -4.979980     42.027190     42.027190     84.054380
     -4.969970     42.947574     42.947574     85.895148
     -4.959960     42.737310     42.737310     85.474620
     -4.949950     41.367892     41.367892     82.735784
     -4.939940     39.032592     39.032592     78.065184
     -4.929930     36.120742     36.120742     72.241485
     -4.919920     33.175906     33.175906     66.351813
     -4.909910     30.845267     30.845267     61.690534
     -4.899900     29.805439     29.805439     59.610878
     -4.889890     30.638447     30.638447     61.276893
     -4.879880     33.650778     33.650778     67.301557
     -4.869870     38.679750     38.679750     77.359500
     -4.859860     44.984721     44.984721     89.969441
     -4.849850     51.326942     51.326942    102.653885
     -4.839840     56.271910     56.271910    112.543819
     -4.829830     58.627693     58.627693    117.255387
     -4.819820     57.836624     57.836624    115.673248
     -4.809810     54.138617     54.138617    108.277234
     -4.799800     48.433888     48.433888     96.867775
     -4.789790     41.925166     41.925166     83.850331
     -4.779780     35.718164     35.718164     71.436327
     -4.769770     30.548467     30.548467     61.096934
     -4.759760     26.706222     26.706222     53.412445
     -4.749750     24.121918     24.121918     48.243835
     -4.739740     22.521194     22.521194     45.042388
     -4.729730     21.565860     21.565860     43.131720
     -4.719720     20.940904     20.940904     41.881809
     -4.709710     20.387525     20.387525     40.775049
     -4.699700     19.704926     19.704926     39.409852
     -4.689690     18.750313     18.750313     37.500626
     -4.679680     17.459993     17.459993     34.919986
     -4.669670     15.895675     15.895675     31.791350
     -4.659660     14.295535     14.295535     28.591070
     -4.649650     13.093308     13.093308     26.186617
     -4.639640     12.871662     12.871662     25.743323
     -4.629630     14.237383     14.237383     28.474766
     -4.619620     17.635770     17.635770     35.271540
     -4.609610     23.151331     23.151331     46.302662
     -4.599600     30.365390     30.365390     60.730781
     -4.589590     38.347508     38.347508     76.695016
     -4.579580     45.830119     45.830119     91.660239
     -4.569570     51.548288     51.548288    103.096577
     -4.559560     54.641457     54.641457    109.282914
     -4.549550     54.959825     54.959825    109.919651
     -4.539540     53.136483     53.136483    106.272966
     -4.529530     50.378585     50.378585    100.757169
     -4.519520     48.051042     48.051042     96.102083
     -4.509510     47.212102     47.212102     94.424205
     -4.499499     48.272730     48.272730     96.545459
     -4.489489     50.893393     50.893393    101.786786
     -4.479479     54.136419     54.136419    108.272838
     -4.469469     56.800786     56.800786    113.601572
     -4.459459     57.810745     57.810745    115.621490
     -4.449449     56.525069     56.525069    113.050138
     -4.439439     52.877749     52.877749    105.755499
     -4.429429     47.333781     47.333781     94.667561
     -4.419419     40.712612     40.712612     81.425223
     -4.409409     33.965502     33.965502     67.931004
     -4.399399     27.980229     27.980229     55.960458
     -4.389389     23.444960     23.444960     46.889919
     -4.379379     20.766522     20.766522     41.533044
     -4.369369     20.030091     20.030091     40.060181
     -4.359359     21.002720     21.002720     42.005441
     -4.349349     23.196534     23.196534     46.393067
     -4.339339     25.996996     25.996996     51.993993
     -4.329329     28.830055     28.830055     57.660110
     -4.319319     31.313050     31.313050     62.626100
     -4.309309     33.332797     33.332797     66.665595
     -4.299299     35.023828     35.023828     70.047657
     -4.289289     36.661104     36.661104     73.322208
     -4.279279     38.509953     38.509953     77.019907
     -4.269269     40.682103     40.682103     81.364206
     -4.259259     43.040068     43.040068     86.080135
     -4.249249     45.184490     45.184490     90.368981
     -4.239239     46.546861     46.546861     93.093721
     -4.229229     46.579165     46.579165     93.158331
     -4.219219     44.981452     44.981452     89.962903
     -4.209209     41.866293     41.866293     83.732587
     -4.199199     37.766561     37.766561     75.533121
     -4.189189     33.463388     33.463388     66.926776
     -4.179179     29.708721     29.708721     59.417443
     -4.169169     26.977290     26.977290     53.954581
     -4.159159     25.364791     25.364791     50.729582
     -4.149149     24.665840     24.665840     49.331681
     -4.139139     24.571197     24.571197     49.142395
     -4.129129     24.871179     24.871179     49.742359
     -4.119119     25.560017     25.560017     51.120034
     -4.109109     26.790580     26.790580     53.581160
     -4.099099     28.703675     28.703675     57.407351
     -4.089089     31.222870     31.222870     62.445740
     -4.079079     33.935728     33.935728     67.871457
     -4.069069     36.152148     36.152148     72.304297
     -4.059059     37.141558     37.141558     74.283116
     -4.049049     36.445000     36.445000     72.890000
     -4.039039     34.101713     34.101713     68.203426
     -4.029029     30.667288     30.667288     61.334575
     -4.019019     27.014713     27.014713     54.029426
     -4.009009     24.027972     24.027972     48.055944
     -3.998999     22.343891     22.343891     44.687781
     -3.988989     22.247832     22.247832     44.495664
     -3.978979     23.725372     23.725372     47.450743
     -3.968969     26.588983     26.588983     53.177965
     -3.958959     30.585533     30.585533     61.171067
     -3.948949     35.440930     35.440930     70.881859
     -3.938939     40.862693     40.862693     81.725386
     -3.928929     46.548189     46.548189     93.096378
     -3.918919     52.221456     52.221456    104.442913
     -3.908909     57.674743     57.674743    115.349487
     -3.898899     62.767284     62.767284    125.534568
     -3.888889     67.356611     67.356611    134.713223
     -3.878879     71.191022     71.191022    142.382045
     -3.868869     73.835344     73.835344    147.670689
     -3.858859     74.701856     74.701856    149.403712
     -3.848849     73.209013     73.209013    146.418026
     -3.838839     69.018593     69.018593    138.037186
     -3.828829     62.248160     62.248160    124.496320
     -3.818819     53.552943     53.552943    107.105886
     -3.808809     44.023936     44.023936     88.047871
     -3.798799     34.930078     34.930078     69.860157
     -3.788789     27.398654     27.398654     54.797308
     -3.778779     22.147056     22.147056     44.294113
     -3.768769     19.347993     19.347993     38.695986
     -3.758759     18.653050     18.653050     37.306100
     -3.748749     19.347271     19.347271     38.694541
     -3.738739     20.578134     20.578134     41.156268
     -3.728729     21.596017     21.596017     43.192034
     -3.718719     21.950426     21.950426     43.900853
     -3.708709     21.598813     21.598813     43.197626
     -3.698699     20.900992     20.900992     41.801984
     -3.688689     20.494457     20.494457     40.988914
     -3.678679     21.075709     21.075709     42.151417
     -3.668669     23.145666     23.145666     46.291333
     -3.658659     26.801128     26.801128     53.602257
     -3.648649     31.652312     31.652312     63.304624
     -3.638639     36.908288     36.908288     73.816576
     -3.628629     41.605735     41.605735     83.211470
     -3.618619     44.892562     44.892562     89.785124
     -3.608609     46.254239     46.254239     92.508478
     -3.598599     45.604465     45.604465     91.208929
     -3.588589     43.232367     43.232367     86.464734
     -3.578579     39.659907     39.659907     79.319815
     -3.568569     35.480465     35.480465     70.960929
     -3.558559     31.225602     31.225602     62.451205
     -3.548549     27.274434     27.274434     54.548867
     -3.538539     23.807005     23.807005     47.614010
     -3.528529     20.808101     20.808101     41.616203
     -3.518519     18.127920     18.127920     36.255840
     -3.508509     15.586868     15.586868     31.173736
     -3.498498     13.085011     13.085011     26.170022
     -3.488488     10.667745     10.667745     21.335489
     -3.478478      8.519806      8.519806     17.039611
     -3.468468      6.895884      6.895884     13.791768
     -3.458458      6.022646      6.022646     12.045292
     -3.448448      6.010573      6.010573     12.021145
     -3.438438      6.801732      6.801732     13.603464
     -3.428428      8.166452      8.166452     16.332905
     -3.418418      9.753723      9.753723     19.507445
     -3.408408     11.190349     11.190349     22.380697
     -3.398398     12.205906     12.205906     24.411812
     -3.388388     12.740552     12.740552     25.481104
     -3.378378     12.987823     12.987823     25.975645
     -3.368368     13.346145     13.346145     26.692290
     -3.358358     14.292676     14.292676     28.585351
     -3.348348     16.226780     16.226780     32.453559
     -3.338338     19.336647     19.336647     38.673294
     -3.328328     23.521632     23.521632     47.043265
     -3.318318     28.376319     28.376319     56.752637
     -3.308308     33.232184     33.232184     66.464368
     -3.298298     37.259589     37.259589     74.519179
     -3.288288     39.634488     39.634488     79.268975
     -3.278278     39.749821     39.749821     79.499641
     -3.268268     37.408950     37.408950     74.817901
     -3.258258     32.914852     32.914852     65.829704
     -3.248248     26.997686     26.997686     53.995371
     -3.238238     20.598455     20.598455     41.196910
     -3.228228     14.600264     14.600264     29.200529
     -3.218218      9.620728      9.620728     19.241456
     -3.208208      5.937368      5.937368     11.874736
     -3.198198      3.545354      3.545354      7.090709
     -3.188188      2.290708      2.290708      4.581415
     -3.178178      2.007469      2.007469      4.014939
     -3.168168      2.607599      2.607599      5.215199
     -3.158158      4.104490      4.104490      8.208981
     -3.148148      6.576981      6.576981     13.153963
     -3.138138     10.095723     10.095723     20.191446
     -3.128128     14.640440     14.640440     29.280879
     -3.118118     20.037206     20.037206     40.074411
     -3.108108     25.938729     25.938729     51.877458
     -3.098098     31.857799     31.857799     63.715599
     -3.088088     37.247602     37.247602     74.495204
     -3.078078     41.607097     41.607097     83.214195
     -3.068068     44.579103     44.579103     89.158206
     -3.058058     46.007002     46.007002     92.014004
     -3.048048     45.927981     45.927981     91.855963
     -3.038038     44.507623     44.507623     89.015247
     -3.028028     41.952446     41.952446     83.904893
     -3.018018     38.452493     38.452493     76.904986
     -3.008008     34.188718     34.188718     68.377435
     -2.997998     29.396246     29.396246     58.792491
     -2.987988     24.434489     24.434489     48.868979
     -2.977978     19.808399     19.808399     39.616798
     -2.967968     16.115137     16.115137     32.230273
     -2.957958     13.932085     13.932085     27.864170
     -2.947948     13.685966     13.685966     27.371932
     -2.937938     15.540608     15.540608     31.081216
     -2.927928     19.327194     19.327194     38.654389
     -2.917918     24.532908     24.532908     49.065817
     -2.907908     30.362917     30.362917     60.725833
     -2.897898     35.882786     35.882786     71.765572
     -2.887888     40.222881     40.222881     80.445761
     -2.877878     42.790595     42.790595     85.581190
     -2.867868     43.414045     43.414045     86.828089
     -2.857858     42.353900     42.353900     84.707801
     -2.847848     40.170329     40.170329     80.340658
     -2.837838     37.496827     37.496827     74.993655
     -2.827828     34.817450     34.817450     69.634900
     -2.817818     32.342303     32.342303     64.684607
     -2.807808     30.026752     30.026752     60.053505
     -2.797798     27.707562     27.707562     55.415124
     -2.787788     25.272538     25.272538     50.545076
     -2.777778     22.769602     22.769602     45.539204
     -2.767768     20.401898     20.401898     40.803796
     -2.757758     18.424055     18.424055     36.848109
     -2.747748     17.011718     17.011718     34.023435
     -2.737738     16.188463     16.188463     32.376926
     -2.727728     15.853955     15.853955     31.707909
     -2.717718     15.889156     15.889156     31.778312
     -2.707708     16.261878     16.261878     32.523755
     -2.697698     17.054352     17.054352     34.108704
     -2.687688     18.387319     18.387319     36.774637
     -2.677678     20.288871     20.288871     40.577742
     -2.667668     22.600678     22.600678     45.201357
     -2.657658     24.995893     24.995893     49.991786
     -2.647648     27.110655     27.110655     54.221309
     -2.637638     28.712604     28.712604     57.425208
     -2.627628     29.800929     29.800929     59.601859
     -2.617618     30.575879     30.575879     61.151759
     -2.607608     31.301616     31.301616     62.603232
     -2.597598     32.152363     32.152363     64.304726
     -2.587588     33.130942     33.130942     66.261883
     -2.577578     34.087025     34.087025     68.174050
     -2.567568     34.793399     34.793399     69.586799
     -2.557558     35.016896     35.016896     70.033791
     -2.547548     34.555493     34.555493     69.110986
     -2.537538     33.262929     33.262929     66.525859
     -2.527528     31.096295     31.096295     62.192591
     -2.517518     28.188065     28.188065     56.376130
     -2.507508     24.896835     24.896835     49.793671
     -2.497497     21.778086     21.778086     43.556172
     -2.487487     19.453801     19.453801     38.907602
     -2.477477     18.421542     18.421542     36.843084
     -2.467467     18.885986     18.885986     37.771973
     -2.457457     20.692401     20.692401     41.384803
     -2.447447     23.396067     23.396067     46.792135
     -2.437437     26.439679     26.439679     52.879358
     -2.427427     29.361686     29.361686     58.723372
     -2.417417     31.943593     31.943593     63.887186
     -2.407407     34.230167     34.230167     68.460335
     -2.397397     36.413344     36.413344     72.826689
     -2.387387     38.634528     38.634528     77.269057
     -2.377377     40.802565     40.802565     81.605131
     -2.367367     42.524742     42.524742     85.049485
     -2.357357     43.201277     43.201277     86.402553
     -2.347347     42.256564     42.256564     84.513129
     -2.337337     39.408259     39.408259     78.816519
     -2.327327     34.848058     34.848058     69.696115
     -2.317317     29.246300     29.246300     58.492599
     -2.307307     23.577970     23.577970     47.155939
     -2.297297     18.850654     18.850654     37.701308
     -2.287287     15.848074     15.848074     31.696149
     -2.277277     14.974779     14.974779     29.949559
     -2.267267     16.227186     16.227186     32.454372
     -2.257257     19.264308     19.264308     38.528616
     -2.247247     23.529969     23.529969     47.059938
     -2.237237     28.382150     28.382150     56.764300
     -2.227227     33.198613     33.198613     66.397226
     -2.217217     37.442239     37.442239     74.884477
     -2.207207     40.685382     40.685382     81.370764
     -2.197197     42.610206     42.610206     85.220412
     -2.187187     43.013188     43.013188     86.026376
     -2.177177     41.834736     41.834736     83.669472
     -2.167167     39.206908     39.206908     78.413816
     -2.157157     35.480364     35.480364     70.960729
     -2.147147     31.183380     31.183380     62.366760
     -2.137137     26.896665     26.896665     53.793331
     -2.127127     23.083275     23.083275     46.166550
     -2.117117     19.953654     19.953654     39.907307
     -2.107107     17.437589     17.437589     34.875178
     -2.097097     15.277724     15.277724     30.555448
     -2.087087     13.190920     13.190920     26.381841
     -2.077077     11.010294     11.010294     22.020588
     -2.067067      8.741905      8.741905     17.483810
     -2.057057      6.526419      6.526419     13.052838
     -2.047047      4.547277      4.547277      9.094555
     -2.037037      2.943476      2.943476      5.886952
     -2.027027      1.765818      1.765818      3.531636
     -2.017017      0.981934      0.981934      1.963868
     -2.007007      0.510924      0.510924      1.021848
     -1.996997      0.263240      0.263240      0.526479
     -1.986987      0.170428      0.170428      0.340855
     -1.976977      0.201422      0.201422      0.402843
     -1.966967      0.369004      0.369004      0.738007
     -1.956957      0.729884      0.729884      1.459768
     -1.946947      1.377566      1.377566      2.755131
     -1.936937      2.423556      2.423556      4.847111
     -1.926927      3.963784      3.963784      7.927568
     -1.916917      6.034449      6.034449     12.068898
     -1.906907      8.571527      8.571527     17.143053
     -1.896897     11.393595     11.393595     22.787190
     -1.886887     14.222209     14.222209     28.444418
     -1.876877     16.738714     16.738714     33.477429
     -1.866867     18.659984     18.659984     37.319967
     -1.856857     19.808412     19.808412     39.616823
     -1.846847     20.155955     20.155955     40.311910
     -1.836837     19.831546     19.831546     39.663092
     -1.826827     19.088940     19.088940     38.177879
     -1.816817     18.238922     18.238922     36.477845
     -1.806807     17.561079     17.561079     35.122158
     -1.796797     17.224094     17.224094     34.448189
     -1.786787     17.247202     17.247202     34.494404
     -1.776777     17.518171     17.518171     35.036342
     -1.766767     17.852309     17.852309     35.704618
     -1.756757     18.055802     18.055802     36.111604
     -1.746747     17.963848     17.963848     35.927695
     -1.736737     17.452866     17.452866     34.905733
     -1.726727     16.449466     16.449466     32.898933
     -1.716717     14.955183     14.955183     29.910367
     -1.706707     13.080253     13.080253     26.160505
     -1.696697     11.057597     11.057597     22.115194
     -1.686687      9.210708      9.210708     18.421417
     -1.676677      7.873796      7.873796     15.747592
     -1.666667      7.289742      7.289742     14.579485
     -1.656657      7.523859      7.523859     15.047717
     -1.646647      8.426571      8.426571     16.853142
     -1.636637      9.662944      9.662944     19.325889
     -1.626627     10.807022     10.807022     21.614045
