# EIG2DOS: Utility for SIESTA to obtain the electronic density of states
#  E. Artacho, Apr 1999, A. Garcia, Apr 2012
#  Nick R. Papior, Feb 2017
# ------------------------------------------
# Eigenvalues calculated from a non-polarized calculation
# Eigenvalues read from siesta.EIG
# Kpoint weights read from siesta.KP
# Using smearing parameter:   0.0500
# Using 1000 points in the energy range
# Selected bands: 1 to: 2981
# Emin, Emax in file for selected band(s):    -27.0441021    218.3364880
# Nbands, Nspin, Nk   =   2981     1     1
# E_F                 =    -4.2717 eV --> (shifted to ZERO)
# Broadening          =     0.0500 eV
#
#        E            N(up)  (=)   N(down)         Ntot
     -5.000000     39.432851     39.432851     78.865701
     -4.989990     41.396394     41.396394     82.792788
     -4.979980     42.988680     42.988680     85.977360
     -4.969970     43.829524     43.829524     87.659048
     -4.959960     43.622029     43.622029     87.244057
     -4.949950     42.264542     42.264542     84.529084
     -4.939940     39.898051     39.898051     79.796101
     -4.929930     36.892671     36.892671     73.785341
     -4.919920     33.798276     33.798276     67.596552
     -4.909910     31.279042     31.279042     62.558085
     -4.899900     30.028363     30.028363     60.056726
     -4.889890     30.642681     30.642681     61.285362
     -4.879880     33.445017     33.445017     66.890033
     -4.869870     38.296195     38.296195     76.592390
     -4.859860     44.485135     44.485135     88.970270
     -4.849850     50.799794     50.799794    101.599587
     -4.839840     55.816351     55.816351    111.632701
     -4.829830     58.328075     58.328075    116.656150
     -4.819820     57.738404     57.738404    115.476808
     -4.809810     54.237572     54.237572    108.475145
     -4.799800     48.683990     48.683990     97.367980
     -4.789790     42.260454     42.260454     84.520909
     -4.779780     36.077277     36.077277     72.154555
     -4.769770     30.891206     30.891206     61.782413
     -4.759760     27.017888     27.017888     54.035775
     -4.749750     24.407825     24.407825     48.815650
     -4.739740     22.796628     22.796628     45.593256
     -4.729730     21.845833     21.845833     43.691667
     -4.719720     21.232183     21.232183     42.464367
     -4.709710     20.684356     20.684356     41.368712
     -4.699700     19.989365     19.989365     39.978730
     -4.689690     18.996816     18.996816     37.993633
     -4.679680     17.641937     17.641937     35.283873
     -4.669670     15.990246     15.990246     31.980492
     -4.659660     14.284408     14.284408     28.568817
     -4.649650     12.959586     12.959586     25.919172
     -4.639640     12.596896     12.596896     25.193791
     -4.629630     13.803765     13.803765     27.607529
     -4.619620     17.036328     17.036328     34.072656
     -4.609610     22.405638     22.405638     44.811276
     -4.599600     29.532416     29.532416     59.064831
     -4.589590     37.524597     37.524597     75.049193
     -4.579580     45.130580     45.130580     90.261159
     -4.569570     51.059242     51.059242    102.118484
     -4.559560     54.374037     54.374037    108.748074
     -4.549550     54.809599     54.809599    109.619199
     -4.539540     52.870285     52.870285    105.740571
     -4.529530     49.657197     49.657197     99.314393
     -4.519520     46.490276     46.490276     92.980551
     -4.509510     44.479480     44.479480     88.958961
     -4.499499     44.208915     44.208915     88.417829
     -4.489489     45.631962     45.631962     91.263923
     -4.479479     48.176184     48.176184     96.352368
     -4.469469     50.977656     50.977656    101.955312
     -4.459459     53.139243     53.139243    106.278487
     -4.449449     53.934894     53.934894    107.869787
     -4.439439     52.932748     52.932748    105.865496
     -4.429429     50.048583     50.048583    100.097166
     -4.419419     45.549617     45.549617     91.099235
     -4.409409     40.014250     40.014250     80.028501
     -4.399399     34.238491     34.238491     68.476982
     -4.389389     29.084098     29.084098     58.168195
     -4.379379     25.288745     25.288745     50.577491
     -4.369369     23.288927     23.288927     46.577855
     -4.359359     23.119044     23.119044     46.238089
     -4.349349     24.431384     24.431384     48.862768
     -4.339339     26.636046     26.636046     53.272092
     -4.329329     29.109212     29.109212     58.218424
     -4.319319     31.389398     31.389398     62.778795
     -4.309309     33.290005     33.290005     66.580009
     -4.299299     34.896460     34.896460     69.792921
     -4.289289     36.463644     36.463644     72.927287
     -4.279279     38.260086     38.260086     76.520172
     -4.269269     40.412354     40.412354     80.824707
     -4.259259     42.796553     42.796553     85.593106
     -4.249249     45.015666     45.015666     90.031333
     -4.239239     46.487917     46.487917     92.975835
     -4.229229     46.638701     46.638701     93.277401
     -4.219219     45.136172     45.136172     90.272344
     -4.209209     42.066756     42.066756     84.133512
     -4.199199     37.952802     37.952802     75.905605
     -4.189189     33.584968     33.584968     67.169936
     -4.179179     29.741355     29.741355     59.482711
     -4.169169     26.929422     26.929422     53.858844
     -4.159159     25.271786     25.271786     50.543572
     -4.149149     24.574693     24.574693     49.149386
     -4.139139     24.522163     24.522163     49.044327
     -4.129129     24.883381     24.883381     49.766761
     -4.119119     25.626210     25.626210     51.252419
     -4.109109     26.882899     26.882899     53.765798
     -4.099099     28.788019     28.788019     57.576038
     -4.089089     31.275673     31.275673     62.551346
     -4.079079     33.955020     33.955020     67.910040
     -4.069069     36.156863     36.156863     72.313725
     -4.059059     37.159087     37.159087     74.318175
     -4.049049     36.493909     36.493909     72.987817
     -4.039039     34.179819     34.179819     68.359638
     -4.029029     30.752270     30.752270     61.504541
     -4.019019     27.076648     27.076648     54.153296
     -4.009009     24.045839     24.045839     48.091677
     -3.998999     22.316081     22.316081     44.632162
     -3.988989     22.191097     22.191097     44.382193
     -3.978979     23.664095     23.664095     47.328190
     -3.968969     26.541950     26.541950     53.083899
     -3.958959     30.557276     30.557276     61.114552
     -3.948949     35.420339     35.420339     70.840678
     -3.938939     40.826850     40.826850     81.653700
     -3.928929     46.467919     46.467919     92.935838
     -3.918919     52.067240     52.067240    104.134479
     -3.908909     57.424398     57.424398    114.848796
     -3.898899     62.416757     62.416757    124.833514
     -3.888889     66.931552     66.931552    133.863104
     -3.878879     70.752440     70.752440    141.504880
     -3.868869     73.472038     73.472038    146.944076
     -3.858859     74.507652     74.507652    149.015305
     -3.848849     73.251762     73.251762    146.503523
     -3.838839     69.314365     69.314365    138.628731
     -3.828829     62.753176     62.753176    125.506352
     -3.818819     54.177262     54.177262    108.354524
     -3.808809     44.660221     44.660221     89.320442
     -3.798799     35.484453     35.484453     70.968907
     -3.788789     27.811944     27.811944     55.623887
     -3.778779     22.401364     22.401364     44.802728
     -3.768769     19.460624     19.460624     38.921247
     -3.758759     18.663447     18.663447     37.326894
     -3.748749     19.302423     19.302423     38.604845
     -3.738739     20.519762     20.519762     41.039524
     -3.728729     21.551020     21.551020     43.102041
     -3.718719     21.925355     21.925355     43.850709
     -3.708709     21.579247     21.579247     43.158493
     -3.698699     20.856630     20.856630     41.713260
     -3.688689     20.389764     20.389764     40.779527
     -3.678679     20.884019     20.884019     41.768039
     -3.668669     22.862440     22.862440     45.724880
     -3.658659     26.450912     26.450912     52.901824
     -3.648649     31.285399     31.285399     62.570798
     -3.638639     36.587133     36.587133     73.174266
     -3.628629     41.386231     41.386231     82.772463
     -3.618619     44.808185     44.808185     89.616371
     -3.608609     46.309610     46.309610     92.619220
     -3.598599     45.779702     45.779702     91.559405
     -3.588589     43.494065     43.494065     86.988129
     -3.578579     39.972274     39.972274     79.944548
     -3.568569     35.812156     35.812156     71.624312
     -3.558559     31.551797     31.551797     63.103594
     -3.548549     27.576535     27.576535     55.153069
     -3.538539     24.072334     24.072334     48.144667
     -3.528529     21.030126     21.030126     42.060252
     -3.518519     18.306056     18.306056     36.612111
     -3.508509     15.724933     15.724933     31.449865
     -3.498498     13.188564     13.188564     26.377128
     -3.488488     10.741496     10.741496     21.482992
     -3.478478      8.566260      8.566260     17.132520
     -3.468468      6.915665      6.915665     13.831330
     -3.458458      6.016129      6.016129     12.032258
     -3.448448      5.980030      5.980030     11.960059
     -3.438438      6.753055      6.753055     13.506111
     -3.428428      8.109595      8.109595     16.219191
     -3.418418      9.701242      9.701242     19.402484
     -3.408408     11.154071     11.154071     22.308142
     -3.398398     12.192573     12.192573     24.385145
     -3.388388     12.747916     12.747916     25.495833
     -3.378378     13.002630     13.002630     26.005260
     -3.368368     13.344781     13.344781     26.689561
     -3.358358     14.244634     14.244634     28.489268
     -3.348348     16.100874     16.100874     32.201748
     -3.338338     19.109826     19.109826     38.219652
     -3.328328     23.189446     23.189446     46.378893
     -3.318318     27.962148     27.962148     55.924295
     -3.308308     32.790305     32.790305     65.580610
     -3.298298     36.867396     36.867396     73.734791
     -3.288288     39.373115     39.373115     78.746231
     -3.278278     39.678893     39.678893     79.357785
     -3.268268     37.545990     37.545990     75.091980
     -3.258258     33.229154     33.229154     66.458307
     -3.248248     27.421529     27.421529     54.843057
     -3.238238     21.049501     21.049501     42.099002
     -3.228228     15.003334     15.003334     30.006668
     -3.218218      9.917838      9.917838     19.835675
     -3.208208      6.080465      6.080465     12.160930
     -3.198198      3.472878      3.472878      6.945757
     -3.188188      1.894360      1.894360      3.788721
     -3.178178      1.099710      1.099710      2.199420
     -3.168168      0.904579      0.904579      1.809158
     -3.158158      1.242231      1.242231      2.484462
     -3.148148      2.175709      2.175709      4.351419
     -3.138138      3.873044      3.873044      7.746089
     -3.128128      6.548931      6.548931     13.097863
     -3.118118     10.376473     10.376473     20.752945
     -3.108108     15.383118     15.383118     30.766237
     -3.098098     21.361395     21.361395     42.722791
     -3.088088     27.834726     27.834726     55.669452
     -3.078078     34.109117     34.109117     68.218235
     -3.068068     39.410542     39.410542     78.821083
     -3.058058     43.068393     43.068393     86.136787
     -3.048048     44.679971     44.679971     89.359941
     -3.038038     44.196777     44.196777     88.393554
     -3.028028     41.909223     41.909223     83.818446
     -3.018018     38.350737     38.350737     76.701474
     -3.008008     34.168855     34.168855     68.337709
     -2.997998     30.007434     30.007434     60.014868
     -2.987988     26.421315     26.421315     52.842629
     -2.977978     23.824501     23.824501     47.649001
     -2.967968     22.467585     22.467585     44.935171
     -2.957958     22.442852     22.442852     44.885703
     -2.947948     23.711569     23.711569     47.423138
     -2.937938     26.135267     26.135267     52.270535
     -2.927928     29.486633     29.486633     58.973267
     -2.917918     33.432054     33.432054     66.864107
     -2.907908     37.511001     37.511001     75.022003
     -2.897898     41.159267     41.159267     82.318535
     -2.887888     43.807379     43.807379     87.614757
     -2.877878     45.035445     45.035445     90.070890
     -2.867868     44.715244     44.715244     89.430489
     -2.857858     43.059034     43.059034     86.118069
     -2.847848     40.535684     40.535684     81.071369
     -2.837838     37.685102     37.685102     75.370204
     -2.827828     34.918413     34.918413     69.836827
     -2.817818     32.399714     32.399714     64.799429
     -2.807808     30.060700     30.060700     60.121400
     -2.797798     27.728012     27.728012     55.456024
     -2.787788     25.284965     25.284965     50.569930
     -2.777778     22.776201     22.776201     45.552403
     -2.767768     20.401847     20.401847     40.803694
     -2.757758     18.414446     18.414446     36.828892
     -2.747748     16.988649     16.988649     33.977298
     -2.737738     16.146955     16.146955     32.293910
     -2.727728     15.786386     15.786386     31.572772
     -2.717718     15.783881     15.783881     31.567762
     -2.707708     16.104767     16.104767     32.209535
     -2.697698     16.834839     16.834839     33.669677
     -2.687688     18.107322     18.107322     36.214644
     -2.677678     19.969708     19.969708     39.939416
     -2.667668     22.282369     22.282369     44.564739
     -2.657658     24.726518     24.726518     49.453036
     -2.647648     26.929238     26.929238     53.858476
     -2.637638     28.633737     28.633737     57.267474
     -2.627628     29.809341     29.809341     59.618681
     -2.617618     30.633896     30.633896     61.267791
     -2.607608     31.365252     31.365252     62.730504
     -2.597598     32.187605     32.187605     64.375210
     -2.587588     33.123240     33.123240     66.246480
     -2.577578     34.042276     34.042276     68.084553
     -2.567568     34.733267     34.733267     69.466534
     -2.557558     34.972096     34.972096     69.944193
     -2.547548     34.558438     34.558438     69.116876
     -2.537538     33.339261     33.339261     66.678521
     -2.527528     31.255734     31.255734     62.511468
     -2.517518     28.417593     28.417593     56.835185
     -2.507508     25.160457     25.160457     50.320914
     -2.497497     22.025267     22.025267     44.050534
     -2.487487     19.634238     19.634238     39.268476
     -2.477477     18.500343     18.500343     37.000686
     -2.467467     18.853007     18.853007     37.706013
     -2.457457     20.562475     20.562475     41.124949
     -2.447447     23.201179     23.201179     46.402357
     -2.437437     26.217383     26.217383     52.434767
     -2.427427     29.144839     29.144839     58.289678
     -2.417417     31.754769     31.754769     63.509538
     -2.407407     34.081330     34.081330     68.162661
     -2.397397     36.309098     36.309098     72.618196
     -2.387387     38.576604     38.576604     77.153207
     -2.377377     40.793708     40.793708     81.587415
     -2.367367     42.570755     42.570755     85.141509
     -2.357357     43.310251     43.310251     86.620501
     -2.347347     42.434934     42.434934     84.869869
     -2.337337     39.654905     39.654905     79.309810
     -2.327327     35.149541     35.149541     70.299082
     -2.317317     29.576631     29.576631     59.153262
     -2.307307     23.904091     23.904091     47.808182
     -2.297297     19.141344     19.141344     38.282687
     -2.287287     16.081760     16.081760     32.163521
     -2.277277     15.142462     15.142462     30.284924
     -2.267267     16.329746     16.329746     32.659493
     -2.257257     19.306762     19.306762     38.613525
     -2.247247     23.516719     23.516719     47.033438
     -2.237237     28.316243     28.316243     56.632486
     -2.227227     33.085219     33.085219     66.170438
     -2.217217     37.293603     37.293603     74.587205
     -2.207207     40.523194     40.523194     81.046389
     -2.197197     42.462609     42.462609     84.925217
     -2.187187     42.906851     42.906851     85.813703
     -2.177177     41.785654     41.785654     83.571307
     -2.167167     39.214721     39.214721     78.429441
     -2.157157     35.529363     35.529363     71.058725
     -2.147147     31.249895     31.249895     62.499790
     -2.137137     26.959314     26.959314     53.918629
     -2.127127     23.131227     23.131227     46.262454
     -2.117117     19.989268     19.989268     39.978536
     -2.107107     17.472720     17.472720     34.945439
     -2.097097     15.326115     15.326115     30.652229
     -2.087087     13.260790     13.260790     26.521580
     -2.077077     11.100618     11.100618     22.201236
     -2.067067      8.843546      8.843546     17.687093
     -2.057057      6.626643      6.626643     13.253286
     -2.047047      4.634842      4.634842      9.269685
     -2.037037      3.011896      3.011896      6.023792
     -2.027027      1.813942      1.813942      3.627884
     -2.017017      1.012477      1.012477      2.024954
     -2.007007      0.528234      0.528234      1.056468
     -1.996997      0.271368      0.271368      0.542735
     -1.986987      0.171923      0.171923      0.343845
     -1.976977      0.196777      0.196777      0.393554
     -1.966967      0.356523      0.356523      0.713045
     -1.956957      0.705904      0.705904      1.411808
     -1.946947      1.337219      1.337219      2.674438
     -1.936937      2.362316      2.362316      4.724633
     -1.926927      3.879755      3.879755      7.759510
     -1.916917      5.930752      5.930752     11.861505
     -1.906907      8.457611      8.457611     16.915222
     -1.896897     11.284262     11.284262     22.568524
     -1.886887     14.133998     14.133998     28.267995
     -1.876877     16.684573     16.684573     33.369145
     -1.866867     18.644140     18.644140     37.288279
     -1.856857     19.823106     19.823106     39.646213
     -1.846847     20.180177     20.180177     40.360354
     -1.836837     19.829789     19.829789     39.659579
     -1.826827     19.006460     19.006460     38.012920
     -1.816817     17.990110     17.990110     35.980220
     -1.806807     17.010400     17.010400     34.020800
     -1.796797     16.165167     16.165167     32.330335
     -1.786787     15.394017     15.394017     30.788034
     -1.776777     14.529095     14.529095     29.058190
     -1.766767     13.405193     13.405193     26.810385
     -1.756757     11.975174     11.975174     23.950347
     -1.746747     10.370621     10.370621     20.741243
     -1.736737      8.876872      8.876872     17.753743
     -1.726727      7.836190      7.836190     15.672379
     -1.716717      7.524994      7.524994     15.049988
     -1.706707      8.056462      8.056462     16.112923
     -1.696697      9.343186      9.343186     18.686373
     -1.686687     11.128641     11.128641     22.257282
     -1.676677     13.070631     13.070631     26.141261
     -1.666667     14.840652     14.840652     29.681304
     -1.656657     16.197468     16.197468     32.394936
     -1.646647     17.008232     17.008232     34.016464
     -1.636637     17.222372     17.222372     34.444743
     -1.626627     16.833023     16.833023     33.666047
