# EIG2DOS: Utility for SIESTA to obtain the electronic density of states
#  E. Artacho, Apr 1999, A. Garcia, Apr 2012
#  Nick R. Papior, Feb 2017
# ------------------------------------------
# Eigenvalues calculated from a non-polarized calculation
# Eigenvalues read from siesta.EIG
# Kpoint weights read from siesta.KP
# Using smearing parameter:   0.0500
# Using 1000 points in the energy range
# Selected bands: 1 to: 2981
# Emin, Emax in file for selected band(s):    -27.0488867    218.3259380
# Nbands, Nspin, Nk   =   2981     1     1
# E_F                 =    -4.2826 eV --> (shifted to ZERO)
# Broadening          =     0.0500 eV
#
#        E            N(up)  (=)   N(down)         Ntot
     -5.000000     39.187463     39.187463     78.374927
     -4.989990     41.044515     41.044515     82.089030
     -4.979980     42.598931     42.598931     85.197862
     -4.969970     43.495961     43.495961     86.991921
     -4.959960     43.430660     43.430660     86.861320
     -4.949950     42.264975     42.264975     84.529950
     -4.939940     40.089600     40.089600     80.179201
     -4.929930     37.226205     37.226205     74.452410
     -4.919920     34.189088     34.189088     68.378176
     -4.909910     31.625083     31.625083     63.250167
     -4.899900     30.231093     30.231093     60.462187
     -4.889890     30.630322     30.630322     61.260644
     -4.879880     33.196335     33.196335     66.392669
     -4.869870     37.857517     37.857517     75.715033
     -4.859860     43.969399     43.969399     87.938798
     -4.849850     50.360093     50.360093    100.720187
     -4.839840     55.598425     55.598425    111.196849
     -4.829830     58.419726     58.419726    116.839451
     -4.819820     58.138863     58.138863    116.277726
     -4.809810     54.861305     54.861305    109.722611
     -4.799800     49.395987     49.395987     98.791973
     -4.789790     42.924966     42.924966     85.849932
     -4.779780     36.598382     36.598382     73.196764
     -4.769770     31.231837     31.231837     62.463674
     -4.759760     27.196553     27.196553     54.393105
     -4.749750     24.480771     24.480771     48.961541
     -4.739740     22.834763     22.834763     45.669525
     -4.729730     21.913151     21.913151     43.826303
     -4.719720     21.369829     21.369829     42.739658
     -4.709710     20.903064     20.903064     41.806129
     -4.699700     20.271385     20.271385     40.542770
     -4.689690     19.305394     19.305394     38.610788
     -4.679680     17.933259     17.933259     35.866518
     -4.669670     16.221807     16.221807     32.443613
     -4.659660     14.416240     14.416240     28.832480
     -4.649650     12.949479     12.949479     25.898958
     -4.639640     12.395139     12.395139     24.790279
     -4.629630     13.354909     13.354909     26.709818
     -4.619620     16.293590     16.293590     32.587180
     -4.609610     21.357566     21.357566     42.715132
     -4.599600     28.232575     28.232575     56.465150
     -4.589590     36.107635     36.107635     72.215269
     -4.579580     43.798124     43.798124     87.596249
     -4.569570     50.030472     50.030472    100.060943
     -4.559560     53.814918     53.814918    107.629835
     -4.549550     54.770618     54.770618    109.541235
     -4.539540     53.263057     53.263057    106.526114
     -4.529530     50.282612     50.282612    100.565223
     -4.519520     47.104754     47.104754     94.209509
     -4.509510     44.868066     44.868066     89.736132
     -4.499499     44.235426     44.235426     88.470852
     -4.489489     45.254643     45.254643     90.509287
     -4.479479     47.438199     47.438199     94.876398
     -4.469469     49.990626     49.990626     99.981253
     -4.459459     52.070351     52.070351    104.140701
     -4.449449     52.992515     52.992515    105.985030
     -4.439439     52.337103     52.337103    104.674205
     -4.429429     49.981438     49.981438     99.962875
     -4.419419     46.095944     46.095944     92.191888
     -4.409409     41.123447     41.123447     82.246893
     -4.399399     35.729716     35.729716     71.459432
     -4.389389     30.699205     30.699205     61.398409
     -4.379379     26.771034     26.771034     53.542068
     -4.369369     24.453267     24.453267     48.906534
     -4.359359     23.885987     23.885987     47.771975
     -4.349349     24.818077     24.818077     49.636154
     -4.339339     26.716809     26.716809     53.433617
     -4.329329     28.968436     28.968436     57.936871
     -4.319319     31.087079     31.087079     62.174157
     -4.309309     32.850327     32.850327     65.700655
     -4.299299     34.318661     34.318661     68.637322
     -4.289289     35.746445     35.746445     71.492890
     -4.279279     37.427968     37.427968     74.855936
     -4.269269     39.533060     39.533060     79.066120
     -4.259259     41.982690     41.982690     83.965379
     -4.249249     44.407641     44.407641     88.815281
     -4.239239     46.220718     46.220718     92.441436
     -4.229229     46.801267     46.801267     93.602533
     -4.219219     45.737564     45.737564     91.475127
     -4.209209     43.024128     43.024128     86.048256
     -4.199199     39.109203     39.109203     78.218407
     -4.189189     34.752138     34.752138     69.504277
     -4.179179     30.750875     30.750875     61.501750
     -4.169169     27.672004     27.672004     55.344007
     -4.159159     25.711099     25.711099     51.422197
     -4.149149     24.734295     24.734295     49.468590
     -4.139139     24.455216     24.455216     48.910432
     -4.129129     24.640495     24.640495     49.280991
     -4.119119     25.236266     25.236266     50.472532
     -4.109109     26.355638     26.355638     52.711277
     -4.099099     28.136919     28.136919     56.273838
     -4.089089     30.548034     30.548034     61.096069
     -4.079079     33.249313     33.249313     66.498627
     -4.069069     35.611219     35.611219     71.222439
     -4.059059     36.910076     36.910076     73.820152
     -4.049049     36.623403     36.623403     73.246805
     -4.039039     34.677395     34.677395     69.354790
     -4.029029     31.513489     31.513489     63.026978
     -4.019019     27.937739     27.937739     55.875479
     -4.009009     24.836031     24.836031     49.672063
     -3.998999     22.902439     22.902439     45.804879
     -3.988989     22.499666     22.499666     44.999331
     -3.978979     23.677003     23.677003     47.354006
     -3.968969     26.281476     26.281476     52.562952
     -3.958959     30.068882     30.068882     60.137764
     -3.948949     34.760041     34.760041     69.520083
     -3.938939     40.051534     40.051534     80.103068
     -3.928929     45.625939     45.625939     91.251878
     -3.918919     51.190782     51.190782    102.381565
     -3.908909     56.529481     56.529481    113.058962
     -3.898899     61.515879     61.515879    123.031757
     -3.888889     66.056544     66.056544    132.113088
     -3.878879     69.975529     69.975529    139.951059
     -3.868869     72.909001     72.909001    145.818002
     -3.858859     74.293326     74.293326    148.586652
     -3.848849     73.493118     73.493118    146.986235
     -3.838839     70.041177     70.041177    140.082354
     -3.828829     63.890904     63.890904    127.781807
     -3.818819     55.557239     55.557239    111.114478
     -3.808809     46.064030     46.064030     92.128060
     -3.798799     36.703708     36.703708     73.407417
     -3.788789     28.700192     28.700192     57.400384
     -3.778779     22.901964     22.901964     45.803929
     -3.768769     19.606648     19.606648     39.213295
     -3.758759     18.555396     18.555396     37.110791
     -3.748749     19.073571     19.073571     38.147141
     -3.738739     20.298637     20.298637     40.597274
     -3.728729     21.428809     21.428809     42.857618
     -3.718719     21.934507     21.934507     43.869013
     -3.708709     21.687886     21.687886     43.375771
     -3.698699     20.980739     20.980739     41.961478
     -3.688689     20.421139     20.421139     40.842278
     -3.678679     20.727247     20.727247     41.454495
     -3.668669     22.470084     22.470084     44.940168
     -3.658659     25.844773     25.844773     51.689546
     -3.648649     30.555078     30.555078     61.110156
     -3.638639     35.865261     35.865261     71.730522
     -3.628629     40.809552     40.809552     81.619104
     -3.618619     44.479846     44.479846     88.959692
     -3.608609     46.276500     46.276500     92.552999
     -3.598599     46.030249     46.030249     92.060498
     -3.588589     43.972125     43.972125     87.944249
     -3.578579     40.597760     40.597760     81.195519
     -3.568569     36.500601     36.500601     73.001202
     -3.558559     32.229683     32.229683     64.459366
     -3.548549     28.192097     28.192097     56.384195
     -3.538539     24.601213     24.601213     49.202426
     -3.528529     21.474017     21.474017     42.948035
     -3.518519     18.683616     18.683616     37.367232
     -3.508509     16.057734     16.057734     32.115467
     -3.498498     13.487980     13.487980     26.975961
     -3.488488     11.002200     11.002200     22.004401
     -3.478478      8.768470      8.768470     17.536941
     -3.468468      7.034106      7.034106     14.068213
     -3.458458      6.031505      6.031505     12.063010
     -3.448448      5.889015      5.889015     11.778030
     -3.438438      6.574017      6.574017     13.148033
     -3.428428      7.882039      7.882039     15.764078
     -3.418418      9.477788      9.477788     18.955577
     -3.408408     10.985651     10.985651     21.971301
     -3.398398     12.110687     12.110687     24.221374
     -3.388388     12.750325     12.750325     25.500650
     -3.378378     13.048451     13.048451     26.096901
     -3.368368     13.361367     13.361367     26.722734
     -3.358358     14.144078     14.144078     28.288155
     -3.348348     15.801642     15.801642     31.603284
     -3.338338     18.559634     18.559634     37.119268
     -3.328328     22.386650     22.386650     44.773301
     -3.318318     26.971620     26.971620     53.943239
     -3.308308     31.746272     31.746272     63.492543
     -3.298298     35.954517     35.954517     71.909033
     -3.288288     38.783262     38.783262     77.566525
     -3.278278     39.554113     39.554113     79.108226
     -3.268268     37.930106     37.930106     75.860211
     -3.258258     34.051179     34.051179     68.102358
     -3.248248     28.520306     28.520306     57.040613
     -3.238238     22.228324     22.228324     44.456648
     -3.228228     16.089219     16.089219     32.178437
     -3.218218     10.801070     10.801070     21.602140
     -3.208208      6.723647      6.723647     13.447295
     -3.198198      3.894670      3.894670      7.789339
     -3.188188      2.142013      2.142013      4.284026
     -3.178178      1.223748      1.223748      2.447496
     -3.168168      0.942471      0.942471      1.884943
     -3.158158      1.211347      1.211347      2.422695
     -3.148148      2.072590      2.072590      4.145180
     -3.138138      3.676127      3.676127      7.352255
     -3.128128      6.223637      6.223637     12.447274
     -3.118118      9.883070      9.883070     19.766141
     -3.108108     14.688129     14.688129     29.376257
     -3.098098     20.452189     20.452189     40.904378
     -3.088088     26.734852     26.734852     53.469703
     -3.078078     32.889430     32.889430     65.778861
     -3.068068     38.189651     38.189651     76.379303
     -3.058058     41.996895     41.996895     83.993790
     -3.048048     43.907550     43.907550     87.815100
     -3.038038     43.829007     43.829007     87.658013
     -3.028028     41.968485     41.968485     83.936969
     -3.018018     38.758535     38.758535     77.517069
     -3.008008     34.761461     34.761461     69.522922
     -2.997998     30.584119     30.584119     61.168238
     -2.987988     26.809596     26.809596     53.619192
     -2.977978     23.937144     23.937144     47.874288
     -2.967968     22.327224     22.327224     44.654447
     -2.957958     22.163072     22.163072     44.326144
     -2.947948     23.443179     23.443179     46.886358
     -2.937938     26.003316     26.003316     52.006633
     -2.927928     29.547750     29.547750     59.095501
     -2.917918     33.669477     33.669477     67.338955
     -2.907908     37.863275     37.863275     75.726551
     -2.897898     41.561327     41.561327     83.122653
     -2.887888     44.219988     44.219988     88.439975
     -2.877878     45.450588     45.450588     90.901176
     -2.867868     45.141596     45.141596     90.283193
     -2.857858     43.502014     43.502014     87.004028
     -2.847848     40.985951     40.985951     81.971902
     -2.837838     38.120689     38.120689     76.241377
     -2.827828     35.315995     35.315995     70.631991
     -2.817818     32.745633     32.745633     65.491267
     -2.807808     30.354209     30.354209     60.708417
     -2.797798     27.975505     27.975505     55.951011
     -2.787788     25.490345     25.490345     50.980691
     -2.777778     22.934873     22.934873     45.869745
     -2.767768     20.502766     20.502766     41.005532
     -2.757758     18.448286     18.448286     36.896572
     -2.747748     16.954961     16.954961     33.909923
     -2.737738     16.053231     16.053231     32.106462
     -2.727728     15.637789     15.637789     31.275577
     -2.717718     15.570452     15.570452     31.140904
     -2.707708     15.797299     15.797299     31.594598
     -2.697698     16.397059     16.397059     32.794117
     -2.687688     17.521555     17.521555     35.043110
     -2.677678     19.262024     19.262024     38.524047
     -2.667668     21.529572     21.529572     43.059143
     -2.657658     24.035499     24.035499     48.070998
     -2.647648     26.395619     26.395619     52.791238
     -2.637638     28.301038     28.301038     56.602076
     -2.627628     29.651683     29.651683     59.303366
     -2.617618     30.571996     30.571996     61.143992
     -2.607608     31.305739     31.305739     62.611478
     -2.597598     32.063305     32.063305     64.126609
     -2.587588     32.915281     32.915281     65.830563
     -2.577578     33.779579     33.779579     67.559158
     -2.567568     34.478443     34.478443     68.956887
     -2.557558     34.805012     34.805012     69.610024
     -2.547548     34.560885     34.560885     69.121770
     -2.537538     33.576801     33.576801     67.153602
     -2.527528     31.754426     31.754426     63.508852
     -2.517518     29.142503     29.142503     58.285006
     -2.507508     26.009668     26.009668     52.019337
     -2.497497     22.849263     22.849263     45.698525
     -2.487487     20.277386     20.277386     40.554772
     -2.477477     18.848060     18.848060     37.696120
     -2.467467     18.864245     18.864245     37.728490
     -2.457457     20.274527     20.274527     40.549054
     -2.447447     22.707271     22.707271     45.414542
     -2.437437     25.629376     25.629376     51.258752
     -2.427427     28.558016     28.558016     57.116031
     -2.417417     31.228026     31.228026     62.456051
     -2.407407     33.637140     33.637140     67.274281
     -2.397397     35.948631     35.948631     71.897262
     -2.387387     38.300469     38.300469     76.600938
     -2.377377     40.618740     40.618740     81.237481
     -2.367367     42.536013     42.536013     85.072025
     -2.357357     43.469012     43.469012     86.938024
     -2.347347     42.834081     42.834081     85.668163
     -2.337337     40.308951     40.308951     80.617903
     -2.327327     36.021328     36.021328     72.042655
     -2.317317     30.576004     30.576004     61.152009
     -2.307307     24.907845     24.907845     49.815691
     -2.297297     20.026400     20.026400     40.052800
     -2.287287     16.756501     16.756501     33.513003
     -2.277277     15.563026     15.563026     31.126052
     -2.267267     16.497120     16.497120     32.994239
     -2.257257     19.250469     19.250469     38.500939
     -2.247247     23.276154     23.276154     46.552308
     -2.237237     27.929503     27.929503     55.859007
     -2.227227     32.589439     32.589439     65.178877
     -2.217217     36.733598     36.733598     73.467195
     -2.207207     39.960122     39.960122     79.920245
     -2.197197     41.973734     41.973734     83.947469
     -2.187187     42.572115     42.572115     85.144229
     -2.177177     41.664588     41.664588     83.329176
     -2.167167     39.324272     39.324272     78.648545
     -2.157157     35.834909     35.834909     71.669818
     -2.147147     31.676331     31.676331     63.352663
     -2.137137     27.418801     27.418801     54.837602
     -2.127127     23.554866     23.554866     47.109731
     -2.117117     20.347525     20.347525     40.695050
     -2.107107     17.775695     17.775695     35.551389
     -2.097097     15.606004     15.606004     31.212009
     -2.087087     13.547999     13.547999     27.095998
     -2.077077     11.406589     11.406589     22.813177
     -2.067067      9.157389      9.157389     18.314778
     -2.057057      6.923859      6.923859     13.847719
     -2.047047      4.890596      4.890596      9.781192
     -2.037037      3.211099      3.211099      6.422198
     -2.027027      1.954427      1.954427      3.908853
     -2.017017      1.102130      1.102130      2.204261
     -2.007007      0.579396      0.579396      1.158791
     -1.996997      0.295563      0.295563      0.591127
     -1.986987      0.176363      0.176363      0.352725
     -1.976977      0.182554      0.182554      0.365109
     -1.966967      0.317953      0.317953      0.635905
     -1.956957      0.630868      0.630868      1.261735
     -1.946947      1.209132      1.209132      2.418263
     -1.936937      2.164607      2.164607      4.329214
     -1.926927      3.602945      3.602945      7.205889
     -1.916917      5.580413      5.580413     11.160826
     -1.906907      8.059633      8.059633     16.119265
     -1.896897     10.883543     10.883543     21.767085
     -1.886887     13.784871     13.784871     27.569742
     -1.876877     16.435325     16.435325     32.870650
     -1.866867     18.521434     18.521434     37.042868
     -1.856857     19.822780     19.822780     39.645560
     -1.846847     20.268263     20.268263     40.536527
     -1.836837     19.953545     19.953545     39.907089
     -1.826827     19.111774     19.111774     38.223547
     -1.816817     18.039828     18.039828     36.079656
     -1.806807     16.997433     16.997433     33.994866
     -1.796797     16.114831     16.114831     32.229663
     -1.786787     15.352744     15.352744     30.705488
     -1.776777     14.541815     14.541815     29.083630
     -1.766767     13.489439     13.489439     26.978877
     -1.756757     12.102867     12.102867     24.205734
     -1.746747     10.466404     10.466404     20.932809
     -1.736737      8.835822      8.835822     17.671643
     -1.726727      7.556950      7.556950     15.113900
     -1.716717      6.949177      6.949177     13.898354
     -1.706707      7.201942      7.201942     14.403884
     -1.696697      8.317827      8.317827     16.635654
     -1.686687     10.114132     10.114132     20.228264
     -1.676677     12.275866     12.275866     24.551733
     -1.666667     14.438580     14.438580     28.877160
     -1.656657     16.270672     16.270672     32.541344
     -1.646647     17.527368     17.527368     35.054736
     -1.636637     18.065983     18.065983     36.131967
     -1.626627     17.836189     17.836189     35.672378
