# EIG2DOS: Utility for SIESTA to obtain the electronic density of states
#  E. Artacho, Apr 1999, A. Garcia, Apr 2012
#  Nick R. Papior, Feb 2017
# ------------------------------------------
# Eigenvalues calculated from a non-polarized calculation
# Eigenvalues read from siesta.EIG
# Kpoint weights read from siesta.KP
# Using smearing parameter:   0.0500
# Using 1000 points in the energy range
# Selected bands: 1 to: 2981
# Emin, Emax in file for selected band(s):    -27.0742838    218.3219660
# Nbands, Nspin, Nk   =   2981     1     1
# E_F                 =    -4.2876 eV --> (shifted to ZERO)
# Broadening          =     0.0500 eV
#
#        E            N(up)  (=)   N(down)         Ntot
     -5.000000     40.078505     40.078505     80.157010
     -4.989990     41.487011     41.487011     82.974023
     -4.979980     42.398906     42.398906     84.797812
     -4.969970     42.591775     42.591775     85.183551
     -4.959960     41.922093     41.922093     83.844186
     -4.949950     40.379150     40.379150     80.758300
     -4.939940     38.108060     38.108060     76.216120
     -4.929930     35.411618     35.411618     70.823235
     -4.919920     32.740452     32.740452     65.480904
     -4.909910     30.667627     30.667627     61.335253
     -4.899900     29.827062     29.827062     59.654124
     -4.889890     30.789904     30.789904     61.579809
     -4.879880     33.875375     33.875375     67.750751
     -4.869870     38.944322     38.944322     77.888643
     -4.859860     45.276927     45.276927     90.553853
     -4.849850     51.642825     51.642825    103.285650
     -4.839840     56.601450     56.601450    113.202901
     -4.829830     58.946777     58.946777    117.893554
     -4.819820     58.109702     58.109702    116.219404
     -4.809810     54.329621     54.329621    108.659242
     -4.799800     48.518320     48.518320     97.036640
     -4.789790     41.896897     41.896897     83.793795
     -4.779780     35.589110     35.589110     71.178221
     -4.769770     30.343768     30.343768     60.687536
     -4.759760     26.458610     26.458610     52.917219
     -4.749750     23.866942     23.866942     47.733885
     -4.739740     22.292776     22.292776     44.585553
     -4.729730     21.391440     21.391440     42.782880
     -4.719720     20.837018     20.837018     41.674037
     -4.709710     20.357765     20.357765     40.715529
     -4.699700     19.741450     19.741450     39.482900
     -4.689690     18.837916     18.837916     37.675832
     -4.679680     17.580116     17.580116     35.160233
     -4.669670     16.027975     16.027975     32.055950
     -4.659660     14.416418     14.416418     28.832836
     -4.649650     13.172851     13.172851     26.345702
     -4.639640     12.871601     12.871601     25.743201
     -4.629630     14.113231     14.113231     28.226462
     -4.619620     17.345523     17.345523     34.691047
     -4.609610     22.670924     22.670924     45.341849
     -4.599600     29.706537     29.706537     59.413073
     -4.589590     37.568286     37.568286     75.136572
     -4.579580     45.026649     45.026649     90.053298
     -4.569570     50.820882     50.820882    101.641764
     -4.559560     54.040648     54.040648    108.081297
     -4.549550     54.430999     54.430999    108.861998
     -4.539540     52.488768     52.488768    104.977536
     -4.529530     49.300039     49.300039     98.600079
     -4.519520     46.179616     46.179616     92.359232
     -4.509510     44.254713     44.254713     88.509426
     -4.499499     44.145923     44.145923     88.291845
     -4.489489     45.840737     45.840737     91.681474
     -4.479479     48.767065     48.767065     97.534130
     -4.469469     52.003977     52.003977    104.007954
     -4.459459     54.542110     54.542110    109.084220
     -4.449449     55.522763     55.522763    111.045527
     -4.439439     54.416751     54.416751    108.833503
     -4.429429     51.127120     51.127120    102.254239
     -4.419419     46.007546     46.007546     92.015093
     -4.409409     39.791314     39.791314     79.582628
     -4.399399     33.436787     33.436787     66.873573
     -4.389389     27.916330     27.916330     55.832660
     -4.379379     23.997373     23.997373     47.994746
     -4.369369     22.074626     22.074626     44.149252
     -4.359359     22.103750     22.103750     44.207501
     -4.349349     23.658699     23.658699     47.317398
     -4.339339     26.094670     26.094670     52.189340
     -4.329329     28.760437     28.760437     57.520875
     -4.319319     31.185337     31.185337     62.370674
     -4.309309     33.178821     33.178821     66.357643
     -4.299299     34.819310     34.819310     69.638620
     -4.289289     36.352834     36.352834     72.705669
     -4.279279     38.047692     38.047692     76.095384
     -4.269269     40.052355     40.052355     80.104711
     -4.259259     42.293244     42.293244     84.586488
     -4.249249     44.442311     44.442311     88.884621
     -4.239239     45.979640     45.979640     91.959279
     -4.229229     46.355135     46.355135     92.710271
     -4.219219     45.206635     45.206635     90.413270
     -4.209209     42.542290     42.542290     85.084580
     -4.199199     38.786910     38.786910     77.573820
     -4.189189     34.649743     34.649743     69.299486
     -4.179179     30.868196     30.868196     61.736393
     -4.169169     27.954379     27.954379     55.908759
     -4.159159     26.068455     26.068455     52.136909
     -4.149149     25.067881     25.067881     50.135761
     -4.139139     24.685767     24.685767     49.371534
     -4.129129     24.730898     24.730898     49.461796
     -4.119119     25.201531     25.201531     50.403063
     -4.109109     26.254758     26.254758     52.509517
     -4.099099     28.046814     28.046814     56.093628
     -4.089089     30.528610     30.528610     61.057220
     -4.079079     33.315889     33.315889     66.631777
     -4.069069     35.729854     35.729854     71.459709
     -4.059059     37.020071     37.020071     74.040143
     -4.049049     36.674875     36.674875     73.349750
     -4.039039     34.661264     34.661264     69.322528
     -4.029029     31.464998     31.464998     62.929996
     -4.019019     27.911480     27.911480     55.822960
     -4.009009     24.869120     24.869120     49.738239
     -3.998999     22.989881     22.989881     45.979761
     -3.988989     22.596955     22.596955     45.193910
     -3.978979     23.726554     23.726554     47.453108
     -3.968969     26.244913     26.244913     52.489826
     -3.958959     29.946170     29.946170     59.892340
     -3.948949     34.587757     34.587757     69.175514
     -3.938939     39.886402     39.886402     79.772804
     -3.928929     45.525894     45.525894     91.051789
     -3.918919     51.201784     51.201784    102.403568
     -3.908909     56.677957     56.677957    113.355914
     -3.898899     61.802171     61.802171    123.604341
     -3.888889     66.447420     66.447420    132.894840
     -3.878879     70.400168     70.400168    140.800337
     -3.868869     73.266176     73.266176    146.532352
     -3.858859     74.473807     74.473807    148.947614
     -3.848849     73.412441     73.412441    146.824882
     -3.838839     69.670033     69.670033    139.340066
     -3.828829     63.269273     63.269273    126.538547
     -3.818819     54.785291     54.785291    109.570583
     -3.808809     45.273425     45.273425     90.546851
     -3.798799     36.021033     36.021033     72.042066
     -3.788789     28.215702     28.215702     56.431404
     -3.778779     22.652307     22.652307     45.304613
     -3.768769     19.573659     19.573659     39.147318
     -3.758759     18.678172     18.678172     37.356344
     -3.748749     19.268972     19.268972     38.537945
     -3.738739     20.485201     20.485201     40.970401
     -3.728729     21.549149     21.549149     43.098299
     -3.718719     21.971270     21.971270     43.942540
     -3.708709     21.668709     21.668709     43.337417
     -3.698699     20.969396     20.969396     41.938793
     -3.688689     20.495552     20.495552     40.991105
     -3.678679     20.949795     20.949795     41.899590
     -3.668669     22.860067     22.860067     45.720133
     -3.658659     26.364365     26.364365     52.728729
     -3.648649     31.116391     31.116391     62.232783
     -3.638639     36.357445     36.357445     72.714890
     -3.628629     41.135017     41.135017     82.270033
     -3.618619     44.583721     44.583721     89.167442
     -3.608609     46.157130     46.157130     92.314261
     -3.598599     45.729057     45.729057     91.458114
     -3.588589     43.551649     43.551649     87.103297
     -3.578579     40.120380     40.120380     80.240760
     -3.568569     36.016040     36.016040     72.032079
     -3.558559     31.771610     31.771610     63.543219
     -3.548549     27.779378     27.779378     55.558756
     -3.538539     24.239928     24.239928     48.479856
     -3.528529     21.159840     21.159840     42.319681
     -3.518519     18.406158     18.406158     36.812316
     -3.508509     15.807262     15.807262     31.614524
     -3.498498     13.262303     13.262303     26.524607
     -3.488488     10.810330     10.810330     21.620659
     -3.478478      8.629044      8.629044     17.258089
     -3.468468      6.969061      6.969061     13.938122
     -3.458458      6.057259      6.057259     12.114518
     -3.448448      6.007873      6.007873     12.015746
     -3.438438      6.768351      6.768351     13.536701
     -3.428428      8.113713      8.113713     16.227426
     -3.418418      9.694742      9.694742     19.389485
     -3.408408     11.135558     11.135558     22.271116
     -3.398398     12.158368     12.158368     24.316736
     -3.388388     12.692973     12.692973     25.385947
     -3.378378     12.922825     12.922825     25.845649
     -3.368368     13.240040     13.240040     26.480080
     -3.358358     14.121489     14.121489     28.242978
     -3.348348     15.972636     15.972636     31.945272
     -3.338338     18.993358     18.993358     37.986715
     -3.328328     23.099487     23.099487     46.198975
     -3.318318     27.906138     27.906138     55.812276
     -3.308308     32.766942     32.766942     65.533884
     -3.298298     36.869980     36.869980     73.739960
     -3.288288     39.395408     39.395408     78.790815
     -3.278278     39.719298     39.719298     79.438596
     -3.268268     37.607165     37.607165     75.214330
     -3.258258     33.313640     33.313640     66.627281
     -3.248248     27.526952     27.526952     55.053903
     -3.238238     21.166890     21.166890     42.333780
     -3.228228     15.119561     15.119561     30.239123
     -3.218218     10.020245     10.020245     20.040489
     -3.208208      6.160714      6.160714     12.321429
     -3.198198      3.528192      3.528192      7.056385
     -3.188188      1.926412      1.926412      3.852825
     -3.178178      1.113106      1.113106      2.226211
     -3.168168      0.907603      0.907603      1.815206
     -3.158158      1.252454      1.252454      2.504908
     -3.148148      2.232017      2.232017      4.464034
     -3.138138      4.052717      4.052717      8.105433
     -3.128128      6.982872      6.982872     13.965744
     -3.118118     11.248919     11.248919     22.497838
     -3.108108     16.899348     16.899348     33.798696
     -3.098098     23.675243     23.675243     47.350486
     -3.088088     30.950358     30.950358     61.900716
     -3.078078     37.800385     37.800385     75.600770
     -3.068068     43.216189     43.216189     86.432377
     -3.058058     46.401720     46.401720     92.803441
     -3.048048     47.035096     47.035096     94.070193
     -3.038038     45.367578     45.367578     90.735155
     -3.028028     42.105637     42.105637     84.211274
     -3.018018     38.130938     38.130938     76.261877
     -3.008008     34.195214     34.195214     68.390428
     -2.997998     30.730904     30.730904     61.461809
     -2.987988     27.845890     27.845890     55.691780
     -2.977978     25.470916     25.470916     50.941832
     -2.967968     23.559074     23.559074     47.118148
     -2.957958     22.226656     22.226656     44.453313
     -2.947948     21.766176     21.766176     43.532351
     -2.937938     22.527751     22.527751     45.055503
     -2.927928     24.725962     24.725962     49.451925
     -2.917918     28.264231     28.264231     56.528462
     -2.907908     32.665277     32.665277     65.330554
     -2.897898     37.153592     37.153592     74.307184
     -2.887888     40.869557     40.869557     81.739114
     -2.877878     43.133337     43.133337     86.266674
     -2.867868     43.649814     43.649814     87.299628
     -2.857858     42.568766     42.568766     85.137533
     -2.847848     40.378282     40.378282     80.756565
     -2.837838     37.684085     37.684085     75.368170
     -2.827828     34.976765     34.976765     69.953530
     -2.817818     32.488824     32.488824     64.977648
     -2.807808     30.194458     30.194458     60.388917
     -2.797798     27.932384     27.932384     55.864768
     -2.787788     25.572913     25.572913     51.145826
     -2.777778     23.135130     23.135130     46.270261
     -2.767768     20.795447     20.795447     41.590893
     -2.757758     18.794748     18.794748     37.589496
     -2.747748     17.310367     17.310367     34.620733
     -2.737738     16.376780     16.376780     32.753560
     -2.727728     15.904393     15.904393     31.808786
     -2.717718     15.779671     15.779671     31.559342
     -2.707708     15.974077     15.974077     31.948155
     -2.697698     16.581143     16.581143     33.162286
     -2.687688     17.748274     17.748274     35.496548
     -2.677678     19.543264     19.543264     39.086529
     -2.667668     21.845697     21.845697     43.691395
     -2.657658     24.344188     24.344188     48.688377
     -2.647648     26.654073     26.654073     53.308146
     -2.637638     28.489459     28.489459     56.978919
     -2.627628     29.784364     29.784364     59.568727
     -2.617618     30.689472     30.689472     61.378945
     -2.607608     31.452911     31.452911     62.905823
     -2.597598     32.266378     32.266378     64.532757
     -2.587588     33.169551     33.169551     66.339101
     -2.577578     34.051755     34.051755     68.103510
     -2.567568     34.718428     34.718428     69.436856
     -2.557558     34.959272     34.959272     69.918543
     -2.547548     34.583544     34.583544     69.167088
     -2.537538     33.439750     33.439750     66.879500
     -2.527528     31.458311     31.458311     62.916621
     -2.517518     28.725878     28.725878     57.451756
     -2.507508     25.549092     25.549092     51.098184
     -2.497497     22.444286     22.444286     44.888572
     -2.487487     20.021870     20.021870     40.043739
     -2.477477     18.798070     18.798070     37.596141
     -2.467467     19.016673     19.016673     38.033347
     -2.457457     20.566650     20.566650     41.133299
     -2.447447     23.037906     23.037906     46.075812
     -2.437437     25.892402     25.892402     51.784805
     -2.427427     28.674160     28.674160     57.348319
     -2.417417     31.163293     31.163293     62.326585
     -2.407407     33.404022     33.404022     66.808044
     -2.397397     35.594060     35.594060     71.188120
     -2.387387     37.887904     37.887904     75.775807
     -2.377377     40.210269     40.210269     80.420539
     -2.367367     42.177456     42.177456     84.354913
     -2.357357     43.180014     43.180014     86.360027
     -2.347347     42.605880     42.605880     85.211759
     -2.337337     40.111752     40.111752     80.223504
     -2.327327     35.819251     35.819251     71.638501
     -2.317317     30.342981     30.342981     60.685963
     -2.307307     24.636897     24.636897     49.273794
     -2.297297     19.728940     19.728940     39.457879
     -2.287287     16.454496     16.454496     32.908993
     -2.277277     15.280226     15.280226     30.560452
     -2.267267     16.254078     16.254078     32.508156
     -2.257257     19.063850     19.063850     38.127700
     -2.247247     23.159549     23.159549     46.319098
     -2.237237     27.892802     27.892802     55.785604
     -2.227227     32.635964     32.635964     65.271928
     -2.217217     36.856649     36.856649     73.713298
     -2.207207     40.141519     40.141519     80.283039
     -2.197197     42.186174     42.186174     84.372348
     -2.187187     42.785308     42.785308     85.570616
     -2.177177     41.853204     41.853204     83.706408
     -2.167167     39.474509     39.474509     78.949019
     -2.157157     35.946644     35.946644     71.893289
     -2.147147     31.759503     31.759503     63.519005
     -2.137137     27.485462     27.485462     54.970924
     -2.127127     23.610845     23.610845     47.221690
     -2.117117     20.388180     20.388180     40.776361
     -2.107107     17.788172     17.788172     35.576344
     -2.097097     15.576701     15.576701     31.153402
     -2.087087     13.470915     13.470915     26.941830
     -2.077077     11.287878     11.287878     22.575756
     -2.067067      9.013908      9.013908     18.027817
     -2.057057      6.777044      6.777044     13.554088
     -2.047047      4.759275      4.759275      9.518550
     -2.037037      3.106689      3.106689      6.213378
     -2.027027      1.879974      1.879974      3.759948
     -2.017017      1.054481      1.054481      2.108961
     -2.007007      0.552715      0.552715      1.105430
     -1.996997      0.284650      0.284650      0.569300
     -1.986987      0.179086      0.179086      0.358173
     -1.976977      0.201492      0.201492      0.402984
     -1.966967      0.361357      0.361357      0.722713
     -1.956957      0.712626      0.712626      1.425253
     -1.946947      1.346724      1.346724      2.693448
     -1.936937      2.374014      2.374014      4.748029
     -1.926927      3.890595      3.890595      7.781190
     -1.916917      5.934447      5.934447     11.868894
     -1.906907      8.444957      8.444957     16.889915
     -1.896897     11.245349     11.245349     22.490698
     -1.886887     14.062313     14.062313     28.124626
     -1.876877     16.581744     16.581744     33.163487
     -1.866867     18.522943     18.522943     37.045886
     -1.856857     19.706450     19.706450     39.412899
     -1.846847     20.095374     20.095374     40.190748
     -1.836837     19.799994     19.799994     39.599988
     -1.826827     19.043122     19.043122     38.086244
     -1.816817     18.090512     18.090512     36.181024
     -1.806807     17.162646     17.162646     34.325292
     -1.796797     16.360481     16.360481     32.720962
     -1.786787     15.644043     15.644043     31.288086
     -1.776777     14.884185     14.884185     29.768370
     -1.766767     13.967487     13.967487     27.934974
     -1.756757     12.897303     12.897303     25.794606
     -1.746747     11.829092     11.829092     23.658183
     -1.736737     11.013326     11.013326     22.026651
     -1.726727     10.673650     10.673650     21.347300
     -1.716717     10.887440     10.887440     21.774880
     -1.706707     11.536530     11.536530     23.073059
     -1.696697     12.357622     12.357622     24.715244
     -1.686687     13.066395     13.066395     26.132790
     -1.676677     13.487291     13.487291     26.974582
     -1.666667     13.616649     13.616649     27.233299
     -1.656657     13.584720     13.584720     27.169439
     -1.646647     13.541946     13.541946     27.083893
     -1.636637     13.541008     13.541008     27.082016
     -1.626627     13.488916     13.488916     26.977831
