# EIG2DOS: Utility for SIESTA to obtain the electronic density of states
#  E. Artacho, Apr 1999, A. Garcia, Apr 2012
#  Nick R. Papior, Feb 2017
# ------------------------------------------
# Eigenvalues calculated from a non-polarized calculation
# Eigenvalues read from siesta.EIG
# Kpoint weights read from siesta.KP
# Using smearing parameter:   0.0500
# Using 1000 points in the energy range
# Selected bands: 1 to: 2981
# Emin, Emax in file for selected band(s):    -27.3304145    218.3839070
# Nbands, Nspin, Nk   =   2981     1     1
# E_F                 =    -4.2153 eV --> (shifted to ZERO)
# Broadening          =     0.0500 eV
#
#        E            N(up)  (=)   N(down)         Ntot
     -5.000000     31.134348     31.134348     62.268697
     -4.989990     35.891503     35.891503     71.783006
     -4.979980     40.479988     40.479988     80.959975
     -4.969970     44.154632     44.154632     88.309264
     -4.959960     46.235321     46.235321     92.470642
     -4.949950     46.330596     46.330596     92.661193
     -4.939940     44.477541     44.477541     88.955082
     -4.929930     41.150906     41.150906     82.301813
     -4.919920     37.155665     37.155665     74.311331
     -4.909910     33.456195     33.456195     66.912389
     -4.899900     30.992222     30.992222     61.984444
     -4.889890     30.502599     30.502599     61.005197
     -4.879880     32.360038     32.360038     64.720076
     -4.869870     36.435978     36.435978     72.871957
     -4.859860     42.048959     42.048959     84.097918
     -4.849850     48.060253     48.060253     96.120506
     -4.839840     53.137240     53.137240    106.274479
     -4.829830     56.121892     56.121892    112.243785
     -4.819820     56.370932     56.370932    112.741864
     -4.809810     53.928265     53.928265    107.856529
     -4.799800     49.461700     49.461700     98.923401
     -4.789790     44.005125     44.005125     88.010249
     -4.779780     38.629254     38.629254     77.258508
     -4.769770     34.173482     34.173482     68.346964
     -4.759760     31.112566     31.112566     62.225132
     -4.749750     29.551859     29.551859     59.103717
     -4.739740     29.295242     29.295242     58.590484
     -4.729730     29.931021     29.931021     59.862042
     -4.719720     30.914166     30.914166     61.828332
     -4.709710     31.653573     31.653573     63.307146
     -4.699700     31.617956     31.617956     63.235913
     -4.689690     30.455566     30.455566     60.911132
     -4.679680     28.099408     28.099408     56.198816
     -4.669670     24.820051     24.820051     49.640103
     -4.659660     21.199839     21.199839     42.399679
     -4.649650     18.028211     18.028211     36.056423
     -4.639640     16.141906     16.141906     32.283812
     -4.629630     16.243890     16.243890     32.487780
     -4.619620     18.732319     18.732319     37.464638
     -4.609610     23.568249     23.568249     47.136497
     -4.599600     30.216504     30.216504     60.433007
     -4.589590     37.699528     37.699528     75.399057
     -4.579580     44.788505     44.788505     89.577010
     -4.569570     50.308605     50.308605    100.617210
     -4.559560     53.472752     53.472752    106.945504
     -4.549550     54.119595     54.119595    108.239190
     -4.539540     52.749786     52.749786    105.499573
     -4.529530     50.330843     50.330843    100.661685
     -4.519520     47.939608     47.939608     95.879217
     -4.509510     46.382594     46.382594     92.765188
     -4.499499     45.942700     45.942700     91.885400
     -4.489489     46.342920     46.342920     92.685840
     -4.479479     46.922415     46.922415     93.844830
     -4.469469     46.933142     46.933142     93.866284
     -4.459459     45.825489     45.825489     91.650978
     -4.449449     43.413889     43.413889     86.827777
     -4.439439     39.881975     39.881975     79.763949
     -4.429429     35.663875     35.663875     71.327751
     -4.419419     31.284385     31.284385     62.568769
     -4.409409     27.235741     27.235741     54.471481
     -4.399399     23.922266     23.922266     47.844532
     -4.389389     21.650502     21.650502     43.301003
     -4.379379     20.618844     20.618844     41.237688
     -4.369369     20.880912     20.880912     41.761823
     -4.359359     22.300866     22.300866     44.601732
     -4.349349     24.548211     24.548211     49.096423
     -4.339339     27.168264     27.168264     54.336528
     -4.329329     29.719370     29.719370     59.438740
     -4.319319     31.921920     31.921920     63.843840
     -4.309309     33.748931     33.748931     67.497862
     -4.299299     35.411401     35.411401     70.822803
     -4.289289     37.237091     37.237091     74.474183
     -4.279279     39.485189     39.485189     78.970378
     -4.269269     42.166767     42.166767     84.333533
     -4.259259     44.947291     44.947291     89.894582
     -4.249249     47.188999     47.188999     94.377998
     -4.239239     48.143703     48.143703     96.287406
     -4.229229     47.238342     47.238342     94.476683
     -4.219219     44.336295     44.336295     88.672589
     -4.209209     39.847987     39.847987     79.695973
     -4.199199     34.624629     34.624629     69.249259
     -4.189189     29.673998     29.673998     59.347996
     -4.179179     25.826720     25.826720     51.653439
     -4.169169     23.501786     23.501786     47.003572
     -4.159159     22.661753     22.661753     45.323506
     -4.149149     22.950380     22.950380     45.900760
     -4.139139     23.924328     23.924328     47.848656
     -4.129129     25.261765     25.261765     50.523530
     -4.119119     26.856243     26.856243     53.712486
     -4.109109     28.763489     28.763489     57.526979
     -4.099099     31.037157     31.037157     62.074313
     -4.089089     33.544510     33.544510     67.089021
     -4.079079     35.871890     35.871890     71.743779
     -4.069069     37.394953     37.394953     74.789907
     -4.059059     37.505223     37.505223     75.010447
     -4.049049     35.891819     35.891819     71.783638
     -4.039039     32.733284     32.733284     65.466568
     -4.029029     28.693853     28.693853     57.387707
     -4.019019     24.721657     24.721657     49.443314
     -4.009009     21.748859     21.748859     43.497719
     -3.998999     20.432901     20.432901     40.865801
     -3.988989     21.037037     21.037037     42.074074
     -3.978979     23.462974     23.462974     46.925949
     -3.968969     27.375985     27.375985     54.751969
     -3.958959     32.342069     32.342069     64.684138
     -3.948949     37.926008     37.926008     75.852016
     -3.938939     43.745141     43.745141     87.490283
     -3.928929     49.499194     49.499194     98.998388
     -3.918919     54.988041     54.988041    109.976081
     -3.908909     60.105038     60.105038    120.210076
     -3.898899     64.785017     64.785017    129.570033
     -3.888889     68.908816     68.908816    137.817632
     -3.878879     72.205658     72.205658    144.411315
     -3.868869     74.217685     74.217685    148.435371
     -3.858859     74.374097     74.374097    148.748194
     -3.848849     72.169972     72.169972    144.339944
     -3.838839     67.386259     67.386259    134.772518
     -3.828829     60.256298     60.256298    120.512596
     -3.818819     51.498851     51.498851    102.997702
     -3.808809     42.190960     42.190960     84.381921
     -3.798799     33.519316     33.519316     67.038632
     -3.788789     26.494884     26.494884     52.989768
     -3.778779     21.723649     21.723649     43.447298
     -3.768769     19.298425     19.298425     38.596851
     -3.758759     18.831217     18.831217     37.662434
     -3.748749     19.603521     19.603521     39.207042
     -3.738739     20.785835     20.785835     41.571671
     -3.728729     21.668623     21.668623     43.337246
     -3.718719     21.850221     21.850221     43.700441
     -3.708709     21.337973     21.337973     42.675946
     -3.698699     20.535410     20.535410     41.070819
     -3.688689     20.111319     20.111319     40.222637
     -3.678679     20.776318     20.776318     41.552637
     -3.668669     23.025027     23.025027     46.050054
     -3.658659     26.926075     26.926075     53.852149
     -3.648649     32.041506     32.041506     64.083012
     -3.638639     37.519677     37.519677     75.039354
     -3.628629     42.338003     42.338003     84.676007
     -3.618619     45.604318     45.604318     91.208636
     -3.608609     46.798114     46.798114     93.596229
     -3.598599     45.866046     45.866046     91.732092
     -3.588589     43.160295     43.160295     86.320589
     -3.578579     39.276203     39.276203     78.552405
     -3.568569     34.868137     34.868137     69.736273
     -3.558559     30.499737     30.499737     60.999475
     -3.548549     26.548730     26.548730     53.097460
     -3.538539     23.167641     23.167641     46.335283
     -3.528529     20.301784     20.301784     40.603568
     -3.518519     17.764260     17.764260     35.528521
     -3.508509     15.350460     15.350460     30.700919
     -3.498498     12.951614     12.951614     25.903228
     -3.488488     10.621345     10.621345     21.242690
     -3.478478      8.570809      8.570809     17.141619
     -3.468468      7.102699      7.102699     14.205399
     -3.458458      6.517175      6.517175     13.034351
     -3.448448      7.022017      7.022017     14.044034
     -3.438438      8.664611      8.664611     17.329222
     -3.428428     11.293352     11.293352     22.586703
     -3.418418     14.558224     14.558224     29.116448
     -3.408408     17.964921     17.964921     35.929842
     -3.398398     20.987784     20.987784     41.975568
     -3.388388     23.220095     23.220095     46.440190
     -3.378378     24.510699     24.510699     49.021399
     -3.368368     25.027160     25.027160     50.054321
     -3.358358     25.209717     25.209717     50.419434
     -3.348348     25.625985     25.625985     51.251971
     -3.338338     26.776531     26.776531     53.553062
     -3.328328     28.914990     28.914990     57.829980
     -3.318318     31.934327     31.934327     63.868654
     -3.308308     35.350491     35.350491     70.700982
     -3.298298     38.397973     38.397973     76.795946
     -3.288288     40.231549     40.231549     80.463098
     -3.278278     40.192015     40.192015     80.384031
     -3.268268     38.048781     38.048781     76.097561
     -3.258258     34.112867     34.112867     68.225735
     -3.248248     29.152102     29.152102     58.304204
     -3.238238     24.128995     24.128995     48.257989
     -3.228228     19.871022     19.871022     39.742044
     -3.218218     16.816476     16.816476     33.632952
     -3.208208     14.937267     14.937267     29.874534
     -3.198198     13.851661     13.851661     27.703322
     -3.188188     13.056356     13.056356     26.112713
     -3.178178     12.168213     12.168213     24.336426
     -3.168168     11.080995     11.080995     22.161991
     -3.158158      9.993640      9.993640     19.987279
     -3.148148      9.322917      9.322917     18.645834
     -3.138138      9.548782      9.548782     19.097564
     -3.128128     11.046768     11.046768     22.093536
     -3.118118     13.949414     13.949414     27.898828
     -3.108108     18.065473     18.065473     36.130946
     -3.098098     22.879132     22.879132     45.758264
     -3.088088     27.643162     27.643162     55.286324
     -3.078078     31.556580     31.556580     63.113161
     -3.068068     33.979526     33.979526     67.959051
     -3.058058     34.606964     34.606964     69.213929
     -3.048048     33.526689     33.526689     67.053378
     -3.038038     31.135826     31.135826     62.271653
     -3.028028     27.960961     27.960961     55.921922
     -3.018018     24.475983     24.475983     48.951967
     -3.008008     21.005537     21.005537     42.011073
     -2.997998     17.744379     17.744379     35.488758
     -2.987988     14.853392     14.853392     29.706784
     -2.977978     12.555914     12.555914     25.111827
     -2.967968     11.170620     11.170620     22.341239
     -2.957958     11.061111     11.061111     22.122223
     -2.947948     12.525237     12.525237     25.050474
     -2.937938     15.668780     15.668780     31.337560
     -2.927928     20.309541     20.309541     40.619083
     -2.917918     25.949112     25.949112     51.898223
     -2.907908     31.835022     31.835022     63.670044
     -2.897898     37.112136     37.112136     74.224272
     -2.887888     41.028831     41.028831     82.057662
     -2.877878     43.132317     43.132317     86.264635
     -2.867868     43.377928     43.377928     86.755857
     -2.857858     42.102781     42.102781     84.205563
     -2.847848     39.869294     39.869294     79.738589
     -2.837838     37.243596     37.243596     74.487192
     -2.827828     34.605921     34.605921     69.211842
     -2.817818     32.074591     32.074591     64.149182
     -2.807808     29.567492     29.567492     59.134985
     -2.797798     26.954730     26.954730     53.909459
     -2.787788     24.211759     24.211759     48.423517
     -2.777778     21.488277     21.488277     42.976554
     -2.767768     19.060755     19.060755     38.121510
     -2.757758     17.205164     17.205164     34.410327
     -2.747748     16.071397     16.071397     32.142794
     -2.737738     15.635879     15.635879     31.271758
     -2.727728     15.756793     15.756793     31.513585
     -2.717718     16.289026     16.289026     32.578052
     -2.707708     17.176324     17.176324     34.352648
     -2.697698     18.453987     18.453987     36.907974
     -2.687688     20.159079     20.159079     40.318159
     -2.677678     22.214735     22.214735     44.429470
     -2.667668     24.380744     24.380744     48.761488
     -2.657658     26.321871     26.321871     52.643742
     -2.647648     27.763072     27.763072     55.526143
     -2.637638     28.634895     28.634895     57.269790
     -2.627628     29.112355     29.112355     58.224710
     -2.617618     29.518714     29.518714     59.037428
     -2.607608     30.153128     30.153128     60.306256
     -2.597598     31.144486     31.144486     62.288972
     -2.587588     32.404856     32.404856     64.809712
     -2.577578     33.682923     33.682923     67.365847
     -2.567568     34.660161     34.660161     69.320322
     -2.557558     35.030477     35.030477     70.060954
     -2.547548     34.547284     34.547284     69.094568
     -2.537538     33.063057     33.063057     66.126114
     -2.527528     30.586588     30.586588     61.173176
     -2.517518     27.345794     27.345794     54.691588
     -2.507508     23.808277     23.808277     47.616555
     -2.497497     20.614484     20.614484     41.228968
     -2.487487     18.421543     18.421543     36.843086
     -2.477477     17.709211     17.709211     35.418421
     -2.467467     18.627463     18.627463     37.254925
     -2.457457     20.952828     20.952828     41.905656
     -2.447447     24.176128     24.176128     48.352257
     -2.437437     27.688999     27.688999     55.377999
     -2.427427     30.993084     30.993084     61.986168
     -2.417417     33.842600     33.842600     67.685199
     -2.407407     36.257031     36.257031     72.514062
     -2.397397     38.398862     38.398862     76.797723
     -2.387387     40.377068     40.377068     80.754137
     -2.377377     42.078477     42.078477     84.156953
     -2.367367     43.122249     43.122249     86.244497
     -2.357357     42.976067     42.976067     85.952133
     -2.347347     41.190440     41.190440     82.380879
     -2.337337     37.642035     37.642035     75.284071
     -2.327327     32.666331     32.666331     65.332661
     -2.317317     27.013512     27.013512     54.027023
     -2.307307     21.649330     21.649330     43.298660
     -2.297297     17.492437     17.492437     34.984874
     -2.287287     15.193995     15.193995     30.387991
     -2.277277     15.025825     15.025825     30.051650
     -2.267267     16.884118     16.884118     33.768235
     -2.257257     20.373191     20.373191     40.746383
     -2.247247     24.921900     24.921900     49.843799
     -2.237237     29.895406     29.895406     59.790812
     -2.227227     34.681513     34.681513     69.363026
     -2.217217     38.745161     38.745161     77.490322
     -2.207207     41.656654     41.656654     83.313308
     -2.197197     43.108665     43.108665     86.217329
     -2.187187     42.939600     42.939600     85.879200
     -2.177177     41.170168     41.170168     82.340336
     -2.167167     38.037437     38.037437     76.074873
     -2.157157     33.990911     33.990911     67.981821
     -2.147147     29.618825     29.618825     59.237650
     -2.137137     25.507830     25.507830     51.015660
     -2.127127     22.086883     22.086883     44.173766
     -2.117117     19.530078     19.530078     39.060157
     -2.107107     17.768223     17.768223     35.536446
     -2.097097     16.596197     16.596197     33.192393
     -2.087087     15.805642     15.805642     31.611285
     -2.077077     15.262746     15.262746     30.525493
     -2.067067     14.896306     14.896306     29.792611
     -2.057057     14.627844     14.627844     29.255687
     -2.047047     14.313976     14.313976     28.627952
     -2.037037     13.755377     13.755377     27.510754
     -2.027027     12.772146     12.772146     25.544292
     -2.017017     11.295083     11.295083     22.590167
     -2.007007      9.412266      9.412266     18.824531
     -1.996997      7.343112      7.343112     14.686223
     -1.986987      5.359678      5.359678     10.719355
     -1.976977      3.702956      3.702956      7.405913
     -1.966967      2.535783      2.535783      5.071566
     -1.956957      1.944298      1.944298      3.888596
     -1.946947      1.969799      1.969799      3.939597
     -1.936937      2.639497      2.639497      5.278993
     -1.926927      3.971574      3.971574      7.943148
     -1.916917      5.949414      5.949414     11.898828
     -1.906907      8.480389      8.480389     16.960778
     -1.896897     11.365956     11.365956     22.731911
     -1.886887     14.306601     14.306601     28.613201
     -1.876877     16.949232     16.949232     33.898465
     -1.866867     18.964796     18.964796     37.929592
     -1.856857     20.130694     20.130694     40.261387
     -1.846847     20.390687     20.390687     40.781374
     -1.836837     19.871471     19.871471     39.742942
     -1.826827     18.845521     18.845521     37.691041
     -1.816817     17.643989     17.643989     35.287978
     -1.806807     16.542908     16.542908     33.085817
     -1.796797     15.665082     15.665082     31.330164
     -1.786787     14.943968     14.943968     29.887935
     -1.776777     14.172771     14.172771     28.345542
     -1.766767     13.118790     13.118790     26.237580
     -1.756757     11.645984     11.645984     23.291967
     -1.746747      9.784476      9.784476     19.568951
     -1.736737      7.718426      7.718426     15.436852
     -1.726727      5.710916      5.710916     11.421831
     -1.716717      4.014490      4.014490      8.028980
     -1.706707      2.812394      2.812394      5.624788
     -1.696697      2.206346      2.206346      4.412692
     -1.686687      2.234896      2.234896      4.469791
     -1.676677      2.891695      2.891695      5.783390
     -1.666667      4.121272      4.121272      8.242544
     -1.656657      5.793139      5.793139     11.586277
     -1.646647      7.678261      7.678261     15.356523
     -1.636637      9.460270      9.460270     18.920539
     -1.626627     10.800050     10.800050     21.600100
