# EIG2DOS: Utility for SIESTA to obtain the electronic density of states
#  E. Artacho, Apr 1999, A. Garcia, Apr 2012
#  Nick R. Papior, Feb 2017
# ------------------------------------------
# Eigenvalues calculated from a non-polarized calculation
# Eigenvalues read from siesta.EIG
# Kpoint weights read from siesta.KP
# Using smearing parameter:   0.0500
# Using 1000 points in the energy range
# Selected bands: 1 to: 2981
# Emin, Emax in file for selected band(s):    -27.1803416    218.3665180
# Nbands, Nspin, Nk   =   2981     1     1
# E_F                 =    -4.2344 eV --> (shifted to ZERO)
# Broadening          =     0.0500 eV
#
#        E            N(up)  (=)   N(down)         Ntot
     -5.000000     36.262258     36.262258     72.524516
     -4.989990     39.993683     39.993683     79.987366
     -4.979980     42.783670     42.783670     85.567340
     -4.969970     44.205329     44.205329     88.410657
     -4.959960     44.049539     44.049539     88.099079
     -4.949950     42.392765     42.392765     84.785530
     -4.939940     39.587749     39.587749     79.175498
     -4.929930     36.198510     36.198510     72.397020
     -4.919920     32.915761     32.915761     65.831521
     -4.909910     30.473203     30.473203     60.946405
     -4.899900     29.554944     29.554944     59.109888
     -4.889890     30.669098     30.669098     61.338196
     -4.879880     33.984522     33.984522     67.969045
     -4.869870     39.179496     39.179496     78.358991
     -4.859860     45.394066     45.394066     90.788132
     -4.849850     51.366534     51.366534    102.733068
     -4.839840     55.756227     55.756227    111.512453
     -4.829830     57.548135     57.548135    115.096270
     -4.819820     56.369790     56.369790    112.739580
     -4.809810     52.577640     52.577640    105.155280
     -4.799800     47.080227     47.080227     94.160454
     -4.789790     40.992727     40.992727     81.985455
     -4.779780     35.285229     35.285229     70.570458
     -4.769770     30.562113     30.562113     61.124226
     -4.759760     27.021213     27.021213     54.042425
     -4.749750     24.551659     24.551659     49.103317
     -4.739740     22.886095     22.886095     45.772190
     -4.729730     21.732135     21.732135     43.464269
     -4.719720     20.845199     20.845199     41.690398
     -4.709710     20.043730     20.043730     40.087459
     -4.699700     19.194797     19.194797     38.389594
     -4.689690     18.208254     18.208254     36.416508
     -4.679680     17.067278     17.067278     34.134556
     -4.669670     15.893928     15.893928     31.787856
     -4.659660     15.013826     15.013826     30.027653
     -4.649650     14.965274     14.965274     29.930548
     -4.639640     16.409169     16.409169     32.818339
     -4.629630     19.934733     19.934733     39.869465
     -4.619620     25.807108     25.807108     51.614216
     -4.609610     33.747072     33.747072     67.494144
     -4.599600     42.849828     42.849828     85.699655
     -4.589590     51.720714     51.720714    103.441428
     -4.579580     58.826392     58.826392    117.652785
     -4.569570     62.956789     62.956789    125.913579
     -4.559560     63.620422     63.620422    127.240845
     -4.549550     61.204388     61.204388    122.408775
     -4.539540     56.826658     56.826658    113.653317
     -4.529530     51.943013     51.943013    103.886026
     -4.519520     47.870985     47.870985     95.741971
     -4.509510     45.411288     45.411288     90.822577
     -4.499499     44.686422     44.686422     89.372844
     -4.489489     45.217977     45.217977     90.435954
     -4.479479     46.176388     46.176388     92.352775
     -4.469469     46.690548     46.690548     93.381096
     -4.459459     46.107427     46.107427     92.214854
     -4.449449     44.132656     44.132656     88.265313
     -4.439439     40.840267     40.840267     81.680533
     -4.429429     36.588573     36.588573     73.177146
     -4.419419     31.900598     31.900598     63.801197
     -4.409409     27.356034     27.356034     54.712068
     -4.399399     23.509957     23.509957     47.019914
     -4.389389     20.825477     20.825477     41.650955
     -4.379379     19.603820     19.603820     39.207639
     -4.369369     19.917090     19.917090     39.834180
     -4.359359     21.575335     21.575335     43.150670
     -4.349349     24.163857     24.163857     48.327713
     -4.339339     27.158954     27.158954     54.317908
     -4.329329     30.086489     30.086489     60.172978
     -4.319319     32.658635     32.658635     65.317269
     -4.309309     34.830822     34.830822     69.661644
     -4.299299     36.758593     36.758593     73.517186
     -4.289289     38.677695     38.677695     77.355390
     -4.279279     40.756506     40.756506     81.513012
     -4.269269     42.972687     42.972687     85.945374
     -4.259259     45.056565     45.056565     90.113130
     -4.249249     46.530403     46.530403     93.060806
     -4.239239     46.850077     46.850077     93.700155
     -4.229229     45.615734     45.615734     91.231467
     -4.219219     42.771661     42.771661     85.543322
     -4.209209     38.695934     38.695934     77.391869
     -4.199199     34.116517     34.116517     68.233033
     -4.189189     29.874745     29.874745     59.749489
     -4.179179     26.641034     26.641034     53.282068
     -4.169169     24.716107     24.716107     49.432214
     -4.159159     24.004976     24.004976     48.009953
     -4.149149     24.160072     24.160072     48.320143
     -4.139139     24.807819     24.807819     49.615638
     -4.129129     25.739909     25.739909     51.479818
     -4.119119     26.975097     26.975097     53.950194
     -4.109109     28.663363     28.663363     57.326726
     -4.099099     30.883990     30.883990     61.767979
     -4.089089     33.450433     33.450433     66.900867
     -4.079079     35.845356     35.845356     71.690712
     -4.069069     37.351428     37.351428     74.702857
     -4.059059     37.336624     37.336624     74.673248
     -4.049049     35.555284     35.555284     71.110568
     -4.039039     32.303800     32.303800     64.607601
     -4.029029     28.344646     28.344646     56.689292
     -4.019019     24.640270     24.640270     49.280540
     -4.009009     22.036860     22.036860     44.073721
     -3.998999     21.047061     21.047061     42.094122
     -3.988989     21.804269     21.804269     43.608539
     -3.978979     24.157975     24.157975     48.315950
     -3.968969     27.817324     27.817324     55.634648
     -3.958959     32.458421     32.458421     64.916842
     -3.948949     37.767835     37.767835     75.535670
     -3.938939     43.449322     43.449322     86.898644
     -3.928929     49.233369     49.233369     98.466737
     -3.918919     54.899624     54.899624    109.799249
     -3.908909     60.285595     60.285595    120.571190
     -3.898899     65.249034     65.249034    130.498069
     -3.888889     69.584679     69.584679    139.169358
     -3.878879     72.941746     72.941746    145.883491
     -3.868869     74.808874     74.808874    149.617748
     -3.858859     74.608715     74.608715    149.217430
     -3.848849     71.887443     71.887443    143.774886
     -3.838839     66.527967     66.527967    133.055935
     -3.828829     58.891656     58.891656    117.783312
     -3.818819     49.815638     49.815638     99.631276
     -3.808809     40.450752     40.450752     80.901505
     -3.798799     31.990658     31.990658     63.981315
     -3.788789     25.384479     25.384479     50.768958
     -3.778779     21.126491     21.126491     42.252983
     -3.768769     19.181458     19.181458     38.362915
     -3.758759     19.054318     19.054318     38.108635
     -3.748749     19.970409     19.970409     39.940817
     -3.738739     21.109256     21.109256     42.218512
     -3.728729     21.830745     21.830745     43.661489
     -3.718719     21.840547     21.840547     43.681093
     -3.708709     21.256457     21.256457     42.512915
     -3.698699     20.557122     20.557122     41.114244
     -3.688689     20.420349     20.420349     40.840699
     -3.678679     21.488808     21.488808     42.977617
     -3.668669     24.129763     24.129763     48.259526
     -3.658659     28.269574     28.269574     56.539148
     -3.648649     33.369069     33.369069     66.738138
     -3.638639     38.558637     38.558637     77.117274
     -3.628629     42.887434     42.887434     85.774868
     -3.618619     45.591332     45.591332     91.182663
     -3.608609     46.279339     46.279339     92.558678
     -3.598599     44.982757     44.982757     89.965515
     -3.588589     42.077386     42.077386     84.154772
     -3.578579     38.135447     38.135447     76.270893
     -3.568569     33.768539     33.768539     67.537077
     -3.558559     29.498238     29.498238     58.996476
     -3.548549     25.667346     25.667346     51.334693
     -3.538539     22.399556     22.399556     44.799112
     -3.528529     19.618674     19.618674     39.237348
     -3.518519     17.129717     17.129717     34.259433
     -3.508509     14.738227     14.738227     29.476454
     -3.498498     12.359651     12.359651     24.719301
     -3.488488     10.070846     10.070846     20.141693
     -3.478478      8.084545      8.084545     16.169091
     -3.468468      6.664941      6.664941     13.329883
     -3.458458      6.024259      6.024259     12.048517
     -3.448448      6.238279      6.238279     12.476557
     -3.438438      7.204424      7.204424     14.408847
     -3.428428      8.653232      8.653232     17.306463
     -3.418418     10.215370     10.215370     20.430741
     -3.408408     11.534002     11.534002     23.068005
     -3.398398     12.392534     12.392534     24.785067
     -3.388388     12.810511     12.810511     25.621023
     -3.378378     13.062500     13.062500     26.125000
     -3.368368     13.602828     13.602828     27.205656
     -3.358358     14.919697     14.919697     29.839395
     -3.348348     17.370548     17.370548     34.741097
     -3.338338     21.051080     21.051080     42.102159
     -3.328328     25.729238     25.729238     51.458477
     -3.318318     30.853679     30.853679     61.707359
     -3.308308     35.637836     35.637836     71.275672
     -3.298298     39.218704     39.218704     78.437407
     -3.288288     40.873802     40.873802     81.747604
     -3.278278     40.243665     40.243665     80.487329
     -3.268268     37.473209     37.473209     74.946418
     -3.258258     33.191337     33.191337     66.382673
     -3.248248     28.310630     28.310630     56.621260
     -3.238238     23.719614     23.719614     47.439228
     -3.228228     20.001287     20.001287     40.002574
     -3.218218     17.300881     17.300881     34.601762
     -3.208208     15.388329     15.388329     30.776659
     -3.198198     13.864892     13.864892     27.729784
     -3.188188     12.404133     12.404133     24.808266
     -3.178178     10.921459     10.921459     21.842918
     -3.168168      9.619304      9.619304     19.238608
     -3.158158      8.917552      8.917552     17.835104
     -3.148148      9.315641      9.315641     18.631282
     -3.138138     11.234673     11.234673     22.469346
     -3.128128     14.871956     14.871956     29.743912
     -3.118118     20.090872     20.090872     40.181744
     -3.108108     26.374151     26.374151     52.748302
     -3.098098     32.873967     32.873967     65.747935
     -3.088088     38.575538     38.575538     77.151076
     -3.078078     42.545983     42.545983     85.091965
     -3.068068     44.188495     44.188495     88.376989
     -3.058058     43.399740     43.399740     86.799481
     -3.048048     40.559867     40.559867     81.119734
     -3.038038     36.360077     36.360077     72.720154
     -3.028028     31.551239     31.551239     63.102477
     -3.018018     26.731386     26.731386     53.462772
     -3.008008     22.259221     22.259221     44.518441
     -2.997998     18.305340     18.305340     36.610680
     -2.987988     14.980679     14.980679     29.961357
     -2.977978     12.453809     12.453809     24.907617
     -2.967968     10.992661     10.992661     21.985322
     -2.957958     10.916141     10.916141     21.832283
     -2.947948     12.483397     12.483397     24.966794
     -2.937938     15.766841     15.766841     31.533682
     -2.927928     20.554548     20.554548     41.109097
     -2.917918     26.319655     26.319655     52.639310
     -2.907908     32.281431     32.281431     64.562862
     -2.897898     37.559228     37.559228     75.118455
     -2.887888     41.385321     41.385321     82.770642
     -2.877878     43.308507     43.308507     86.617014
     -2.867868     43.308643     43.308643     86.617285
     -2.857858     41.768330     41.768330     83.536659
     -2.847848     39.306174     39.306174     78.612349
     -2.837838     36.539900     36.539900     73.079801
     -2.827828     33.882446     33.882446     67.764893
     -2.817818     31.458222     31.458222     62.916444
     -2.807808     29.165486     29.165486     58.330973
     -2.797798     26.836395     26.836395     53.672789
     -2.787788     24.399581     24.399581     48.799162
     -2.777778     21.957050     21.957050     43.914099
     -2.767768     19.742728     19.742728     39.485455
     -2.757758     18.001216     18.001216     36.002432
     -2.747748     16.869823     16.869823     33.739646
     -2.737738     16.338386     16.338386     32.676772
     -2.727728     16.305531     16.305531     32.611062
     -2.717718     16.682884     16.682884     33.365769
     -2.707708     17.465414     17.465414     34.930828
     -2.697698     18.710969     18.710969     37.421937
     -2.687688     20.440269     20.440269     40.880537
     -2.677678     22.532839     22.532839     45.065678
     -2.667668     24.706435     24.706435     49.412870
     -2.657658     26.614122     26.614122     53.228245
     -2.647648     28.009003     28.009003     56.018006
     -2.637638     28.872339     28.872339     57.744678
     -2.627628     29.418576     29.418576     58.837152
     -2.617618     29.970342     29.970342     59.940685
     -2.607608     30.780599     30.780599     61.561198
     -2.597598     31.906797     31.906797     63.813593
     -2.587588     33.196476     33.196476     66.392951
     -2.577578     34.365420     34.365420     68.730839
     -2.567568     35.100455     35.100455     70.200911
     -2.557558     35.131277     35.131277     70.262554
     -2.547548     34.266617     34.266617     68.533234
     -2.537538     32.427183     32.427183     64.854367
     -2.527528     29.697789     29.697789     59.395578
     -2.517518     26.378325     26.378325     52.756649
     -2.507508     22.982307     22.982307     45.964615
     -2.497497     20.145003     20.145003     40.290005
     -2.487487     18.453508     18.453508     36.907016
     -2.477477     18.262301     18.262301     36.524602
     -2.467467     19.575346     19.575346     39.150692
     -2.457457     22.050652     22.050652     44.101303
     -2.447447     25.130400     25.130400     50.260801
     -2.437437     28.245274     28.245274     56.490548
     -2.427427     31.008586     31.008586     62.017173
     -2.417417     33.317943     33.317943     66.635886
     -2.407407     35.319585     35.319585     70.639170
     -2.397397     37.249598     37.249598     74.499195
     -2.387387     39.223390     39.223390     78.446781
     -2.377377     41.075483     41.075483     82.150966
     -2.367367     42.338370     42.338370     84.676741
     -2.357357     42.390516     42.390516     84.781033
     -2.347347     40.720412     40.720412     81.440824
     -2.337337     37.187512     37.187512     74.375024
     -2.327327     32.153349     32.153349     64.306699
     -2.317317     26.418352     26.418352     52.836703
     -2.307307     20.997092     20.997092     41.994185
     -2.297297     16.837460     16.837460     33.674920
     -2.287287     14.596989     14.596989     29.193978
     -2.277277     14.539439     14.539439     29.078878
     -2.267267     16.549066     16.549066     33.098132
     -2.257257     20.219228     20.219228     40.438456
     -2.247247     24.966848     24.966848     49.933696
     -2.237237     30.139947     30.139947     60.279894
     -2.227227     35.102634     35.102634     70.205268
     -2.217217     39.293310     39.293310     78.586620
     -2.207207     42.260286     42.260286     84.520572
     -2.197197     43.686869     43.686869     87.373737
     -2.187187     43.420262     43.420262     86.840524
     -2.177177     41.508083     41.508083     83.016166
     -2.167167     38.224499     38.224499     76.448998
     -2.157157     34.050806     34.050806     68.101611
     -2.147147     29.583193     29.583193     59.166387
     -2.137137     25.378650     25.378650     50.757300
     -2.127127     21.796679     21.796679     43.593358
     -2.117117     18.913370     18.913370     37.826740
     -2.107107     16.554181     16.554181     33.108362
     -2.097097     14.427797     14.427797     28.855593
     -2.087087     12.288245     12.288245     24.576490
     -2.077077     10.043160     10.043160     20.086319
     -2.067067      7.765806      7.765806     15.531612
     -2.057057      5.626439      5.626439     11.252877
     -2.047047      3.796276      3.796276      7.592553
     -2.037037      2.376816      2.376816      4.753633
     -2.027027      1.378751      1.378751      2.757501
     -2.017017      0.743068      0.743068      1.486136
     -2.007007      0.380784      0.380784      0.761569
     -1.996997      0.210047      0.210047      0.420094
     -1.986987      0.181255      0.181255      0.362510
     -1.976977      0.291472      0.291472      0.582945
     -1.966967      0.593007      0.593007      1.186014
     -1.956957      1.197582      1.197582      2.395163
     -1.946947      2.270761      2.270761      4.541521
     -1.936937      4.006465      4.006465      8.012929
     -1.926927      6.573671      6.573671     13.147342
     -1.916917     10.039292     10.039292     20.078583
     -1.906907     14.289384     14.289384     28.578768
     -1.896897     18.985140     18.985140     37.970280
     -1.886887     23.588257     23.588257     47.176515
     -1.876877     27.467144     27.467144     54.934288
     -1.866867     30.059146     30.059146     60.118292
     -1.856857     31.033409     31.033409     62.066818
     -1.846847     30.391342     30.391342     60.782685
     -1.836837     28.462171     28.462171     56.924342
     -1.826827     25.790607     25.790607     51.581214
     -1.816817     22.955998     22.955998     45.911995
     -1.806807     20.390833     20.390833     40.781667
     -1.796797     18.268963     18.268963     36.537927
     -1.786787     16.505718     16.505718     33.011436
     -1.776777     14.862296     14.862296     29.724592
     -1.766767     13.098596     13.098596     26.197192
     -1.756757     11.099228     11.099228     22.198457
     -1.746747      8.918954      8.918954     17.837908
     -1.736737      6.742360      6.742360     13.484720
     -1.726727      4.797060      4.797060      9.594119
     -1.716717      3.274299      3.274299      6.548598
     -1.706707      2.292182      2.292182      4.584364
     -1.696697      1.902687      1.902687      3.805373
     -1.686687      2.117271      2.117271      4.234543
     -1.676677      2.920456      2.920456      5.840912
     -1.666667      4.255446      4.255446      8.510891
     -1.656657      5.990098      5.990098     11.980196
     -1.646647      7.891518      7.891518     15.783037
     -1.636637      9.641263      9.641263     19.282526
     -1.626627     10.905794     10.905794     21.811588
