# EIG2DOS: Utility for SIESTA to obtain the electronic density of states
#  E. Artacho, Apr 1999, A. Garcia, Apr 2012
#  Nick R. Papior, Feb 2017
# ------------------------------------------
# Eigenvalues calculated from a non-polarized calculation
# Eigenvalues read from siesta.EIG
# Kpoint weights read from siesta.KP
# Using smearing parameter:   0.0500
# Using 1000 points in the energy range
# Selected bands: 1 to: 2981
# Emin, Emax in file for selected band(s):    -27.0667701    218.3174190
# Nbands, Nspin, Nk   =   2981     1     1
# E_F                 =    -4.2946 eV --> (shifted to ZERO)
# Broadening          =     0.0500 eV
#
#        E            N(up)  (=)   N(down)         Ntot
     -5.000000     44.563129     44.563129     89.126257
     -4.989990     45.936509     45.936509     91.873018
     -4.979980     46.391008     46.391008     92.782016
     -4.969970     45.969578     45.969578     91.939156
     -4.959960     44.714021     44.714021     89.428043
     -4.949950     42.690192     42.690192     85.380383
     -4.939940     40.034855     40.034855     80.069709
     -4.929930     37.000904     37.000904     74.001807
     -4.919920     33.983676     33.983676     67.967353
     -4.909910     31.516201     31.516201     63.032402
     -4.899900     30.218269     30.218269     60.436538
     -4.889890     30.680741     30.680741     61.361481
     -4.879880     33.281323     33.281323     66.562646
     -4.869870     37.971901     37.971901     75.943801
     -4.859860     44.131272     44.131272     88.262543
     -4.849850     50.594972     50.594972    101.189943
     -4.839840     55.917736     55.917736    111.835473
     -4.829830     58.805890     58.805890    117.611780
     -4.819820     58.545206     58.545206    117.090412
     -4.809810     55.226283     55.226283    110.452565
     -4.799800     49.663347     49.663347     99.326695
     -4.789790     43.059732     43.059732     86.119464
     -4.779780     36.593093     36.593093     73.186185
     -4.769770     31.103929     31.103929     62.207859
     -4.759760     26.981175     26.981175     53.962350
     -4.749750     24.222595     24.222595     48.445189
     -4.739740     22.579945     22.579945     45.159891
     -4.729730     21.701533     21.701533     43.403066
     -4.719720     21.228250     21.228250     42.456501
     -4.709710     20.841694     20.841694     41.683388
     -4.699700     20.284382     20.284382     40.568763
     -4.689690     19.375190     19.375190     38.750381
     -4.679680     18.035910     18.035910     36.071821
     -4.669670     16.330725     16.330725     32.661450
     -4.659660     14.503276     14.503276     29.006552
     -4.649650     12.984500     12.984500     25.968999
     -4.639640     12.346604     12.346604     24.693207
     -4.629630     13.193881     13.193881     26.387763
     -4.619620     16.002126     16.002126     32.004252
     -4.609610     20.939762     20.939762     41.879524
     -4.599600     27.723587     27.723587     55.447174
     -4.589590     35.574254     35.574254     71.148508
     -4.579580     43.326079     43.326079     86.652158
     -4.569570     49.699206     49.699206     99.398412
     -4.559560     53.667961     53.667961    107.335922
     -4.549550     54.794234     54.794234    109.588468
     -4.539540     53.383821     53.383821    106.767641
     -4.529530     50.385944     50.385944    100.771887
     -4.519520     47.066080     47.066080     94.132160
     -4.509510     44.582533     44.582533     89.165066
     -4.499499     43.634873     43.634873     87.269747
     -4.489489     44.310162     44.310162     88.620324
     -4.479479     46.157002     46.157002     92.314003
     -4.469469     48.419589     48.419589     96.839178
     -4.459459     50.311529     50.311529    100.623058
     -4.449449     51.221235     51.221235    102.442471
     -4.439439     50.801140     50.801140    101.602280
     -4.429429     48.961879     48.961879     97.923758
     -4.419419     45.830296     45.830296     91.660591
     -4.409409     41.718902     41.718902     83.437803
     -4.399399     37.109745     37.109745     74.219490
     -4.389389     32.615605     32.615605     65.231211
     -4.379379     28.880515     28.880515     57.761030
     -4.369369     26.423676     26.423676     52.847351
     -4.359359     25.484464     25.484464     50.968928
     -4.349349     25.948114     25.948114     51.896228
     -4.339339     27.400783     27.400783     54.801567
     -4.329329     29.296932     29.296932     58.593863
     -4.319319     31.164022     31.164022     62.328044
     -4.309309     32.755015     32.755015     65.510030
     -4.299299     34.091971     34.091971     68.183941
     -4.289289     35.398018     35.398018     70.796036
     -4.279279     36.956861     36.956861     73.913722
     -4.269269     38.953599     38.953599     77.907197
     -4.259259     41.346568     41.346568     82.693135
     -4.249249     43.812396     43.812396     87.624793
     -4.239239     45.796814     45.796814     91.593627
     -4.229229     46.677791     46.677791     93.355582
     -4.219219     45.998017     45.998017     91.996035
     -4.209209     43.671766     43.671766     87.343532
     -4.199199     40.059210     40.059210     80.118420
     -4.189189     35.855272     35.855272     71.710545
     -4.179179     31.837635     31.837635     63.675270
     -4.169169     28.597530     28.597530     57.195060
     -4.159159     26.383452     26.383452     52.766904
     -4.149149     25.119322     25.119322     50.238645
     -4.139139     24.562716     24.562716     49.125432
     -4.129129     24.503170     24.503170     49.006341
     -4.119119     24.893284     24.893284     49.786568
     -4.109109     25.847922     25.847922     51.695844
     -4.099099     27.513936     27.513936     55.027872
     -4.089089     29.878840     29.878840     59.757680
     -4.079079     32.627105     32.627105     65.254209
     -4.069069     35.143256     35.143256     70.286512
     -4.059059     36.692978     36.692978     73.385956
     -4.049049     36.713227     36.713227     73.426454
     -4.039039     35.068406     35.068406     70.136812
     -4.029029     32.135858     32.135858     64.271715
     -4.019019     28.674913     28.674913     57.349826
     -4.009009     25.553524     25.553524     51.107049
     -3.998999     23.476777     23.476777     46.953554
     -3.988989     22.839457     22.839457     45.678915
     -3.978979     23.733749     23.733749     47.467498
     -3.968969     26.051405     26.051405     52.102810
     -3.958959     29.587687     29.587687     59.175374
     -3.948949     34.091647     34.091647     68.183294
     -3.938939     39.272292     39.272292     78.544584
     -3.928929     44.807407     44.807407     89.614814
     -3.918919     50.386239     50.386239    100.772478
     -3.908909     55.769476     55.769476    111.538952
     -3.898899     60.815270     60.815270    121.630539
     -3.888889     65.430209     65.430209    130.860417
     -3.878879     69.454645     69.454645    138.909289
     -3.868869     72.547762     72.547762    145.095525
     -3.858859     74.159458     74.159458    148.318916
     -3.848849     73.643727     73.643727    147.287455
     -3.838839     70.494223     70.494223    140.988445
     -3.828829     64.606458     64.606458    129.212917
     -3.818819     56.438876     56.438876    112.877752
     -3.808809     46.981033     46.981033     93.962066
     -3.798799     37.525116     37.525116     75.050231
     -3.788789     29.327329     29.327329     58.654659
     -3.778779     23.288642     23.288642     46.577285
     -3.768769     19.762773     19.762773     39.525547
     -3.758759     18.536079     18.536079     37.072158
     -3.748749     18.959206     18.959206     37.918411
     -3.738739     20.171978     20.171978     40.343956
     -3.728729     21.354202     21.354202     42.708404
     -3.718719     21.943316     21.943316     43.886633
     -3.708709     21.772953     21.772953     43.545906
     -3.698699     21.101074     21.101074     42.202149
     -3.688689     20.515859     20.515859     41.031718
     -3.678679     20.735300     20.735300     41.470601
     -3.668669     22.350301     22.350301     44.700603
     -3.658659     25.590091     25.590091     51.180182
     -3.648649     30.196166     30.196166     60.392332
     -3.638639     35.462310     35.462310     70.924619
     -3.628629     40.435442     40.435442     80.870884
     -3.618619     44.201147     44.201147     88.402293
     -3.608609     46.138870     46.138870     92.277739
     -3.598599     46.051806     46.051806     92.103612
     -3.588589     44.144375     44.144375     88.288751
     -3.578579     40.891324     40.891324     81.782647
     -3.568569     36.873124     36.873124     73.746248
     -3.558559     32.634677     32.634677     65.269353
     -3.548549     28.587925     28.587925     57.175850
     -3.538539     24.958587     24.958587     49.917174
     -3.528529     21.779588     21.779588     43.559177
     -3.518519     18.938116     18.938116     37.876231
     -3.508509     16.269588     16.269588     32.539176
     -3.498498     13.665635     13.665635     27.331270
     -3.488488     11.148788     11.148788     22.297576
     -3.478478      8.880758      8.880758     17.761516
     -3.468468      7.105247      7.105247     14.210493
     -3.458458      6.055623      6.055623     12.111247
     -3.448448      5.865531      5.865531     11.731063
     -3.438438      6.510212      6.510212     13.020425
     -3.428428      7.792964      7.792964     15.585929
     -3.418418      9.383061      9.383061     18.766122
     -3.408408     10.903508     10.903508     21.807017
     -3.398398     12.050952     12.050952     24.101904
     -3.388388     12.709029     12.709029     25.418057
     -3.378378     13.006747     13.006747     26.013493
     -3.368368     13.289650     13.289650     26.579300
     -3.358358     14.009917     14.009917     28.019834
     -3.348348     15.578802     15.578802     31.157603
     -3.338338     18.235966     18.235966     36.471932
     -3.328328     21.970111     21.970111     43.940222
     -3.318318     26.494298     26.494298     52.988596
     -3.308308     31.265074     31.265074     62.530149
     -3.298298     35.545406     35.545406     71.090812
     -3.288288     38.526468     38.526468     77.052936
     -3.278278     39.512080     39.512080     79.024160
     -3.268268     38.125876     38.125876     76.251752
     -3.258258     34.457653     34.457653     68.915305
     -3.248248     29.067009     29.067009     58.134017
     -3.238238     22.823550     22.823550     45.647100
     -3.228228     16.647495     16.647495     33.294990
     -3.218218     11.264034     11.264034     22.528069
     -3.208208      7.067353      7.067353     14.134707
     -3.198198      4.123919      4.123919      8.247839
     -3.188188      2.277718      2.277718      4.555435
     -3.178178      1.290277      1.290277      2.580553
     -3.168168      0.959711      0.959711      1.919421
     -3.158158      1.193436      1.193436      2.386872
     -3.148148      2.033674      2.033674      4.067347
     -3.138138      3.642636      3.642636      7.285273
     -3.128128      6.250773      6.250773     12.501545
     -3.118118     10.069122     10.069122     20.138245
     -3.108108     15.175121     15.175121     30.350242
     -3.098098     21.399761     21.399761     42.799522
     -3.088088     28.262035     28.262035     56.524070
     -3.078078     34.997942     34.997942     69.995884
     -3.068068     40.704680     40.704680     81.409360
     -3.058058     44.570446     44.570446     89.140892
     -3.048048     46.110098     46.110098     92.220195
     -3.038038     45.309023     45.309023     90.618046
     -3.028028     42.610673     42.610673     85.221345
     -3.018018     38.754484     38.754484     77.508967
     -3.008008     34.539969     34.539969     69.079937
     -2.997998     30.618966     30.618966     61.237931
     -2.987988     27.390467     27.390467     54.780933
     -2.977978     25.014647     25.014647     50.029294
     -2.967968     23.510184     23.510184     47.020369
     -2.957958     22.872616     22.872616     45.745233
     -2.947948     23.152131     23.152131     46.304263
     -2.937938     24.450387     24.450387     48.900775
     -2.927928     26.833352     26.833352     53.666704
     -2.917918     30.202570     30.202570     60.405140
     -2.907908     34.200351     34.200351     68.400701
     -2.897898     38.220418     38.220418     76.440836
     -2.887888     41.546877     41.546877     83.093754
     -2.877878     43.573549     43.573549     87.147099
     -2.867868     44.004810     44.004810     88.009620
     -2.857858     42.940799     42.940799     85.881599
     -2.847848     40.805321     40.805321     81.610641
     -2.837838     38.152759     38.152759     76.305519
     -2.827828     35.448143     35.448143     70.896286
     -2.817818     32.922405     32.922405     65.844810
     -2.807808     30.561326     30.561326     61.122653
     -2.797798     28.216235     28.216235     56.432469
     -2.787788     25.764330     25.764330     51.528660
     -2.777778     23.226986     23.226986     46.453972
     -2.767768     20.784374     20.784374     41.568748
     -2.757758     18.687181     18.687181     37.374361
     -2.747748     17.126102     17.126102     34.252205
     -2.737738     16.142912     16.142912     32.285824
     -2.727728     15.638896     15.638896     31.277791
     -2.717718     15.473262     15.473262     30.946523
     -2.707708     15.584349     15.584349     31.168699
     -2.697698     16.048952     16.048952     32.097903
     -2.687688     17.033378     17.033378     34.066756
     -2.677678     18.661561     18.661561     37.323123
     -2.667668     20.884404     20.884404     41.768809
     -2.657658     23.440280     23.440280     46.880560
     -2.647648     25.941991     25.941991     51.883982
     -2.637638     28.044096     28.044096     56.088191
     -2.627628     29.590577     29.590577     59.181154
     -2.617618     30.654805     30.654805     61.309611
     -2.607608     31.454736     31.454736     62.909471
     -2.597598     32.205958     32.205958     64.411915
     -2.587588     33.006088     33.006088     66.012177
     -2.577578     33.806834     33.806834     67.613668
     -2.567568     34.460031     34.460031     68.920062
     -2.557558     34.780396     34.780396     69.560792
     -2.547548     34.582200     34.582200     69.164401
     -2.537538     33.696782     33.696782     67.393564
     -2.527528     32.009303     32.009303     64.018606
     -2.517518     29.533902     29.533902     59.067804
     -2.507508     26.494804     26.494804     52.989607
     -2.497497     23.347373     23.347373     46.694747
     -2.487487     20.692369     20.692369     41.384738
     -2.477477     19.098234     19.098234     38.196467
     -2.467467     18.906339     18.906339     37.812677
     -2.457457     20.112295     20.112295     40.224589
     -2.447447     22.382882     22.382882     44.765764
     -2.437437     25.203382     25.203382     50.406763
     -2.427427     28.087800     28.087800     56.175601
     -2.417417     30.754028     30.754028     61.508055
     -2.407407     33.181580     33.181580     66.363160
     -2.397397     35.525254     35.525254     71.050508
     -2.387387     37.928724     37.928724     75.857448
     -2.377377     40.333971     40.333971     80.667941
     -2.367367     42.389209     42.389209     84.778418
     -2.357357     43.514423     43.514423     87.028847
     -2.347347     43.108721     43.108721     86.217442
     -2.337337     40.812569     40.812569     81.625138
     -2.327327     36.706498     36.706498     73.412997
     -2.317317     31.354316     31.354316     62.708632
     -2.307307     25.670928     25.670928     51.341856
     -2.297297     20.673464     20.673464     41.346928
     -2.287287     17.217257     17.217257     34.434514
     -2.277277     15.807837     15.807837     31.615674
     -2.267267     16.532859     16.532859     33.065717
     -2.257257     19.106912     19.106912     38.213824
     -2.247247     22.990932     22.990932     45.981865
     -2.237237     27.538821     27.538821     55.077643
     -2.227227     32.127779     32.127779     64.255557
     -2.217217     36.240339     36.240339     72.480678
     -2.207207     39.486650     39.486650     78.973300
     -2.197197     41.583622     41.583622     83.167245
     -2.187187     42.330389     42.330389     84.660779
     -2.177177     41.618651     41.618651     83.237303
     -2.167167     39.485182     39.485182     78.970365
     -2.157157     36.169477     36.169477     72.338954
     -2.147147     32.116104     32.116104     64.232208
     -2.137137     27.883413     27.883413     55.766827
     -2.127127     23.979348     23.979348     47.958696
     -2.117117     20.700809     20.700809     41.401617
     -2.107107     18.062447     18.062447     36.124893
     -2.097097     15.853046     15.853046     31.706092
     -2.087087     13.784301     13.784301     27.568601
     -2.077077     11.647681     11.647681     23.295361
     -2.067067      9.400632      9.400632     18.801264
     -2.057057      7.153984      7.153984     14.307968
     -2.047047      5.089863      5.089863     10.179726
     -2.037037      3.367774      3.367774      6.735548
     -2.027027      2.066143      2.066143      4.132285
     -2.017017      1.174384      1.174384      2.348768
     -2.007007      0.621605      0.621605      1.243210
     -1.996997      0.317167      0.317167      0.634333
     -1.986987      0.184267      0.184267      0.368535
     -1.976977      0.180015      0.180015      0.360029
     -1.966967      0.304369      0.304369      0.608738
     -1.956957      0.602110      0.602110      1.204220
     -1.946947      1.158391      1.158391      2.316781
     -1.936937      2.084084      2.084084      4.168169
     -1.926927      3.486546      3.486546      6.973093
     -1.916917      5.427020      5.427020     10.854040
     -1.906907      7.875816      7.875816     15.751633
     -1.896897     10.684309     10.684309     21.368619
     -1.886887     13.591557     13.591557     27.183115
     -1.876877     16.270956     16.270956     32.541913
     -1.866867     18.405002     18.405002     36.810004
     -1.856857     19.764320     19.764320     39.528641
     -1.846847     20.266262     20.266262     40.532525
     -1.836837     19.995511     19.995511     39.991022
     -1.826827     19.178132     19.178132     38.356264
     -1.816817     18.110468     18.110468     36.220935
     -1.806807     17.059111     17.059111     34.118223
     -1.796797     16.166666     16.166666     32.333332
     -1.786787     15.407329     15.407329     30.814658
     -1.776777     14.621594     14.621594     29.243188
     -1.766767     13.620770     13.620770     27.241539
     -1.756757     12.311502     12.311502     24.623005
     -1.746747     10.776312     10.776312     21.552625
     -1.736737      9.269268      9.269268     18.538535
     -1.726727      8.130678      8.130678     16.261356
     -1.716717      7.662683      7.662683     15.325367
     -1.706707      8.019894      8.019894     16.039787
     -1.696697      9.156341      9.156341     18.312683
     -1.686687     10.843961     10.843961     21.687922
     -1.676677     12.750023     12.750023     25.500046
     -1.666667     14.538759     14.538759     29.077517
     -1.656657     15.953451     15.953451     31.906901
     -1.646647     16.847184     16.847184     33.694368
     -1.636637     17.161480     17.161480     34.322959
     -1.626627     16.884705     16.884705     33.769409
