# EIG2DOS: Utility for SIESTA to obtain the electronic density of states
#  E. Artacho, Apr 1999, A. Garcia, Apr 2012
#  Nick R. Papior, Feb 2017
# ------------------------------------------
# Eigenvalues calculated from a non-polarized calculation
# Eigenvalues read from siesta.EIG
# Kpoint weights read from siesta.KP
# Using smearing parameter:   0.0500
# Using 1000 points in the energy range
# Selected bands: 1 to: 2981
# Emin, Emax in file for selected band(s):    -27.2498907    218.4026660
# Nbands, Nspin, Nk   =   2981     1     1
# E_F                 =    -4.1887 eV --> (shifted to ZERO)
# Broadening          =     0.0500 eV
#
#        E            N(up)  (=)   N(down)         Ntot
     -5.000000     33.634280     33.634280     67.268560
     -4.989990     38.831914     38.831914     77.663827
     -4.979980     43.404776     43.404776     86.809552
     -4.969970     46.512220     46.512220     93.024439
     -4.959960     47.560215     47.560215     95.120431
     -4.949950     46.402936     46.402936     92.805871
     -4.939940     43.392865     43.392865     86.785731
     -4.929930     39.281237     39.281237     78.562474
     -4.919920     35.033794     35.033794     70.067587
     -4.909910     31.635924     31.635924     63.271848
     -4.899900     29.923813     29.923813     59.847627
     -4.889890     30.437924     30.437924     60.875847
     -4.879880     33.291972     33.291972     66.583943
     -4.869870     38.085283     38.085283     76.170566
     -4.859860     43.919657     43.919657     87.839313
     -4.849850     49.569809     49.569809     99.139619
     -4.839840     53.791209     53.791209    107.582418
     -4.829830     55.668746     55.668746    111.337491
     -4.819820     54.870047     54.870047    109.740093
     -4.809810     51.699811     51.699811    103.399621
     -4.799800     46.940616     46.940616     93.881231
     -4.789790     41.560283     41.560283     83.120565
     -4.779780     36.414435     36.414435     72.828870
     -4.769770     32.054991     32.054991     64.109982
     -4.759760     28.690053     28.690053     57.380105
     -4.749750     26.268941     26.268941     52.537882
     -4.739740     24.622709     24.622709     49.245418
     -4.729730     23.586585     23.586585     47.173169
     -4.719720     23.056819     23.056819     46.113639
     -4.709710     22.973603     22.973603     45.947206
     -4.699700     23.259179     23.259179     46.518359
     -4.689690     23.763330     23.763330     47.526660
     -4.679680     24.266205     24.266205     48.532410
     -4.669670     24.558268     24.558268     49.116536
     -4.659660     24.570467     24.570467     49.140933
     -4.649650     24.487896     24.487896     48.975793
     -4.639640     24.770203     24.770203     49.540407
     -4.629630     26.032242     26.032242     52.064483
     -4.619620     28.801463     28.801463     57.602926
     -4.609610     33.239316     33.239316     66.478631
     -4.599600     38.956800     38.956800     77.913600
     -4.589590     45.037352     45.037352     90.074705
     -4.579580     50.296670     50.296670    100.593341
     -4.569570     53.692385     53.692385    107.384771
     -4.559560     54.709787     54.709787    109.419573
     -4.549550     53.548225     53.548225    107.096450
     -4.539540     51.023320     51.023320    102.046640
     -4.529530     48.233270     48.233270     96.466541
     -4.519520     46.140430     46.140430     92.280860
     -4.509510     45.242783     45.242783     90.485567
     -4.499499     45.453626     45.453626     90.907252
     -4.489489     46.209733     46.209733     92.419466
     -4.479479     46.736787     46.736787     93.473575
     -4.469469     46.350917     46.350917     92.701834
     -4.459459     44.679663     44.679663     89.359325
     -4.449449     41.735804     41.735804     83.471607
     -4.439439     37.848052     37.848052     75.696103
     -4.429429     33.511320     33.511320     67.022639
     -4.419419     29.239383     29.239383     58.478766
     -4.409409     25.477073     25.477073     50.954146
     -4.399399     22.576624     22.576624     45.153249
     -4.389389     20.799322     20.799322     41.598645
     -4.379379     20.298693     20.298693     40.597386
     -4.369369     21.075767     21.075767     42.151534
     -4.359359     22.940355     22.940355     45.880709
     -4.349349     25.527546     25.527546     51.055093
     -4.339339     28.391216     28.391216     56.782432
     -4.329329     31.145814     31.145814     62.291629
     -4.319319     33.590979     33.590979     67.181959
     -4.309309     35.755752     35.755752     71.511505
     -4.299299     37.837056     37.837056     75.674111
     -4.289289     40.056100     40.056100     80.112200
     -4.279279     42.491762     42.491762     84.983525
     -4.269269     44.960987     44.960987     89.921975
     -4.259259     47.003819     47.003819     94.007638
     -4.249249     47.997815     47.997815     95.995629
     -4.239239     47.376992     47.376992     94.753984
     -4.229229     44.877514     44.877514     89.755029
     -4.219219     40.702893     40.702893     81.405786
     -4.209209     35.521726     35.521726     71.043453
     -4.199199     30.281894     30.281894     60.563789
     -4.189189     25.912869     25.912869     51.825738
     -4.179179     23.042708     23.042708     46.085416
     -4.169169     21.847202     21.847202     43.694403
     -4.159159     22.083047     22.083047     44.166094
     -4.149149     23.272293     23.272293     46.544586
     -4.139139     24.942598     24.942598     49.885197
     -4.129129     26.810637     26.810637     53.621275
     -4.119119     28.826809     28.826809     57.653619
     -4.109109     31.065697     31.065697     62.131394
     -4.099099     33.524782     33.524782     67.049565
     -4.089089     35.949904     35.949904     71.899808
     -4.079079     37.805026     37.805026     75.610051
     -4.069069     38.433296     38.433296     76.866591
     -4.059059     37.346051     37.346051     74.692102
     -4.049049     34.491930     34.491930     68.983860
     -4.039039     30.358275     30.358275     60.716550
     -4.029029     25.846629     25.846629     51.693258
     -4.019019     21.986149     21.986149     43.972298
     -4.009009     19.625568     19.625568     39.251136
     -3.998999     19.234579     19.234579     38.469158
     -3.988989     20.868691     20.868691     41.737382
     -3.978979     24.264799     24.264799     48.529598
     -3.968969     28.988750     28.988750     57.977500
     -3.958959     34.564980     34.564980     69.129961
     -3.948949     40.559475     40.559475     81.118949
     -3.938939     46.623738     46.623738     93.247476
     -3.928929     52.515280     52.515280    105.030560
     -3.918919     58.093660     58.093660    116.187319
     -3.908909     63.276898     63.276898    126.553795
     -3.898899     67.954260     67.954260    135.908519
     -3.888889     71.885681     71.885681    143.771362
     -3.878879     74.647190     74.647190    149.294379
     -3.868869     75.676123     75.676123    151.352246
     -3.858859     74.424918     74.424918    148.849836
     -3.848849     70.572974     70.572974    141.145949
     -3.838839     64.208559     64.208559    128.417119
     -3.828829     55.898700     55.898700    111.797400
     -3.818819     46.609834     46.609834     93.219668
     -3.808809     37.501156     37.501156     75.002313
     -3.798799     29.658333     29.658333     59.316666
     -3.788789     23.850881     23.850881     47.701762
     -3.778779     20.381478     20.381478     40.762956
     -3.768769     19.061411     19.061411     38.122822
     -3.758759     19.308502     19.308502     38.617004
     -3.748749     20.333749     20.333749     40.667499
     -3.738739     21.365809     21.365809     42.731618
     -3.728729     21.858144     21.858144     43.716288
     -3.718719     21.629785     21.629785     43.259570
     -3.708709     20.904562     20.904562     41.809124
     -3.698699     20.234278     20.234278     40.468556
     -3.688689     20.318050     20.318050     40.636099
     -3.678679     21.760828     21.760828     43.521655
     -3.668669     24.841311     24.841311     49.682622
     -3.658659     29.369815     29.369815     58.739631
     -3.648649     34.696753     34.696753     69.393506
     -3.638639     39.880406     39.880406     79.760811
     -3.628629     43.956947     43.956947     87.913894
     -3.618619     46.210000     46.210000     92.420000
     -3.608609     46.340041     46.340041     92.680081
     -3.598599     44.485877     44.485877     88.971754
     -3.588589     41.119028     41.119028     82.238056
     -3.578579     36.875413     36.875413     73.750827
     -3.568569     32.388678     32.388678     64.777356
     -3.558559     28.161636     28.161636     56.323273
     -3.548549     24.487659     24.487659     48.975318
     -3.538539     21.427586     21.427586     42.855172
     -3.528529     18.848742     18.848742     37.697484
     -3.518519     16.521632     16.521632     33.043264
     -3.508509     14.244766     14.244766     28.489532
     -3.498498     11.948113     11.948113     23.896227
     -3.488488      9.731592      9.731592     19.463184
     -3.478478      7.826556      7.826556     15.653111
     -3.468468      6.504064      6.504064     13.008129
     -3.458458      5.971332      5.971332     11.942664
     -3.448448      6.292748      6.292748     12.585495
     -3.438438      7.356893      7.356893     14.713786
     -3.428428      8.899114      8.899114     17.798227
     -3.418418     10.580525     10.580525     21.161051
     -3.408408     12.109952     12.109952     24.219905
     -3.398398     13.372569     13.372569     26.745137
     -3.388388     14.510618     14.510618     29.021235
     -3.378378     15.906871     15.906871     31.813741
     -3.368368     18.057923     18.057923     36.115846
     -3.358358     21.376373     21.376373     42.752746
     -3.348348     25.998092     25.998092     51.996183
     -3.338338     31.670185     31.670185     63.340371
     -3.328328     37.758883     37.758883     75.517767
     -3.318318     43.369130     43.369130     86.738260
     -3.308308     47.536095     47.536095     95.072190
     -3.298298     49.441006     49.441006     98.882012
     -3.288288     48.606829     48.606829     97.213658
     -3.278278     45.029319     45.029319     90.058639
     -3.268268     39.200145     39.200145     78.400290
     -3.258258     31.999196     31.999196     63.998391
     -3.248248     24.479384     24.479384     48.958767
     -3.238238     17.617016     17.617016     35.234033
     -3.228228     12.117892     12.117892     24.235785
     -3.218218      8.337040      8.337040     16.674079
     -3.208208      6.309328      6.309328     12.618656
     -3.198198      5.840786      5.840786     11.681573
     -3.188188      6.604650      6.604650     13.209300
     -3.178178      8.216264      8.216264     16.432527
     -3.168168     10.295825     10.295825     20.591650
     -3.158158     12.537369     12.537369     25.074737
     -3.148148     14.780329     14.780329     29.560658
     -3.138138     17.048437     17.048437     34.096873
     -3.128128     19.512300     19.512300     39.024599
     -3.118118     22.364042     22.364042     44.728084
     -3.108108     25.649690     25.649690     51.299379
     -3.098098     29.147725     29.147725     58.295450
     -3.088088     32.373804     32.373804     64.747607
     -3.078078     34.728269     34.728269     69.456538
     -3.068068     35.720448     35.720448     71.440895
     -3.058058     35.155141     35.155141     70.310283
     -3.048048     33.186206     33.186206     66.372412
     -3.038038     30.219348     30.219348     60.438697
     -3.028028     26.731881     26.731881     53.463763
     -3.018018     23.116297     23.116297     46.232594
     -3.008008     19.625306     19.625306     39.250612
     -2.997998     16.423721     16.423721     32.847441
     -2.987988     13.688560     13.688560     27.377120
     -2.977978     11.681203     11.681203     23.362405
     -2.967968     10.744751     10.744751     21.489502
     -2.957958     11.226587     11.226587     22.453173
     -2.947948     13.359797     13.359797     26.719593
     -2.937938     17.147672     17.147672     34.295344
     -2.927928     22.291072     22.291072     44.582145
     -2.917918     28.189096     28.189096     56.378191
     -2.907908     34.029225     34.029225     68.058451
     -2.897898     38.958603     38.958603     77.917206
     -2.887888     42.294544     42.294544     84.589088
     -2.877878     43.704145     43.704145     87.408290
     -2.867868     43.279891     43.279891     86.559783
     -2.857858     41.471861     41.471861     82.943723
     -2.847848     38.897953     38.897953     77.795907
     -2.837838     36.112359     36.112359     72.224718
     -2.827828     33.435279     33.435279     66.870559
     -2.817818     30.916601     30.916601     61.833203
     -2.807808     28.436314     28.436314     56.872628
     -2.797798     25.873394     25.873394     51.746789
     -2.787788     23.243505     23.243505     46.487010
     -2.777778     20.731668     20.731668     41.463336
     -2.767768     18.612609     18.612609     37.225219
     -2.757758     17.118175     17.118175     34.236350
     -2.747748     16.338348     16.338348     32.676697
     -2.737738     16.214280     16.214280     32.428560
     -2.727728     16.617031     16.617031     33.234061
     -2.717718     17.446924     17.446924     34.893848
     -2.707708     18.675999     18.675999     37.351999
     -2.697698     20.300635     20.300635     40.601269
     -2.687688     22.243187     22.243187     44.486374
     -2.677678     24.287907     24.287907     48.575814
     -2.667668     26.119367     26.119367     52.238734
     -2.657658     27.458822     27.458822     54.917644
     -2.647648     28.216929     28.216929     56.433857
     -2.637638     28.558904     28.558904     57.117809
     -2.627628     28.830502     28.830502     57.661005
     -2.617618     29.383547     29.383547     58.767094
     -2.607608     30.402374     30.402374     60.804747
     -2.597598     31.823687     31.823687     63.647374
     -2.587588     33.374373     33.374373     66.748747
     -2.577578     34.680210     34.680210     69.360419
     -2.567568     35.375037     35.375037     70.750075
     -2.557558     35.171584     35.171584     70.343168
     -2.547548     33.903329     33.903329     67.806658
     -2.537538     31.565864     31.565864     63.131727
     -2.527528     28.363574     28.363574     56.727148
     -2.517518     24.730920     24.730920     49.461840
     -2.507508     21.285774     21.285774     42.571549
     -2.497497     18.699683     18.699683     37.399366
     -2.487487     17.517308     17.517308     35.034616
     -2.477477     17.991925     17.991925     35.983851
     -2.467467     20.005163     20.005163     40.010326
     -2.457457     23.108450     23.108450     46.216900
     -2.447447     26.676286     26.676286     53.352573
     -2.437437     30.116123     30.116123     60.232247
     -2.427427     33.053026     33.053026     66.106053
     -2.417417     35.411683     35.411683     70.823367
     -2.407407     37.356832     37.356832     74.713665
     -2.397397     39.114877     39.114877     78.229754
     -2.387387     40.759578     40.759578     81.519156
     -2.377377     42.072912     42.072912     84.145824
     -2.367367     42.566647     42.566647     85.133294
     -2.357357     41.673834     41.673834     83.347668
     -2.347347     39.027096     39.027096     78.054191
     -2.337337     34.686101     34.686101     69.372202
     -2.327327     29.198064     29.198064     58.396128
     -2.317317     23.463106     23.463106     46.926212
     -2.307307     18.475538     18.475538     36.951076
     -2.297297     15.061239     15.061239     30.122479
     -2.287287     13.708522     13.708522     27.417045
     -2.277277     14.523842     14.523842     29.047685
     -2.267267     17.283654     17.283654     34.567308
     -2.257257     21.530254     21.530254     43.060508
     -2.247247     26.669898     26.669898     53.339795
     -2.237237     32.054368     32.054368     64.108736
     -2.227227     37.044709     37.044709     74.089417
     -2.217217     41.063439     41.063439     82.126878
     -2.207207     43.643125     43.643125     87.286249
     -2.197197     44.477402     44.477402     88.954803
     -2.187187     43.473819     43.473819     86.947639
     -2.177177     40.794554     40.794554     81.589108
     -2.167167     36.857032     36.857032     73.714065
     -2.157157     32.265857     32.265857     64.531714
     -2.147147     27.671617     27.671617     55.343233
     -2.137137     23.594830     23.594830     47.189661
     -2.127127     20.287184     20.287184     40.574369
     -2.117117     17.697570     17.697570     35.395139
     -2.107107     15.561640     15.561640     31.123281
     -2.097097     13.568794     13.568794     27.137588
     -2.087087     11.522306     11.522306     23.044611
     -2.077077      9.420837      9.420837     18.841674
     -2.067067      7.440172      7.440172     14.880344
     -2.057057      5.845770      5.845770     11.691540
     -2.047047      4.888191      4.888191      9.776383
     -2.037037      4.720634      4.720634      9.441268
     -2.027027      5.351523      5.351523     10.703047
     -2.017017      6.629334      6.629334     13.258668
     -2.007007      8.258696      8.258696     16.517392
     -1.996997      9.854069      9.854069     19.708138
     -1.986987     11.032779     11.032779     22.065558
     -1.976977     11.529026     11.529026     23.058052
     -1.966967     11.288639     11.288639     22.577278
     -1.956957     10.500824     10.500824     21.001647
     -1.946947      9.545773      9.545773     19.091545
     -1.936937      8.874000      8.874000     17.747999
     -1.926927      8.862696      8.862696     17.725391
     -1.916917      9.701086      9.701086     19.402171
     -1.906907     11.340935     11.340935     22.681871
     -1.896897     13.521388     13.521388     27.042776
     -1.886887     15.851900     15.851900     31.703801
     -1.876877     17.921692     17.921692     35.843385
     -1.866867     19.402047     19.402047     38.804094
     -1.856857     20.116857     20.116857     40.233715
     -1.846847     20.069730     20.069730     40.139459
     -1.836837     19.425308     19.425308     38.850617
     -1.826827     18.447753     18.447753     36.895507
     -1.816817     17.407379     17.407379     34.814757
     -1.806807     16.481613     16.481613     32.963226
     -1.796797     15.690162     15.690162     31.380325
     -1.786787     14.899587     14.899587     29.799175
     -1.776777     13.901929     13.901929     27.803858
     -1.766767     12.530580     12.530580     25.061161
     -1.756757     10.753431     10.753431     21.506862
     -1.746747      8.697114      8.697114     17.394228
     -1.736737      6.598151      6.598151     13.196302
     -1.726727      4.717256      4.717256      9.434512
     -1.716717      3.265879      3.265879      6.531759
     -1.706707      2.375259      2.375259      4.750518
     -1.696697      2.105458      2.105458      4.210916
     -1.686687      2.467970      2.467970      4.935939
     -1.676677      3.433369      3.433369      6.866738
     -1.666667      4.913157      4.913157      9.826313
     -1.656657      6.729946      6.729946     13.459893
     -1.646647      8.607008      8.607008     17.214017
     -1.636637     10.205299     10.205299     20.410598
     -1.626627     11.212407     11.212407     22.424814
