# EIG2DOS: Utility for SIESTA to obtain the electronic density of states
#  E. Artacho, Apr 1999, A. Garcia, Apr 2012
#  Nick R. Papior, Feb 2017
# ------------------------------------------
# Eigenvalues calculated from a non-polarized calculation
# Eigenvalues read from siesta.EIG
# Kpoint weights read from siesta.KP
# Using smearing parameter:   0.0500
# Using 1000 points in the energy range
# Selected bands: 1 to: 2981
# Emin, Emax in file for selected band(s):    -27.0500535    218.3138310
# Nbands, Nspin, Nk   =   2981     1     1
# E_F                 =    -4.2963 eV --> (shifted to ZERO)
# Broadening          =     0.0500 eV
#
#        E            N(up)  (=)   N(down)         Ntot
     -5.000000     41.641004     41.641004     83.282008
     -4.989990     46.754285     46.754285     93.508570
     -4.979980     50.788672     50.788672    101.577344
     -4.969970     53.137857     53.137857    106.275715
     -4.959960     53.432761     53.432761    106.865522
     -4.949950     51.661700     51.661700    103.323401
     -4.939940     48.188530     48.188530     96.377061
     -4.929930     43.673204     43.673204     87.346408
     -4.919920     38.942465     38.942465     77.884931
     -4.909910     34.863911     34.863911     69.727821
     -4.899900     32.243553     32.243553     64.487105
     -4.889890     31.724731     31.724731     63.449462
     -4.879880     33.655015     33.655015     67.310030
     -4.869870     37.926980     37.926980     75.853960
     -4.859860     43.864450     43.864450     87.728899
     -4.849850     50.261030     50.261030    100.522060
     -4.839840     55.635161     55.635161    111.270322
     -4.829830     58.652627     58.652627    117.305253
     -4.819820     58.552319     58.552319    117.104639
     -4.809810     55.379310     55.379310    110.758620
     -4.799800     49.915484     49.915484     99.830969
     -4.789790     43.352793     43.352793     86.705586
     -4.779780     36.877470     36.877470     73.754940
     -4.769770     31.350206     31.350206     62.700412
     -4.759760     27.181537     27.181537     54.363074
     -4.749750     24.385159     24.385159     48.770318
     -4.739740     22.720659     22.720659     45.441317
     -4.729730     21.836831     21.836831     43.673661
     -4.719720     21.369655     21.369655     42.739311
     -4.709710     20.992624     20.992624     41.985247
     -4.699700     20.439314     20.439314     40.878628
     -4.689690     19.520976     19.520976     39.041951
     -4.679680     18.154134     18.154134     36.308268
     -4.669670     16.399567     16.399567     32.799134
     -4.659660     14.498144     14.498144     28.996288
     -4.649650     12.878685     12.878685     25.757369
     -4.639640     12.114853     12.114853     24.229706
     -4.629630     12.821392     12.821392     25.642784
     -4.619620     15.498242     15.498242     30.996484
     -4.609610     20.350754     20.350754     40.701508
     -4.599600     27.135482     27.135482     54.270963
     -4.589590     35.098328     35.098328     70.196657
     -4.579580     43.067514     43.067514     86.135029
     -4.569570     49.719899     49.719899     99.439798
     -4.559560     53.960721     53.960721    107.921442
     -4.549550     55.281961     55.281961    110.563922
     -4.539540     53.944591     53.944591    107.889181
     -4.529530     50.890665     50.890665    101.781330
     -4.519520     47.408416     47.408416     94.816832
     -4.509510     44.685073     44.685073     89.370147
     -4.499499     43.428096     43.428096     86.856192
     -4.489489     43.694945     43.694945     87.389890
     -4.479479     44.971862     44.971862     89.943725
     -4.469469     46.437703     46.437703     92.875406
     -4.459459     47.287948     47.287948     94.575897
     -4.449449     46.994909     46.994909     93.989818
     -4.439439     45.429034     45.429034     90.858068
     -4.429429     42.831910     42.831910     85.663819
     -4.419419     39.684322     39.684322     79.368644
     -4.409409     36.536539     36.536539     73.073077
     -4.399399     33.861709     33.861709     67.723418
     -4.389389     31.967209     31.967209     63.934418
     -4.379379     30.968212     30.968212     61.936425
     -4.369369     30.806753     30.806753     61.613505
     -4.359359     31.294812     31.294812     62.589624
     -4.349349     32.168052     32.168052     64.336103
     -4.339339     33.146769     33.146769     66.293537
     -4.329329     34.002225     34.002225     68.004450
     -4.319319     34.618287     34.618287     69.236574
     -4.309309     35.029040     35.029040     70.058079
     -4.299299     35.413191     35.413191     70.826382
     -4.289289     36.037959     36.037959     72.075919
     -4.279279     37.161625     37.161625     74.323251
     -4.269269     38.917577     38.917577     77.835153
     -4.259259     41.212772     41.212772     82.425544
     -4.249249     43.681515     43.681515     87.363031
     -4.239239     45.734277     45.734277     91.468553
     -4.229229     46.716391     46.716391     93.432781
     -4.219219     46.138969     46.138969     92.277939
     -4.209209     43.888609     43.888609     87.777218
     -4.199199     40.307287     40.307287     80.614575
     -4.189189     36.086008     36.086008     72.172017
     -4.179179     32.013440     32.013440     64.026881
     -4.169169     28.701974     28.701974     57.403947
     -4.159159     26.423081     26.423081     52.846161
     -4.149149     25.117116     25.117116     50.234233
     -4.139139     24.546543     24.546543     49.093086
     -4.129129     24.494196     24.494196     48.988392
     -4.119119     24.898894     24.898894     49.797787
     -4.109109     25.861744     25.861744     51.723489
     -4.099099     27.522637     27.522637     55.045275
     -4.089089     29.872193     29.872193     59.744386
     -4.079079     32.605846     32.605846     65.211693
     -4.069069     35.119951     35.119951     70.239902
     -4.059059     36.684917     36.684917     73.369833
     -4.049049     36.731382     36.731382     73.462764
     -4.039039     35.109382     35.109382     70.218764
     -4.029029     32.182227     32.182227     64.364453
     -4.019019     28.704065     28.704065     57.408130
     -4.009009     25.549660     25.549660     51.099321
     -3.998999     23.438749     23.438749     46.877498
     -3.988989     22.780074     22.780074     45.560149
     -3.978979     23.671734     23.671734     47.343469
     -3.968969     26.001426     26.001426     52.002851
     -3.958959     29.554082     29.554082     59.108164
     -3.948949     34.068093     34.068093     68.136187
     -3.938939     39.245660     39.245660     78.491321
     -3.928929     44.762505     44.762505     89.525010
     -3.918919     50.309474     50.309474    100.618948
     -3.908909     55.651794     55.651794    111.303589
     -3.898899     60.655552     60.655552    121.311105
     -3.888889     65.239014     65.239014    130.478027
     -3.878879     69.256255     69.256255    138.512509
     -3.868869     72.378009     72.378009    144.756017
     -3.858859     74.058419     74.058419    148.116838
     -3.848849     73.645050     73.645050    147.290099
     -3.838839     70.614713     70.614713    141.229426
     -3.828829     64.839699     64.839699    129.679397
     -3.818819     56.755168     56.755168    113.510336
     -3.808809     47.333833     47.333833     94.667667
     -3.798799     37.862105     37.862105     75.724209
     -3.788789     29.602898     29.602898     59.205795
     -3.778779     23.474211     23.474211     46.948421
     -3.768769     19.852123     19.852123     39.704245
     -3.758759     18.544477     18.544477     37.088954
     -3.748749     18.916968     18.916968     37.833936
     -3.738739     20.114543     20.114543     40.229087
     -3.728729     21.311483     21.311483     42.622966
     -3.718719     21.931096     21.931096     43.862191
     -3.708709     21.788581     21.788581     43.577163
     -3.698699     21.124819     21.124819     42.249638
     -3.688689     20.517899     20.517899     41.035799
     -3.678679     20.686678     20.686678     41.373356
     -3.668669     22.234424     22.234424     44.468847
     -3.658659     25.410513     25.410513     50.821026
     -3.648649     29.977192     29.977192     59.954384
     -3.638639     35.241709     35.241709     70.483419
     -3.628629     40.252260     40.252260     80.504519
     -3.618619     44.084070     44.084070     88.168140
     -3.608609     46.100156     46.100156     92.200312
     -3.598599     46.088372     46.088372     92.176745
     -3.588589     44.243619     44.243619     88.487239
     -3.578579     41.037331     41.037331     82.074661
     -3.568569     37.050237     37.050237     74.100474
     -3.558559     32.828360     32.828360     65.656721
     -3.548549     28.784866     28.784866     57.569733
     -3.538539     25.147603     25.147603     50.295206
     -3.528529     21.953118     21.953118     43.906236
     -3.518519     19.092831     19.092831     38.185662
     -3.508509     16.405131     16.405131     32.810262
     -3.498498     13.781988     13.781988     27.563976
     -3.488488     11.243881     11.243881     22.487761
     -3.478478      8.949735      8.949735     17.899470
     -3.468468      7.141794      7.141794     14.283588
     -3.458458      6.054732      6.054732     12.109464
     -3.448448      5.826660      5.826660     11.653319
     -3.438438      6.439735      6.439735     12.879471
     -3.428428      7.704843      7.704843     15.409687
     -3.418418      9.296872      9.296872     18.593743
     -3.408408     10.839692     10.839692     21.679384
     -3.398398     12.024408     12.024408     24.048816
     -3.388388     12.723287     12.723287     25.446574
     -3.378378     13.051058     13.051058     26.102116
     -3.368368     13.340201     13.340201     26.680401
     -3.358358     14.034766     14.034766     28.069531
     -3.348348     15.545174     15.545174     31.090349
     -3.338338     18.118587     18.118587     36.237175
     -3.328328     21.759565     21.759565     43.519131
     -3.318318     26.203914     26.203914     52.407828
     -3.308308     30.933571     30.933571     61.867143
     -3.298298     35.232025     35.232025     70.464050
     -3.288288     38.297301     38.297301     76.594602
     -3.278278     39.420712     39.420712     78.841425
     -3.268268     38.195762     38.195762     76.391525
     -3.258258     34.674331     34.674331     69.348661
     -3.248248     29.384065     29.384065     58.768131
     -3.238238     23.179412     23.179412     46.358824
     -3.228228     16.985024     16.985024     33.970048
     -3.218218     11.544649     11.544649     23.089299
     -3.208208      7.275481      7.275481     14.550962
     -3.198198      4.262873      4.262873      8.525746
     -3.188188      2.361333      2.361333      4.722666
     -3.178178      1.334740      1.334740      2.669481
     -3.168168      0.978018      0.978018      1.956037
     -3.158158      1.192704      1.192704      2.385409
     -3.148148      2.014300      2.014300      4.028599
     -3.138138      3.598303      3.598303      7.196607
     -3.128128      6.169078      6.169078     12.338156
     -3.118118      9.933488      9.933488     19.866976
     -3.108108     14.969000     14.969000     29.938000
     -3.098098     21.113382     21.113382     42.226765
     -3.088088     27.899977     27.899977     55.799954
     -3.078078     34.583406     34.583406     69.166812
     -3.068068     40.275237     40.275237     80.550475
     -3.058058     44.162050     44.162050     88.324100
     -3.048048     45.731749     45.731749     91.463499
     -3.038038     44.917700     44.917700     89.835401
     -3.028028     42.101134     42.101134     84.202267
     -3.018018     37.977562     37.977562     75.955124
     -3.008008     33.354044     33.354044     66.708088
     -2.997998     28.963723     28.963723     57.927446
     -2.987988     25.355182     25.355182     50.710364
     -2.977978     22.864394     22.864394     45.728788
     -2.967968     21.642232     21.642232     43.284464
     -2.957958     21.704408     21.704408     43.408816
     -2.947948     22.979838     22.979838     45.959676
     -2.937938     25.340276     25.340276     50.680552
     -2.927928     28.598191     28.598191     57.196382
     -2.917918     32.473933     32.473933     64.947867
     -2.907908     36.559561     36.559561     73.119123
     -2.897898     40.325992     40.325992     80.651984
     -2.887888     43.207682     43.207682     86.415364
     -2.877878     44.752426     44.752426     89.504851
     -2.867868     44.772050     44.772050     89.544100
     -2.857858     43.412039     43.412039     86.824078
     -2.847848     41.092171     41.092171     82.184341
     -2.837838     38.337735     38.337735     76.675470
     -2.827828     35.580649     35.580649     71.161298
     -2.817818     33.025959     33.025959     66.051917
     -2.807808     30.643168     30.643168     61.286335
     -2.797798     28.274856     28.274856     56.549712
     -2.787788     25.794442     25.794442     51.588884
     -2.777778     23.223195     23.223195     46.446391
     -2.767768     20.744510     20.744510     41.489021
     -2.757758     18.614826     18.614826     37.229653
     -2.747748     17.030842     17.030842     34.061683
     -2.737738     16.037063     16.037063     32.074126
     -2.727728     15.531237     15.531237     31.062474
     -2.717718     15.362630     15.362630     30.725260
     -2.707708     15.457336     15.457336     30.914672
     -2.697698     15.884822     15.884822     31.769644
     -2.687688     16.815650     16.815650     33.631300
     -2.677678     18.391179     18.391179     36.782358
     -2.667668     20.587032     20.587032     41.174065
     -2.657658     23.162125     23.162125     46.324250
     -2.647648     25.734391     25.734391     51.468782
     -2.637638     27.943741     27.943741     55.887482
     -2.627628     29.605292     29.605292     59.210584
     -2.617618     30.761988     30.761988     61.523976
     -2.607608     31.612402     31.612402     63.224805
     -2.597598     32.369658     32.369658     64.739316
     -2.587588     33.143070     33.143070     66.286141
     -2.577578     33.902386     33.902386     67.804773
     -2.567568     34.516442     34.516442     69.032883
     -2.557558     34.812167     34.812167     69.624333
     -2.547548     34.610460     34.610460     69.220919
     -2.537538     33.743360     33.743360     67.486721
     -2.527528     32.089837     32.089837     64.179674
     -2.517518     29.650794     29.650794     59.301588
     -2.507508     26.633110     26.633110     53.266220
     -2.497497     23.477010     23.477010     46.954020
     -2.487487     20.777467     20.777467     41.554933
     -2.477477     19.110571     19.110571     38.221142
     -2.467467     18.837161     18.837161     37.674322
     -2.457457     19.977164     19.977164     39.954329
     -2.447447     22.217273     22.217273     44.434545
     -2.437437     25.050892     25.050892     50.101784
     -2.427427     27.986067     27.986067     55.972133
     -2.417417     30.724168     30.724168     61.448336
     -2.407407     33.224975     33.224975     66.449950
     -2.397397     35.627799     35.627799     71.255599
     -2.387387     38.069375     38.069375     76.138749
     -2.377377     40.493148     40.493148     80.986295
     -2.367367     42.553752     42.553752     85.107503
     -2.357357     43.678178     43.678178     87.356355
     -2.347347     43.269995     43.269995     86.539991
     -2.337337     40.970624     40.970624     81.941247
     -2.327327     36.858947     36.858947     73.717893
     -2.317317     31.496292     31.496292     62.992584
     -2.307307     25.795764     25.795764     51.591527
     -2.297297     20.773942     20.773942     41.547883
     -2.287287     17.286567     17.286567     34.573134
     -2.277277     15.840052     15.840052     31.680105
     -2.267267     16.523474     16.523474     33.046947
     -2.257257     19.054121     19.054121     38.108243
     -2.247247     22.897666     22.897666     45.795332
     -2.237237     27.414557     27.414557     54.829115
     -2.227227     31.988720     31.988720     63.977440
     -2.217217     36.107101     36.107101     72.214202
     -2.207207     39.379858     39.379858     78.759716
     -2.197197     41.518911     41.518911     83.037822
     -2.187187     42.314555     42.314555     84.629111
     -2.177177     41.648158     41.648158     83.296315
     -2.167167     39.547389     39.547389     79.094778
     -2.157157     36.246280     36.246280     72.492561
     -2.147147     32.189132     32.189132     64.378263
     -2.137137     27.939397     27.939397     55.878793
     -2.127127     24.013901     24.013901     48.027802
     -2.117117     20.719063     20.719063     41.438126
     -2.107107     18.076082     18.076082     36.152164
     -2.097097     15.874892     15.874892     31.749784
     -2.087087     13.822916     13.822916     27.645831
     -2.077077     11.704304     11.704304     23.408607
     -2.067067      9.469593      9.469593     18.939186
     -2.057057      7.225848      7.225848     14.451696
     -2.047047      5.155398      5.155398     10.310795
     -2.037037      3.420854      3.420854      6.841707
     -2.027027      2.104690      2.104690      4.209380
     -2.017017      1.199595      1.199595      2.399191
     -2.007007      0.636351      0.636351      1.272703
     -1.996997      0.324433      0.324433      0.648867
     -1.986987      0.186069      0.186069      0.372138
     -1.976977      0.176800      0.176800      0.353601
     -1.966967      0.294767      0.294767      0.589533
     -1.956957      0.582953      0.582953      1.165907
     -1.946947      1.125193      1.125193      2.250386
     -1.936937      2.032215      2.032215      4.064430
     -1.926927      3.413194      3.413194      6.826388
     -1.916917      5.333516      5.333516     10.667033
     -1.906907      7.769310      7.769310     15.538620
     -1.896897     10.577581     10.577581     21.155162
     -1.886887     13.500315     13.500315     27.000629
     -1.876877     16.209152     16.209152     32.418304
     -1.866867     18.379920     18.379920     36.759839
     -1.856857     19.773568     19.773568     39.547135
     -1.846847     20.298095     20.298095     40.596190
     -1.836837     20.032507     20.032507     40.065014
     -1.826827     19.202928     19.202928     38.405856
     -1.816817     18.111523     18.111523     36.223045
     -1.806807     17.034269     17.034269     34.068537
     -1.796797     16.122444     16.122444     32.244887
     -1.786787     15.352421     15.352421     30.704841
     -1.776777     14.554101     14.554101     29.108202
     -1.766767     13.510234     13.510234     27.020467
     -1.756757     12.078808     12.078808     24.157617
     -1.746747     10.277360     10.277360     20.554721
     -1.736737      8.292221      8.292221     16.584441
     -1.726727      6.420209      6.420209     12.840418
     -1.716717      4.983312      4.983312      9.966624
     -1.706707      4.258172      4.258172      8.516345
     -1.696697      4.436981      4.436981      8.873963
     -1.686687      5.608176      5.608176     11.216352
     -1.676677      7.736166      7.736166     15.472332
     -1.666667     10.633641     10.633641     21.267281
     -1.656657     13.944123     13.944123     27.888247
     -1.646647     17.165560     17.165560     34.331120
     -1.636637     19.735076     19.735076     39.470152
     -1.626627     21.164415     21.164415     42.328830
