# EIG2DOS: Utility for SIESTA to obtain the electronic density of states
#  E. Artacho, Apr 1999, A. Garcia, Apr 2012
#  Nick R. Papior, Feb 2017
# ------------------------------------------
# Eigenvalues calculated from a non-polarized calculation
# Eigenvalues read from siesta.EIG
# Kpoint weights read from siesta.KP
# Using smearing parameter:   0.0500
# Using 1000 points in the energy range
# Selected bands: 1 to: 2981
# Emin, Emax in file for selected band(s):    -27.0333537    218.3039700
# Nbands, Nspin, Nk   =   2981     1     1
# E_F                 =    -4.3077 eV --> (shifted to ZERO)
# Broadening          =     0.0500 eV
#
#        E            N(up)  (=)   N(down)         Ntot
     -5.000000     41.364831     41.364831     82.729663
     -4.989990     46.352085     46.352085     92.704169
     -4.979980     50.314945     50.314945    100.629890
     -4.969970     52.679425     52.679425    105.358851
     -4.959960     53.079356     53.079356    106.158711
     -4.949950     51.475154     51.475154    102.950308
     -4.939940     48.184804     48.184804     96.369608
     -4.929930     43.823402     43.823402     87.646805
     -4.919920     39.188774     39.188774     78.377548
     -4.909910     35.140770     35.140770     70.281540
     -4.899900     32.495682     32.495682     64.991364
     -4.889890     31.918521     31.918521     63.837042
     -4.879880     33.783442     33.783442     67.566883
     -4.869870     38.008482     38.008482     76.016963
     -4.859860     43.935190     43.935190     87.870381
     -4.849850     50.360918     50.360918    100.721836
     -4.839840     55.791434     55.791434    111.582869
     -4.829830     58.867857     58.867857    117.735714
     -4.819820     58.802785     58.802785    117.605570
     -4.809810     55.624511     55.624511    111.249022
     -4.799800     50.113590     50.113590    100.227180
     -4.789790     43.474360     43.474360     86.948721
     -4.779780     36.912184     36.912184     73.824367
     -4.769770     31.306231     31.306231     62.612463
     -4.759760     27.080494     27.080494     54.160988
     -4.749750     24.255991     24.255991     48.511982
     -4.739740     22.593886     22.593886     45.187772
     -4.729730     21.739247     21.739247     43.478493
     -4.719720     21.319615     21.319615     42.639231
     -4.709710     20.996944     20.996944     41.993888
     -4.699700     20.492930     20.492930     40.985859
     -4.689690     19.609357     19.609357     39.218715
     -4.679680     18.256970     18.256970     36.513940
     -4.669670     16.493653     16.493653     32.987306
     -4.659660     14.558448     14.558448     29.116896
     -4.649650     12.878373     12.878373     25.756745
     -4.639640     12.026544     12.026544     24.053088
     -4.629630     12.621971     12.621971     25.243942
     -4.619620     15.177862     15.177862     30.355724
     -4.609610     19.923588     19.923588     39.847176
     -4.599600     26.646716     26.646716     53.293433
     -4.589590     34.620989     34.620989     69.241979
     -4.579580     42.685754     42.685754     85.371508
     -4.569570     49.502022     49.502022     99.004044
     -4.559560     53.932135     53.932135    107.864270
     -4.549550     55.410797     55.410797    110.821595
     -4.539540     54.148381     54.148381    108.296762
     -4.529530     51.063063     51.063063    102.126126
     -4.519520     47.455720     47.455720     94.911440
     -4.509510     44.558128     44.558128     89.116256
     -4.499499     43.137415     43.137415     86.274829
     -4.489489     43.303386     43.303386     86.606772
     -4.479479     44.566506     44.566506     89.133012
     -4.469469     46.088615     46.088615     92.177230
     -4.459459     47.005992     47.005992     94.011984
     -4.449449     46.703816     46.703816     93.407633
     -4.439439     44.967379     44.967379     89.934759
     -4.429429     41.995489     41.995489     83.990978
     -4.419419     38.306206     38.306206     76.612411
     -4.409409     34.582256     34.582256     69.164513
     -4.399399     31.499224     31.499224     62.998448
     -4.389389     29.568912     29.568912     59.137825
     -4.379379     29.024536     29.024536     58.049073
     -4.369369     29.773088     29.773088     59.546176
     -4.359359     31.433096     31.433096     62.866191
     -4.349349     33.454823     33.454823     66.909645
     -4.339339     35.289470     35.289470     70.578940
     -4.329329     36.551182     36.551182     73.102363
     -4.319319     37.116661     37.116661     74.233322
     -4.309309     37.133693     37.133693     74.267386
     -4.299299     36.946700     36.946700     73.893400
     -4.289289     36.973696     36.973696     73.947391
     -4.279279     37.573238     37.573238     75.146476
     -4.269269     38.928444     38.928444     77.856889
     -4.259259     40.965082     40.965082     81.930163
     -4.249249     43.323629     43.323629     86.647258
     -4.239239     45.412649     45.412649     90.825298
     -4.229229     46.559822     46.559822     93.119644
     -4.219219     46.234334     46.234334     92.468669
     -4.209209     44.258819     44.258819     88.517638
     -4.199199     40.905382     40.905382     81.810764
     -4.189189     36.811849     36.811849     73.623698
     -4.179179     32.747058     32.747058     65.494116
     -4.169169     29.338946     29.338946     58.677892
     -4.159159     26.897624     26.897624     53.795249
     -4.149149     25.406500     25.406500     50.813000
     -4.139139     24.660085     24.660085     49.320170
     -4.129129     24.456161     24.456161     48.912323
     -4.119119     24.735053     24.735053     49.470106
     -4.109109     25.595422     25.595422     51.190844
     -4.099099     27.180168     27.180168     54.360335
     -4.089089     29.492284     29.492284     58.984568
     -4.079079     32.244765     32.244765     64.489531
     -4.069069     34.846244     34.846244     69.692488
     -4.059059     36.563193     36.563193     73.126386
     -4.049049     36.801497     36.801497     73.602993
     -4.039039     35.370848     35.370848     70.741696
     -4.029029     32.591443     32.591443     65.182885
     -4.019019     29.185331     29.185331     58.370662
     -4.009009     26.014480     26.014480     52.028960
     -3.998999     23.805450     23.805450     47.610900
     -3.988989     22.987946     22.987946     45.975892
     -3.978979     23.687985     23.687985     47.375970
     -3.968969     25.822134     25.822134     51.644268
     -3.958959     29.200765     29.200765     58.401531
     -3.948949     33.580695     33.580695     67.161390
     -3.938939     38.672546     38.672546     77.345091
     -3.928929     44.149216     44.149216     88.298432
     -3.918919     49.689778     49.689778     99.379555
     -3.908909     55.045202     55.045202    110.090404
     -3.898899     60.073602     60.073602    120.147205
     -3.888889     64.698220     64.698220    129.396440
     -3.878879     68.790867     68.790867    137.581734
     -3.868869     72.043781     72.043781    144.087561
     -3.858859     73.921842     73.921842    147.843683
     -3.848849     73.760179     73.760179    147.520358
     -3.838839     70.997622     70.997622    141.995244
     -3.828829     65.453448     65.453448    130.906896
     -3.818819     57.513677     57.513677    115.027353
     -3.808809     48.123641     48.123641     96.247282
     -3.798799     38.572621     38.572621     77.145242
     -3.788789     30.153073     30.153073     60.306147
     -3.778779     23.827171     23.827171     47.654342
     -3.768769     20.015792     20.015792     40.031584
     -3.758759     18.561411     18.561411     37.122821
     -3.748749     18.848559     18.848559     37.697118
     -3.738739     20.024133     20.024133     40.048265
     -3.728729     21.249549     21.249549     42.499098
     -3.718719     21.924729     21.924729     43.849459
     -3.708709     21.836930     21.836930     43.673860
     -3.698699     21.201487     21.201487     42.402975
     -3.688689     20.580052     20.580052     41.160104
     -3.678679     20.688859     20.688859     41.377718
     -3.668669     22.143456     22.143456     44.286912
     -3.658659     25.216976     25.216976     50.433952
     -3.648649     29.699604     29.699604     59.399208
     -3.638639     34.921916     34.921916     69.843833
     -3.628629     39.943868     39.943868     79.887736
     -3.618619     43.838487     43.838487     87.676974
     -3.608609     45.955282     45.955282     91.910565
     -3.598599     46.062937     46.062937     92.125874
     -3.588589     44.337042     44.337042     88.674084
     -3.578579     41.233011     41.233011     82.466023
     -3.568569     37.320292     37.320292     74.640584
     -3.558559     33.139110     33.139110     66.278220
     -3.548549     29.103021     29.103021     58.206042
     -3.538539     25.446377     25.446377     50.892754
     -3.528529     22.216392     22.216392     44.432785
     -3.518519     19.315576     19.315576     38.631151
     -3.508509     16.589947     16.589947     33.179894
     -3.498498     13.933701     13.933701     27.867401
     -3.488488     11.364975     11.364975     22.729950
     -3.478478      9.038587      9.038587     18.077173
     -3.468468      7.193922      7.193922     14.387845
     -3.458458      6.065969      6.065969     12.131939
     -3.448448      5.796704      5.796704     11.593407
     -3.438438      6.374758      6.374758     12.749515
     -3.428428      7.618089      7.618089     15.236179
     -3.418418      9.206513      9.206513     18.413026
     -3.408408     10.763951     10.763951     21.527902
     -3.398398     11.975254     11.975254     23.950508
     -3.388388     12.701168     12.701168     25.402336
     -3.378378     13.043183     13.043183     26.086365
     -3.368368     13.323433     13.323433     26.646867
     -3.358358     13.982044     13.982044     27.964087
     -3.348348     15.432974     15.432974     30.865949
     -3.338338     17.933280     17.933280     35.866560
     -3.328328     21.501929     21.501929     43.003857
     -3.318318     25.892047     25.892047     51.784094
     -3.308308     30.603815     30.603815     61.207630
     -3.298298     34.935962     34.935962     69.871925
     -3.288288     38.092617     38.092617     76.185234
     -3.278278     39.356245     39.356245     78.712490
     -3.268268     38.295404     38.295404     76.590808
     -3.258258     34.927197     34.927197     69.854395
     -3.248248     29.746598     29.746598     59.493195
     -3.238238     23.589227     23.589227     47.178454
     -3.228228     17.380216     17.380216     34.760432
     -3.218218     11.879918     11.879918     23.759836
     -3.208208      7.529165      7.529165     15.058329
     -3.198198      4.434211      4.434211      8.868422
     -3.188188      2.461457      2.461457      4.922913
     -3.178178      1.375887      1.375887      2.751775
     -3.168168      0.963788      0.963788      1.927577
     -3.158158      1.109636      1.109636      2.219272
     -3.148148      1.823509      1.823509      3.647018
     -3.138138      3.226175      3.226175      6.452350
     -3.128128      5.498252      5.498252     10.996504
     -3.118118      8.799357      8.799357     17.598714
     -3.108108     13.171431     13.171431     26.342861
     -3.098098     18.455352     18.455352     36.910704
     -3.088088     24.259443     24.259443     48.518886
     -3.078078     30.008486     30.008486     60.016973
     -3.068068     35.068844     35.068844     70.137688
     -3.058058     38.903897     38.903897     77.807793
     -3.048048     41.191751     41.191751     82.383502
     -3.038038     41.855071     41.855071     83.710141
     -3.028028     41.005280     41.005280     82.010560
     -3.018018     38.855796     38.855796     77.711591
     -3.008008     35.671978     35.671978     71.343956
     -2.997998     31.787559     31.787559     63.575119
     -2.987988     27.656997     27.656997     55.313994
     -2.977978     23.877250     23.877250     47.754500
     -2.967968     21.127318     21.127318     42.254635
     -2.957958     20.026068     20.026068     40.052136
     -2.947948     20.959847     20.959847     41.919693
     -2.937938     23.949752     23.949752     47.899503
     -2.927928     28.610292     28.610292     57.220584
     -2.917918     34.214194     34.214194     68.428388
     -2.907908     39.843712     39.843712     79.687424
     -2.897898     44.587805     44.587805     89.175611
     -2.887888     47.736965     47.736965     95.473929
     -2.877878     48.928988     48.928988     97.857977
     -2.867868     48.207896     48.207896     96.415793
     -2.857858     45.976266     45.976266     91.952533
     -2.847848     42.850019     42.850019     85.700038
     -2.837838     39.458720     39.458720     78.917439
     -2.827828     36.259971     36.259971     72.519941
     -2.817818     33.437136     33.437136     66.874271
     -2.807808     30.918222     30.918222     61.836443
     -2.797798     28.500442     28.500442     57.000883
     -2.787788     26.015184     26.015184     52.030368
     -2.777778     23.449246     23.449246     46.898492
     -2.767768     20.963020     20.963020     41.926041
     -2.757758     18.803728     18.803728     37.607456
     -2.747748     17.170782     17.170782     34.341564
     -2.737738     16.116910     16.116910     32.233820
     -2.727728     15.545554     15.545554     31.091109
     -2.717718     15.304383     15.304383     30.608766
     -2.707708     15.312589     15.312589     30.625178
     -2.697698     15.635572     15.635572     31.271144
     -2.687688     16.451911     16.451911     32.903822
     -2.677678     17.926590     17.926590     35.853180
     -2.667668     20.067991     20.067991     40.135983
     -2.657658     22.662161     22.662161     45.324321
     -2.647648     25.333205     25.333205     50.666410
     -2.637638     27.699756     27.699756     55.399511
     -2.627628     29.535420     29.535420     59.070840
     -2.617618     30.838789     30.838789     61.677577
     -2.607608     31.778872     31.778872     63.557745
     -2.597598     32.562426     32.562426     65.124852
     -2.587588     33.312249     33.312249     66.624497
     -2.577578     34.021488     34.021488     68.042977
     -2.567568     34.583333     34.583333     69.166666
     -2.557558     34.845579     34.845579     69.691158
     -2.547548     34.644555     34.644555     69.289110
     -2.537538     33.819154     33.819154     67.638308
     -2.527528     32.242024     32.242024     64.484048
     -2.517518     29.892541     29.892541     59.785081
     -2.507508     26.945674     26.945674     53.891349
     -2.497497     23.810919     23.810919     47.621837
     -2.487487     21.066591     21.066591     42.133182
     -2.477477     19.293470     19.293470     38.586939
     -2.467467     18.876266     18.876266     37.752531
     -2.457457     19.867852     19.867852     39.735705
     -2.447447     21.984155     21.984155     43.968309
     -2.437437     24.734518     24.734518     49.469036
     -2.427427     27.627040     27.627040     55.254079
     -2.417417     30.352034     30.352034     60.704068
     -2.407407     32.856410     32.856410     65.712820
     -2.397397     35.273821     35.273821     70.547642
     -2.387387     37.746725     37.746725     75.493450
     -2.377377     40.232750     40.232750     80.465501
     -2.367367     42.400359     42.400359     84.800718
     -2.357357     43.679523     43.679523     87.359047
     -2.347347     43.459090     43.459090     86.918180
     -2.337337     41.348831     41.348831     82.697661
     -2.327327     37.388019     37.388019     74.776038
     -2.317317     32.103947     32.103947     64.207894
     -2.307307     26.393177     26.393177     52.786353
     -2.297297     21.278074     21.278074     42.556149
     -2.287287     17.638522     17.638522     35.277044
     -2.277277     16.013424     16.013424     32.026849
     -2.267267     16.521873     16.521873     33.043746
     -2.257257     18.901664     18.901664     37.803328
     -2.247247     22.628187     22.628187     45.256373
     -2.237237     27.064378     27.064378     54.128755
     -2.227227     31.594934     31.594934     63.189869
     -2.217217     35.709878     35.709878     71.419756
     -2.207207     39.024706     39.024706     78.049413
     -2.197197     41.254520     41.254520     82.509040
     -2.187187     42.184243     42.184243     84.368485
     -2.177177     41.677161     41.677161     83.354322
     -2.167167     39.731913     39.731913     79.463826
     -2.157157     36.550908     36.550908     73.101815
     -2.147147     32.555935     32.555935     65.111870
     -2.137137     28.306271     28.306271     56.612542
     -2.127127     24.334448     24.334448     48.668896
     -2.117117     20.975078     20.975078     41.950156
     -2.107107     18.277324     18.277324     36.554649
     -2.097097     16.047410     16.047410     32.094820
     -2.087087     13.992833     13.992833     27.985667
     -2.077077     11.885364     11.885364     23.770727
     -2.067067      9.659483      9.659483     19.318966
     -2.057057      7.410928      7.410928     14.821857
     -2.047047      5.319365      5.319365     10.638730
     -2.037037      3.552175      3.552175      7.104349
     -2.027027      2.199827      2.199827      4.399653
     -2.017017      1.262052      1.262052      2.524104
     -2.007007      0.673478      0.673478      1.346956
     -1.996997      0.344115      0.344115      0.688229
     -1.986987      0.194510      0.194510      0.389021
     -1.976977      0.177574      0.177574      0.355148
     -1.966967      0.288702      0.288702      0.577404
     -1.956957      0.568442      0.568442      1.136884
     -1.946947      1.098755      1.098755      2.197509
     -1.936937      1.989432      1.989432      3.978865
     -1.926927      3.350139      3.350139      6.700279
     -1.916917      5.248536      5.248536     10.497072
     -1.906907      7.664666      7.664666     15.329332
     -1.896897     10.460240     10.460240     20.920480
     -1.886887     13.381354     13.381354     26.762707
     -1.876877     16.101754     16.101754     32.203507
     -1.866867     18.296477     18.296477     36.592954
     -1.856857     19.722700     19.722700     39.445401
     -1.846847     20.282398     20.282398     40.564797
     -1.836837     20.047753     20.047753     40.095506
     -1.826827     19.239261     19.239261     38.478522
     -1.816817     18.156713     18.156713     36.313425
     -1.806807     17.078150     17.078150     34.156300
     -1.796797     16.160681     16.160681     32.321362
     -1.786787     15.387502     15.387502     30.775005
     -1.776777     14.592491     14.592491     29.184982
     -1.766767     13.556317     13.556317     27.112635
     -1.756757     12.127440     12.127440     24.254880
     -1.746747     10.306480     10.306480     20.612959
     -1.736737      8.255759      8.255759     16.511518
     -1.726727      6.241198      6.241198     12.482397
     -1.716717      4.549505      4.549505      9.099010
     -1.706707      3.427171      3.427171      6.854342
     -1.696697      3.061240      3.061240      6.122480
     -1.686687      3.586707      3.586707      7.173413
     -1.676677      5.085964      5.085964     10.171928
     -1.666667      7.553735      7.553735     15.107470
     -1.656657     10.831695     10.831695     21.663390
     -1.646647     14.552021     14.552021     29.104042
     -1.636637     18.144841     18.144841     36.289682
     -1.626627     20.944672     20.944672     41.889344
