# EIG2DOS: Utility for SIESTA to obtain the electronic density of states
#  E. Artacho, Apr 1999, A. Garcia, Apr 2012
#  Nick R. Papior, Feb 2017
# ------------------------------------------
# Eigenvalues calculated from a non-polarized calculation
# Eigenvalues read from siesta.EIG
# Kpoint weights read from siesta.KP
# Using smearing parameter:   0.0500
# Using 1000 points in the energy range
# Selected bands: 1 to: 2981
# Emin, Emax in file for selected band(s):    -27.0782129    218.3290990
# Nbands, Nspin, Nk   =   2981     1     1
# E_F                 =    -4.2778 eV --> (shifted to ZERO)
# Broadening          =     0.0500 eV
#
#        E            N(up)  (=)   N(down)         Ntot
     -5.000000     45.504743     45.504743     91.009487
     -4.989990     47.454882     47.454882     94.909765
     -4.979980     48.236611     48.236611     96.473222
     -4.969970     47.862232     47.862232     95.724464
     -4.959960     46.410795     46.410795     92.821590
     -4.949950     44.030161     44.030161     88.060322
     -4.939940     40.953850     40.953850     81.907699
     -4.929930     37.521146     37.521146     75.042291
     -4.919920     34.188619     34.188619     68.377238
     -4.909910     31.520203     31.520203     63.040407
     -4.899900     30.137025     30.137025     60.274050
     -4.889890     30.605324     30.605324     61.210648
     -4.879880     33.258614     33.258614     66.517227
     -4.869870     37.996165     37.996165     75.992330
     -4.859860     44.152051     44.152051     88.304103
     -4.849850     50.541843     50.541843    101.083686
     -4.839840     55.734037     55.734037    111.468073
     -4.829830     58.476923     58.476923    116.953846
     -4.819820     58.107708     58.107708    116.215416
     -4.809810     54.755459     54.755459    109.510918
     -4.799800     49.245422     49.245422     98.490844
     -4.789790     42.763935     42.763935     85.527869
     -4.779780     36.454234     36.454234     72.908468
     -4.769770     31.118801     31.118801     62.237603
     -4.759760     27.115325     27.115325     54.230649
     -4.749750     24.422136     24.422136     48.844272
     -4.739740     22.784788     22.784788     45.569576
     -4.729730     21.858194     21.858194     43.716388
     -4.719720     21.300452     21.300452     42.600904
     -4.709710     20.816320     20.816320     41.632640
     -4.699700     20.171207     20.171207     40.342413
     -4.689690     19.201452     19.201452     38.402905
     -4.679680     17.839362     17.839362     35.678725
     -4.669670     16.154976     16.154976     32.309952
     -4.659660     14.396653     14.396653     28.793307
     -4.649650     13.000034     13.000034     26.000069
     -4.639640     12.538497     12.538497     25.076994
     -4.629630     13.606487     13.606487     27.212974
     -4.619620     16.651327     16.651327     33.302654
     -4.609610     21.792460     21.792460     43.584919
     -4.599600     28.686123     28.686123     57.372247
     -4.589590     36.501197     36.501197     73.002394
     -4.579580     44.054170     44.054170     88.108340
     -4.569570     50.098768     50.098768    100.197536
     -4.559560     53.692191     53.692191    107.384383
     -4.549550     54.503680     54.503680    109.007360
     -4.539540     52.932759     52.932759    105.865517
     -4.529530     49.975096     49.975096     99.950192
     -4.519520     46.882039     46.882039     93.764077
     -4.509510     44.749305     44.749305     89.498609
     -4.499499     44.194656     44.194656     88.389312
     -4.489489     45.234059     45.234059     90.468118
     -4.479479     47.371109     47.371109     94.742219
     -4.469469     49.826176     49.826176     99.652352
     -4.459459     51.792244     51.792244    103.584487
     -4.449449     52.625824     52.625824    105.251648
     -4.439439     51.940751     51.940751    103.881503
     -4.429429     49.628871     49.628871     99.257743
     -4.419419     45.851337     45.851337     91.702675
     -4.409409     41.022875     41.022875     82.045750
     -4.399399     35.774282     35.774282     71.548564
     -4.389389     30.861067     30.861067     61.722134
     -4.379379     27.007254     27.007254     54.014509
     -4.369369     24.720025     24.720025     49.440049
     -4.359359     24.147893     24.147893     48.295786
     -4.349349     25.051737     25.051737     50.103474
     -4.339339     26.910959     26.910959     53.821918
     -4.329329     29.123174     29.123174     58.246349
     -4.319319     31.212867     31.212867     62.425734
     -4.309309     32.965693     32.965693     65.931386
     -4.299299     34.445436     34.445436     68.890871
     -4.289289     35.902736     35.902736     71.805472
     -4.279279     37.620689     37.620689     75.241378
     -4.269269     39.752660     39.752660     79.505319
     -4.259259     42.202448     42.202448     84.404896
     -4.249249     44.588783     44.588783     89.177566
     -4.239239     46.322845     46.322845     92.645691
     -4.229229     46.795425     46.795425     93.590850
     -4.219219     45.617351     45.617351     91.234702
     -4.209209     42.809911     42.809911     85.619821
     -4.199199     38.842787     38.842787     77.685574
     -4.189189     34.483529     34.483529     68.967057
     -4.179179     30.522707     30.522707     61.045414
     -4.169169     27.508327     27.508327     55.016654
     -4.159159     25.614716     25.614716     51.229431
     -4.149149     24.692485     24.692485     49.384970
     -4.139139     24.449966     24.449966     48.899932
     -4.129129     24.658032     24.658032     49.316063
     -4.119119     25.271735     25.271735     50.543471
     -4.109109     26.411330     26.411330     52.822660
     -4.099099     28.215434     28.215434     56.430868
     -4.089089     30.644368     30.644368     61.288737
     -4.079079     33.346766     33.346766     66.693532
     -4.069069     35.684448     35.684448     71.368896
     -4.059059     36.934721     36.934721     73.869441
     -4.049049     36.587537     36.587537     73.175074
     -4.039039     34.588391     34.588391     69.176782
     -4.029029     31.396162     31.396162     62.792323
     -4.019019     27.824643     27.824643     55.649285
     -4.009009     24.755204     24.755204     49.510409
     -3.998999     22.868906     22.868906     45.737812
     -3.988989     22.514104     22.514104     45.028208
     -3.978979     23.730526     23.730526     47.461051
     -3.968969     26.362472     26.362472     52.724945
     -3.958959     30.168066     30.168066     60.336133
     -3.948949     34.872382     34.872382     69.744765
     -3.938939     40.176217     40.176217     80.352434
     -3.928929     45.765958     45.765958     91.531916
     -3.918919     51.352263     51.352263    102.704526
     -3.908909     56.719257     56.719257    113.438514
     -3.898899     61.736125     61.736125    123.472250
     -3.888889     66.297658     66.297658    132.595316
     -3.878879     70.211125     70.211125    140.422249
     -3.868869     73.097413     73.097413    146.194827
     -3.858859     74.387397     74.387397    148.774794
     -3.848849     73.455486     73.455486    146.910972
     -3.838839     69.858744     69.858744    139.717489
     -3.828829     63.581890     63.581890    127.163781
     -3.818819     55.167586     55.167586    110.335172
     -3.808809     45.654770     45.654770     91.309541
     -3.798799     36.334577     36.334577     72.669154
     -3.788789     28.415447     28.415447     56.830893
     -3.778779     22.722405     22.722405     45.444810
     -3.768769     19.528821     19.528821     39.057643
     -3.758759     18.556613     18.556613     37.113226
     -3.748749     19.120374     19.120374     38.240748
     -3.738739     20.356432     20.356432     40.712863
     -3.728729     21.470772     21.470772     42.941545
     -3.718719     21.948172     21.948172     43.896345
     -3.708709     21.677955     21.677955     43.355909
     -3.698699     20.967081     20.967081     41.934163
     -3.688689     20.431900     20.431900     40.863800
     -3.678679     20.788520     20.788520     41.577040
     -3.668669     22.595246     22.595246     45.190492
     -3.658659     26.027489     26.027489     52.054978
     -3.648649     30.769184     30.769184     61.538368
     -3.638639     36.072144     36.072144     72.144287
     -3.628629     40.970178     40.970178     81.940355
     -3.618619     44.566274     44.566274     89.132548
     -3.608609     46.278135     46.278135     92.556270
     -3.598599     45.953136     45.953136     91.906271
     -3.588589     43.833268     43.833268     87.666537
     -3.578579     40.418352     40.418352     80.836704
     -3.568569     36.301143     36.301143     72.602285
     -3.558559     32.027644     32.027644     64.055287
     -3.548549     28.001014     28.001014     56.002028
     -3.538539     24.430084     24.430084     48.860169
     -3.528529     21.326933     21.326933     42.653866
     -3.518519     18.560288     18.560288     37.120576
     -3.508509     15.955257     15.955257     31.910513
     -3.498498     13.403222     13.403222     26.806444
     -3.488488     10.933664     10.933664     21.867329
     -3.478478      8.716801      8.716801     17.433601
     -3.468468      7.001204      7.001204     14.002408
     -3.458458      6.018886      6.018886     12.037772
     -3.448448      5.896197      5.896197     11.792395
     -3.438438      6.597534      6.597534     13.195069
     -3.428428      7.915482      7.915482     15.830964
     -3.418418      9.513053      9.513053     19.026106
     -3.408408     11.015284     11.015284     22.030567
     -3.398398     12.130717     12.130717     24.261433
     -3.388388     12.762578     12.762578     25.525156
     -3.378378     13.061376     13.061376     26.122752
     -3.368368     13.388928     13.388928     26.777856
     -3.358358     14.202947     14.202947     28.405894
     -3.348348     15.907284     15.907284     31.814568
     -3.338338     18.721751     18.721751     37.443502
     -3.328328     22.604396     22.604396     45.208792
     -3.318318     27.229518     27.229518     54.459037
     -3.308308     32.012808     32.012808     64.025617
     -3.298298     36.185825     36.185825     72.371651
     -3.288288     38.932945     38.932945     77.865890
     -3.278278     39.586996     39.586996     79.173993
     -3.268268     37.834539     37.834539     75.669078
     -3.258258     33.843909     33.843909     67.687817
     -3.248248     28.241122     28.241122     56.482243
     -3.238238     21.926840     21.926840     43.853679
     -3.228228     15.810028     15.810028     31.620055
     -3.218218     10.573695     10.573695     21.147390
     -3.208208      6.560690      6.560690     13.121379
     -3.198198      3.797837      3.797837      7.595675
     -3.188188      2.113824      2.113824      4.227647
     -3.178178      1.283178      1.283178      2.566357
     -3.168168      1.144127      1.144127      2.288254
     -3.158158      1.667275      1.667275      3.334550
     -3.148148      2.971786      2.971786      5.943573
     -3.138138      5.289616      5.289616     10.579233
     -3.128128      8.876806      8.876806     17.753612
     -3.118118     13.879070     13.879070     27.758140
     -3.108108     20.183149     20.183149     40.366298
     -3.098098     27.314560     27.314560     54.629119
     -3.088088     34.451585     34.451585     68.903169
     -3.078078     40.592658     40.592658     81.185317
     -3.068068     44.842186     44.842186     89.684371
     -3.058058     46.703777     46.703777     93.407555
     -3.048048     46.241460     46.241460     92.482919
     -3.038038     44.019779     44.019779     88.039557
     -3.028028     40.844471     40.844471     81.688941
     -3.018018     37.433104     37.433104     74.866208
     -3.008008     34.181951     34.181951     68.363902
     -2.997998     31.136671     31.136671     62.273343
     -2.987988     28.157256     28.157256     56.314513
     -2.977978     25.164587     25.164587     50.329175
     -2.967968     22.325038     22.325038     44.650076
     -2.957958     20.078432     20.078432     40.156863
     -2.947948     19.003635     19.003635     38.007269
     -2.937938     19.591828     19.591828     39.183655
     -2.927928     22.028147     22.028147     44.056293
     -2.917918     26.068140     26.068140     52.136280
     -2.907908     31.055009     31.055009     62.110018
     -2.897898     36.075084     36.075084     72.150168
     -2.887888     40.203528     40.203528     80.407056
     -2.877878     42.759154     42.759154     85.518307
     -2.867868     43.478610     43.478610     86.957219
     -2.857858     42.545586     42.545586     85.091173
     -2.847848     40.466271     40.466271     80.932542
     -2.837838     37.846317     37.846317     75.692633
     -2.827828     35.166491     35.166491     70.332983
     -2.817818     32.651380     32.651380     65.302760
     -2.807808     30.277685     30.277685     60.555369
     -2.797798     27.899276     27.899276     55.798552
     -2.787788     25.410578     25.410578     50.821156
     -2.777778     22.856920     22.856920     45.713839
     -2.767768     20.436390     20.436390     40.872781
     -2.757758     18.402564     18.402564     36.805129
     -2.747748     16.934733     16.934733     33.869465
     -2.737738     16.058984     16.058984     32.117968
     -2.727728     15.669033     15.669033     31.338066
     -2.717718     15.630174     15.630174     31.260349
     -2.707708     15.893775     15.893775     31.787550
     -2.697698     16.540410     16.540410     33.080821
     -2.687688     17.715683     17.715683     35.431366
     -2.677678     19.496173     19.496173     38.992346
     -2.667668     21.775273     21.775273     43.550546
     -2.657658     24.252462     24.252462     48.504923
     -2.647648     26.545177     26.545177     53.090354
     -2.637638     28.360891     28.360891     56.721782
     -2.627628     29.624321     29.624321     59.248642
     -2.617618     30.482552     30.482552     60.965104
     -2.607608     31.190971     31.190971     62.381942
     -2.597598     31.957889     31.957889     63.915778
     -2.587588     32.841778     32.841778     65.683557
     -2.577578     33.744841     33.744841     67.489681
     -2.567568     34.475185     34.475185     68.950371
     -2.557558     34.815778     34.815778     69.631556
     -2.547548     34.562904     34.562904     69.125809
     -2.537538     33.547951     33.547951     67.095902
     -2.527528     31.680434     31.680434     63.360869
     -2.517518     29.023614     29.023614     58.047227
     -2.507508     25.863431     25.863431     51.726863
     -2.497497     22.706860     22.706860     45.413719
     -2.487487     20.173933     20.173933     40.347867
     -2.477477     18.810628     18.810628     37.621255
     -2.467467     18.902726     18.902726     37.805452
     -2.457457     20.379178     20.379178     40.758356
     -2.447447     22.853610     22.853610     45.707220
     -2.437437     25.787844     25.787844     51.575689
     -2.427427     28.703906     28.703906     57.407812
     -2.417417     31.347451     31.347451     62.694902
     -2.407407     33.727029     33.727029     67.454058
     -2.397397     36.011736     36.011736     72.023473
     -2.387387     38.338644     38.338644     76.677288
     -2.377377     40.628204     40.628204     81.256408
     -2.367367     42.506980     42.506980     85.013961
     -2.357357     43.389779     43.389779     86.779559
     -2.347347     42.697528     42.697528     85.395057
     -2.337337     40.118322     40.118322     80.236644
     -2.327327     35.792456     35.792456     71.584912
     -2.317317     30.334777     30.334777     60.669554
     -2.307307     24.683916     24.683916     49.367833
     -2.297297     19.845872     19.845872     39.691745
     -2.287287     16.636528     16.636528     33.273057
     -2.277277     15.510040     15.510040     31.020079
     -2.267267     16.508478     16.508478     33.016957
     -2.257257     19.317836     19.317836     38.635671
     -2.247247     23.388513     23.388513     46.777025
     -2.237237     28.074416     28.074416     56.148832
     -2.227227     32.752449     32.752449     65.504897
     -2.217217     36.897019     36.897019     73.794038
     -2.207207     40.103077     40.103077     80.206154
     -2.197197     42.074806     42.074806     84.149613
     -2.187187     42.614478     42.614478     85.228955
     -2.177177     41.641688     41.641688     83.283375
     -2.167167     39.243190     39.243190     78.486380
     -2.157157     35.715140     35.715140     71.430279
     -2.147147     31.543717     31.543717     63.087435
     -2.137137     27.296825     27.296825     54.593650
     -2.127127     23.457037     23.457037     46.914074
     -2.117117     20.274247     20.274247     40.548495
     -2.107107     17.716849     17.716849     35.433697
     -2.097097     15.547623     15.547623     31.095246
     -2.087087     13.479511     13.479511     26.959022
     -2.077077     11.325197     11.325197     22.650394
     -2.067067      9.068073      9.068073     18.136147
     -2.057057      6.835925      6.835925     13.671850
     -2.047047      4.813180      4.813180      9.626361
     -2.037037      3.149927      3.149927      6.299855
     -2.027027      1.910847      1.910847      3.821694
     -2.017017      1.074063      1.074063      2.148126
     -2.007007      0.563132      0.563132      1.126265
     -1.996997      0.287425      0.287425      0.574849
     -1.986987      0.173755      0.173755      0.347509
     -1.976977      0.184443      0.184443      0.368885
     -1.966967      0.324966      0.324966      0.649932
     -1.956957      0.645175      0.645175      1.290350
     -1.946947      1.234036      1.234036      2.468073
     -1.936937      2.203705      2.203705      4.407410
     -1.926927      3.658782      3.658782      7.317565
     -1.916917      5.652899      5.652899     11.305798
     -1.906907      8.144812      8.144812     16.289624
     -1.896897     10.973441     10.973441     21.946882
     -1.886887     13.868797     13.868797     27.737594
     -1.876877     16.502364     16.502364     33.004728
     -1.866867     18.563276     18.563276     37.126552
     -1.856857     19.835873     19.835873     39.671745
     -1.846847     20.254621     20.254621     40.509242
     -1.836837     19.920089     19.920089     39.840177
     -1.826827     19.068574     19.068574     38.137148
     -1.816817     17.998048     17.998048     35.996096
     -1.806807     16.968317     16.968317     33.936633
     -1.796797     16.111602     16.111602     32.223204
     -1.786787     15.397265     15.397265     30.794530
     -1.776777     14.676505     14.676505     29.353011
     -1.766767     13.791744     13.791744     27.583487
     -1.756757     12.694908     12.694908     25.389815
     -1.746747     11.508151     11.508151     23.016302
     -1.736737     10.489993     10.489993     20.979986
     -1.726727      9.922225      9.922225     19.844451
     -1.716717      9.976443      9.976443     19.952887
     -1.706707     10.629515     10.629515     21.259030
     -1.696697     11.670967     11.670967     23.341934
     -1.686687     12.797085     12.797085     25.594169
     -1.676677     13.741003     13.741003     27.482006
     -1.666667     14.368961     14.368961     28.737922
     -1.656657     14.692635     14.692635     29.385270
     -1.646647     14.797794     14.797794     29.595588
     -1.636637     14.741416     14.741416     29.482831
     -1.626627     14.488919     14.488919     28.977839
