# EIG2DOS: Utility for SIESTA to obtain the electronic density of states
#  E. Artacho, Apr 1999, A. Garcia, Apr 2012
#  Nick R. Papior, Feb 2017
# ------------------------------------------
# Eigenvalues calculated from a non-polarized calculation
# Eigenvalues read from siesta.EIG
# Kpoint weights read from siesta.KP
# Using smearing parameter:   0.0500
# Using 1000 points in the energy range
# Selected bands: 1 to: 2981
# Emin, Emax in file for selected band(s):    -27.1620293    218.3443030
# Nbands, Nspin, Nk   =   2981     1     1
# E_F                 =    -4.2630 eV --> (shifted to ZERO)
# Broadening          =     0.0500 eV
#
#        E            N(up)  (=)   N(down)         Ntot
     -5.000000     35.874585     35.874585     71.749170
     -4.989990     38.951025     38.951025     77.902050
     -4.979980     41.546279     41.546279     83.092558
     -4.969970     43.170562     43.170562     86.341124
     -4.959960     43.496904     43.496904     86.993808
     -4.949950     42.445301     42.445301     84.890602
     -4.939940     40.204110     40.204110     80.408220
     -4.929930     37.197178     37.197178     74.394357
     -4.919920     34.021654     34.021654     68.043308
     -4.909910     31.375883     31.375883     62.751766
     -4.899900     29.974163     29.974163     59.948327
     -4.889890     30.426399     30.426399     60.852797
     -4.879880     33.070592     33.070592     66.141183
     -4.869870     37.791060     37.791060     75.582120
     -4.859860     43.908485     43.908485     87.816970
     -4.849850     50.241324     50.241324    100.482648
     -4.839840     55.379875     55.379875    110.759750
     -4.829830     58.103014     58.103014    116.206029
     -4.819820     57.770766     57.770766    115.541532
     -4.809810     54.514597     54.514597    109.029194
     -4.799800     49.140495     49.140495     98.280990
     -4.789790     42.803653     42.803653     85.607307
     -4.779780     36.617794     36.617794     73.235589
     -4.769770     31.366658     31.366658     62.733316
     -4.759760     27.401495     27.401495     54.802990
     -4.749750     24.702965     24.702965     49.405930
     -4.739740     23.023728     23.023728     46.047455
     -4.729730     22.028670     22.028670     44.057340
     -4.719720     21.388148     21.388148     42.776295
     -4.709710     20.820367     20.820367     41.640735
     -4.699700     20.103340     20.103340     40.206680
     -4.689690     19.083584     19.083584     38.167167
     -4.679680     17.701455     17.701455     35.402911
     -4.669670     16.034719     16.034719     32.069439
     -4.659660     14.340184     14.340184     28.680367
     -4.649650     13.060593     13.060593     26.121186
     -4.639640     12.769496     12.769496     25.538993
     -4.629630     14.048161     14.048161     28.096322
     -4.619620     17.315560     17.315560     34.631121
     -4.609610     22.656335     22.656335     45.312671
     -4.599600     29.707193     29.707193     59.414385
     -4.589590     37.661978     37.661978     75.323957
     -4.579580     45.428403     45.428403     90.856805
     -4.569570     51.912438     51.912438    103.824876
     -4.559560     56.339685     56.339685    112.679370
     -4.549550     58.485614     58.485614    116.971228
     -4.539540     58.710938     58.710938    117.421876
     -4.529530     57.781533     57.781533    115.563065
     -4.519520     56.551594     56.551594    113.103188
     -4.509510     55.648266     55.648266    111.296532
     -4.499499     55.284163     55.284163    110.568325
     -4.489489     55.253270     55.253270    110.506540
     -4.479479     55.079867     55.079867    110.159734
     -4.469469     54.234416     54.234416    108.468833
     -4.459459     52.324664     52.324664    104.649328
     -4.449449     49.204053     49.204053     98.408106
     -4.439439     44.986834     44.986834     89.973667
     -4.429429     39.996141     39.996141     79.992281
     -4.419419     34.685528     34.685528     69.371055
     -4.409409     29.565544     29.565544     59.131088
     -4.399399     25.144189     25.144189     50.288378
     -4.389389     21.869585     21.869585     43.739171
     -4.379379     20.060736     20.060736     40.121472
     -4.369369     19.831362     19.831362     39.662724
     -4.359359     21.038061     21.038061     42.076122
     -4.349349     23.293346     23.293346     46.586691
     -4.339339     26.062642     26.062642     52.125285
     -4.329329     28.821494     28.821494     57.642988
     -4.319319     31.212808     31.212808     62.425617
     -4.309309     33.138852     33.138852     66.277705
     -4.299299     34.751795     34.751795     69.503589
     -4.289289     36.350227     36.350227     72.700454
     -4.279279     38.222354     38.222354     76.444707
     -4.269269     40.488922     40.488922     80.977844
     -4.259259     42.996908     42.996908     85.993816
     -4.249249     45.306831     45.306831     90.613663
     -4.239239     46.798367     46.798367     93.596734
     -4.229229     46.880013     46.880013     93.760026
     -4.219219     45.233525     45.233525     90.467049
     -4.209209     41.984001     41.984001     83.968002
     -4.199199     37.700810     37.700810     75.401621
     -4.189189     33.211527     33.211527     66.423054
     -4.179179     29.310592     29.310592     58.621184
     -4.169169     26.502272     26.502272     53.004544
     -4.159159     24.895165     24.895165     49.790329
     -4.149149     24.279625     24.279625     48.559251
     -4.139139     24.325800     24.325800     48.651600
     -4.129129     24.789654     24.789654     49.579307
     -4.119119     25.623911     25.623911     51.247822
     -4.109109     26.944443     26.944443     53.888887
     -4.099099     28.873469     28.873469     57.746938
     -4.089089     31.343617     31.343617     62.687235
     -4.079079     33.976673     33.976673     67.953347
     -4.069069     36.126213     36.126213     72.252426
     -4.059059     37.093055     37.093055     74.186110
     -4.049049     36.422069     36.422069     72.844138
     -4.039039     34.129600     34.129600     68.259201
     -4.029029     30.738131     30.738131     61.476262
     -4.019019     27.098635     27.098635     54.197270
     -4.009009     24.096418     24.096418     48.192835
     -3.998999     22.388995     22.388995     44.777991
     -3.988989     22.285699     22.285699     44.571398
     -3.978979     23.782857     23.782857     47.565714
     -3.968969     26.684161     26.684161     53.368322
     -3.958959     30.714485     30.714485     61.428970
     -3.948949     35.577418     35.577418     71.154836
     -3.938939     40.968257     40.968257     81.936515
     -3.928929     46.584894     46.584894     93.169789
     -3.918919     52.160889     52.160889    104.321778
     -3.908909     57.502347     57.502347    115.004693
     -3.898899     62.485479     62.485479    124.970958
     -3.888889     66.989662     66.989662    133.979323
     -3.878879     70.789829     70.789829    141.579658
     -3.868869     73.475795     73.475795    146.951591
     -3.858859     74.470881     74.470881    148.941762
     -3.848849     73.179233     73.179233    146.358466
     -3.838839     69.221211     69.221211    138.442421
     -3.828829     62.657721     62.657721    125.315441
     -3.818819     54.092932     54.092932    108.185865
     -3.808809     44.591442     44.591442     89.182883
     -3.798799     35.428159     35.428159     70.856318
     -3.788789     27.762628     27.762628     55.525256
     -3.778779     22.356028     22.356028     44.712055
     -3.768769     19.420940     19.420940     38.841881
     -3.758759     18.634575     18.634575     37.269150
     -3.748749     19.289631     19.289631     38.579261
     -3.738739     20.524800     20.524800     41.049601
     -3.728729     21.569993     21.569993     43.139986
     -3.718719     21.949074     21.949074     43.898149
     -3.708709     21.595964     21.595964     43.191928
     -3.698699     20.856050     20.856050     41.712100
     -3.688689     20.366797     20.366797     40.733595
     -3.678679     20.840908     20.840908     41.681815
     -3.668669     22.808535     22.808535     45.617070
     -3.658659     26.400204     26.400204     52.800407
     -3.648649     31.252554     31.252554     62.505107
     -3.638639     36.583258     36.583258     73.166516
     -3.628629     41.415626     41.415626     82.831253
     -3.618619     44.866933     44.866933     89.733867
     -3.608609     46.386201     46.386201     92.772402
     -3.598599     45.857345     45.857345     91.714691
     -3.588589     43.554174     43.554174     87.108347
     -3.578579     39.998651     39.998651     79.997303
     -3.568569     35.795261     35.795261     71.590522
     -3.558559     31.492065     31.492065     62.984131
     -3.548549     27.485383     27.485383     54.970766
     -3.538539     23.969818     23.969818     47.939637
     -3.528529     20.939382     20.939382     41.878763
     -3.518519     18.246165     18.246165     36.492330
     -3.508509     15.704815     15.704815     31.409630
     -3.498498     13.204188     13.204188     26.408375
     -3.488488     10.777292     10.777292     21.554584
     -3.478478      8.599939      8.599939     17.199877
     -3.468468      6.924624      6.924624     13.849248
     -3.458458      5.983723      5.983723     11.967445
     -3.448448      5.900520      5.900520     11.801040
     -3.438438      6.634427      6.634427     13.268854
     -3.428428      7.973297      7.973297     15.946593
     -3.418418      9.578010      9.578010     19.156020
     -3.408408     11.075979     11.075979     22.151957
     -3.398398     12.183269     12.183269     24.366538
     -3.388388     12.814465     12.814465     25.628930
     -3.378378     13.132157     13.132157     26.264314
     -3.368368     13.507176     13.507176     27.014353
     -3.358358     14.400111     14.400111     28.800222
     -3.348348     16.209833     16.209833     32.419665
     -3.338338     19.142596     19.142596     38.285193
     -3.328328     23.134171     23.134171     46.268342
     -3.318318     27.829217     27.829217     55.658433
     -3.308308     32.611591     32.611591     65.223182
     -3.298298     36.689229     36.689229     73.378458
     -3.288288     39.244470     39.244470     78.488940
     -3.278278     39.639670     39.639670     79.279340
     -3.268268     37.622457     37.622457     75.244915
     -3.258258     33.442553     33.442553     66.885107
     -3.248248     27.811599     27.811599     55.623198
     -3.238238     21.708551     21.708551     43.417102
     -3.228228     16.110279     16.110279     32.220559
     -3.218218     11.756453     11.756453     23.512906
     -3.208208      9.024106      9.024106     18.048211
     -3.198198      7.922866      7.922866     15.845733
     -3.188188      8.174862      8.174862     16.349723
     -3.178178      9.336422      9.336422     18.672844
     -3.168168     10.936599     10.936599     21.873198
     -3.158158     12.618615     12.618615     25.237229
     -3.148148     14.259203     14.259203     28.518406
     -3.138138     16.020833     16.020833     32.041666
     -3.128128     18.291590     18.291590     36.583179
     -3.118118     21.504095     21.504095     43.008190
     -3.108108     25.886850     25.886850     51.773699
     -3.098098     31.253870     31.253870     62.507740
     -3.088088     36.944359     36.944359     73.888718
     -3.078078     41.968394     41.968394     83.936788
     -3.068068     45.317435     45.317435     90.634871
     -3.058058     46.309422     46.309422     92.618844
     -3.048048     44.811115     44.811115     89.622229
     -3.038038     41.238502     41.238502     82.477003
     -3.028028     36.351094     36.351094     72.702189
     -3.018018     30.959919     30.959919     61.919837
     -3.008008     25.698761     25.698761     51.397522
     -2.997998     20.950396     20.950396     41.900792
     -2.987988     16.918984     16.918984     33.837969
     -2.977978     13.763793     13.763793     27.527586
     -2.967968     11.697597     11.697597     23.395194
     -2.957958     10.995775     10.995775     21.991550
     -2.947948     11.919262     11.919262     23.838525
     -2.937938     14.592567     14.592567     29.185134
     -2.927928     18.889467     18.889467     37.778935
     -2.917918     24.373802     24.373802     48.747604
     -2.907908     30.329025     30.329025     60.658050
     -2.897898     35.886517     35.886517     71.773034
     -2.887888     40.227298     40.227298     80.454595
     -2.877878     42.794622     42.794622     85.589244
     -2.867868     43.436781     43.436781     86.873562
     -2.857858     42.417559     42.417559     84.835119
     -2.847848     40.284569     40.284569     80.569138
     -2.837838     37.649420     37.649420     75.298840
     -2.827828     34.975027     34.975027     69.950055
     -2.817818     32.460820     32.460820     64.921641
     -2.807808     30.066802     30.066802     60.133603
     -2.797798     27.647644     27.647644     55.295289
     -2.787788     25.114975     25.114975     50.229949
     -2.777778     22.537795     22.537795     45.075589
     -2.767768     20.131584     20.131584     40.263167
     -2.757758     18.152992     18.152992     36.305984
     -2.747748     16.771474     16.771474     33.542949
     -2.737738     15.999865     15.999865     31.999730
     -2.727728     15.725886     15.725886     31.451772
     -2.717718     15.819651     15.819651     31.639302
     -2.707708     16.240558     16.240558     32.481116
     -2.697698     17.065490     17.065490     34.130980
     -2.687688     18.412744     18.412744     36.825489
     -2.677678     20.309820     20.309820     40.619640
     -2.667668     22.598079     22.598079     45.196159
     -2.657658     24.949619     24.949619     49.899237
     -2.647648     26.999371     26.999371     53.998742
     -2.637638     28.516104     28.516104     57.032208
     -2.627628     29.505653     29.505653     59.011306
     -2.617618     30.182117     30.182117     60.364234
     -2.607608     30.828972     30.828972     61.657944
     -2.597598     31.639985     31.639985     63.279970
     -2.587588     32.631340     32.631340     65.262680
     -2.577578     33.655709     33.655709     67.311418
     -2.567568     34.478597     34.478597     68.957195
     -2.557558     34.852624     34.852624     69.705249
     -2.547548     34.558148     34.558148     69.116296
     -2.537538     33.429283     33.429283     66.858566
     -2.527528     31.401544     31.401544     62.803089
     -2.517518     28.585528     28.585528     57.171057
     -2.507508     25.322827     25.322827     50.645655
     -2.497497     22.163855     22.163855     44.327711
     -2.487487     19.742029     19.742029     39.484057
     -2.477477     18.581071     18.581071     37.162142
     -2.467467     18.918291     18.918291     37.836582
     -2.457457     20.627112     20.627112     41.254224
     -2.447447     23.278207     23.278207     46.556414
     -2.437437     26.314792     26.314792     52.629584
     -2.427427     29.264738     29.264738     58.529475
     -2.417417     31.893983     31.893983     63.787965
     -2.407407     34.231411     34.231411     68.462821
     -2.397397     36.454900     36.454900     72.909800
     -2.387387     38.695284     38.695284     77.390569
     -2.377377     40.857699     40.857699     81.715398
     -2.367367     42.556560     42.556560     85.113121
     -2.357357     43.210259     43.210259     86.420517
     -2.347347     42.265512     42.265512     84.531023
     -2.337337     39.454708     39.454708     78.909417
     -2.327327     34.967568     34.967568     69.935135
     -2.317317     29.456006     29.456006     58.912013
     -2.307307     23.869975     23.869975     47.739950
     -2.297297     19.198016     19.198016     38.396032
     -2.287287     16.217931     16.217931     32.435862
     -2.277277     15.339678     15.339678     30.679357
     -2.267267     16.568733     16.568733     33.137467
     -2.257257     19.569441     19.569441     39.138883
     -2.247247     23.784745     23.784745     47.569491
     -2.237237     28.568476     28.568476     57.136953
     -2.227227     33.296585     33.296585     66.593170
     -2.217217     37.437044     37.437044     74.874088
     -2.207207     40.575133     40.575133     81.150266
     -2.197197     42.410540     42.410540     84.821081
     -2.187187     42.755931     42.755931     85.511861
     -2.177177     41.560580     41.560580     83.121161
     -2.167167     38.954835     38.954835     77.909671
     -2.157157     35.278063     35.278063     70.556126
     -2.147147     31.042437     31.042437     62.084874
     -2.137137     26.813936     26.813936     53.627872
     -2.127127     23.046818     23.046818     46.093637
     -2.117117     19.949724     19.949724     39.899448
     -2.107107     17.455352     17.455352     34.910705
     -2.097097     15.310359     15.310359     30.620719
     -2.087087     13.234050     13.234050     26.468099
     -2.077077     11.059845     11.059845     22.119689
     -2.067067      8.793097      8.793097     17.586194
     -2.057057      6.574240      6.574240     13.148480
     -2.047047      4.587704      4.587704      9.175408
     -2.037037      2.974420      2.974420      5.948840
     -2.027027      1.787234      1.787234      3.574467
     -2.017017      0.995148      0.995148      1.990295
     -2.007007      0.517586      0.517586      1.035172
     -1.996997      0.264250      0.264250      0.528499
     -1.986987      0.164950      0.164950      0.329900
     -1.976977      0.185974      0.185974      0.371949
     -1.966967      0.336738      0.336738      0.673477
     -1.956957      0.670544      0.670544      1.341088
     -1.946947      1.278962      1.278962      2.557923
     -1.936937      2.275313      2.275313      4.550626
     -1.926927      3.763191      3.763191      7.526383
     -1.916917      5.792610      5.792610     11.585219
     -1.906907      8.316555      8.316555     16.633110
     -1.896897     11.167770     11.167770     22.335540
     -1.886887     14.072721     14.072721     28.145441
     -1.876877     16.706172     16.706172     33.412343
     -1.866867     18.772685     18.772685     37.545369
     -1.856857     20.090466     20.090466     40.180932
     -1.846847     20.652151     20.652151     41.304302
     -1.836837     20.642245     20.642245     41.284491
     -1.826827     20.397361     20.397361     40.794722
     -1.816817     20.305903     20.305903     40.611805
     -1.806807     20.665052     20.665052     41.330103
     -1.796797     21.542249     21.542249     43.084499
     -1.786787     22.706856     22.706856     45.413712
     -1.776777     23.682169     23.682169     47.364338
     -1.766767     23.914575     23.914575     47.829149
     -1.756757     22.992218     22.992218     45.984436
     -1.746747     20.812597     20.812597     41.625194
     -1.736737     17.622400     17.622400     35.244801
     -1.726727     13.920642     13.920642     27.841284
     -1.716717     10.284545     10.284545     20.569091
     -1.706707      7.205349      7.205349     14.410699
     -1.696697      4.997209      4.997209      9.994418
     -1.686687      3.789701      3.789701      7.579403
     -1.676677      3.569428      3.569428      7.138857
     -1.666667      4.223382      4.223382      8.446763
     -1.656657      5.556600      5.556600     11.113201
     -1.646647      7.290570      7.290570     14.581140
     -1.636637      9.072814      9.072814     18.145628
     -1.626627     10.526592     10.526592     21.053184
