# EIG2DOS: Utility for SIESTA to obtain the electronic density of states
#  E. Artacho, Apr 1999, A. Garcia, Apr 2012
#  Nick R. Papior, Feb 2017
# ------------------------------------------
# Eigenvalues calculated from a non-polarized calculation
# Eigenvalues read from siesta.EIG
# Kpoint weights read from siesta.KP
# Using smearing parameter:   0.0500
# Using 1000 points in the energy range
# Selected bands: 1 to: 2981
# Emin, Emax in file for selected band(s):    -27.0880550    218.3381210
# Nbands, Nspin, Nk   =   2981     1     1
# E_F                 =    -4.2720 eV --> (shifted to ZERO)
# Broadening          =     0.0500 eV
#
#        E            N(up)  (=)   N(down)         Ntot
     -5.000000     35.875716     35.875716     71.751433
     -4.989990     38.888575     38.888575     77.777151
     -4.979980     41.561071     41.561071     83.122142
     -4.969970     43.354542     43.354542     86.709083
     -4.959960     43.873514     43.873514     87.747028
     -4.949950     42.975931     42.975931     85.951863
     -4.939940     40.811434     40.811434     81.622867
     -4.929930     37.792597     37.792597     75.585195
     -4.919920     34.526683     34.526683     69.053366
     -4.909910     31.733507     31.733507     63.467013
     -4.899900     30.152214     30.152214     60.304428
     -4.889890     30.417703     30.417703     60.835406
     -4.879880     32.893284     32.893284     65.786567
     -4.869870     37.488703     37.488703     74.977405
     -4.859860     43.546594     43.546594     87.093188
     -4.849850     49.897035     49.897035     99.794070
     -4.839840     55.125118     55.125118    110.250236
     -4.829830     57.986329     57.986329    115.972657
     -4.819820     57.805347     57.805347    115.610695
     -4.809810     54.678180     54.678180    109.356360
     -4.799800     49.387076     49.387076     98.774153
     -4.789790     43.081346     43.081346     86.162692
     -4.779780     36.884814     36.884814     73.769628
     -4.769770     31.599757     31.599757     63.199514
     -4.759760     27.595936     27.595936     55.191872
     -4.749750     24.866967     24.866967     49.733934
     -4.739740     23.171269     23.171269     46.342537
     -4.729730     22.173213     22.173213     44.346426
     -4.719720     21.538228     21.538228     43.076457
     -4.709710     20.977159     20.977159     41.954319
     -4.699700     20.260010     20.260010     40.520020
     -4.689690     19.225779     19.225779     38.451558
     -4.679680     17.807790     17.807790     35.615580
     -4.669670     16.076513     16.076513     32.153026
     -4.659660     14.281378     14.281378     28.562756
     -4.649650     12.860799     12.860799     25.721599
     -4.639640     12.393508     12.393508     24.787015
     -4.629630     13.482081     13.482081     26.964162
     -4.619620     16.583002     16.583002     33.166004
     -4.609610     21.821161     21.821161     43.642321
     -4.599600     28.848143     28.848143     57.696286
     -4.589590     36.814610     36.814610     73.629221
     -4.579580     44.510411     44.510411     89.020823
     -4.569570     50.670108     50.670108    101.340216
     -4.559560     54.360777     54.360777    108.721554
     -4.549550     55.306340     55.306340    110.612679
     -4.539540     54.003580     54.003580    108.007159
     -4.529530     51.561589     51.561589    103.123177
     -4.519520     49.313971     49.313971     98.627941
     -4.509510     48.351545     48.351545     96.703091
     -4.499499     49.154491     49.154491     98.308981
     -4.489489     51.456617     51.456617    102.913235
     -4.479479     54.377504     54.377504    108.755008
     -4.469469     56.755045     56.755045    113.510090
     -4.459459     57.542685     57.542685    115.085369
     -4.449449     56.125709     56.125709    112.251417
     -4.439439     52.459204     52.459204    104.918409
     -4.429429     47.012507     47.012507     94.025014
     -4.419419     40.581648     40.581648     81.163295
     -4.409409     34.066153     34.066153     68.132307
     -4.399399     28.287732     28.287732     56.575465
     -4.389389     23.877551     23.877551     47.755102
     -4.379379     21.215687     21.215687     42.431374
     -4.369369     20.398609     20.398609     40.797217
     -4.359359     21.233208     21.233208     42.466416
     -4.349349     23.278759     23.278759     46.557519
     -4.339339     25.953753     25.953753     51.907507
     -4.329329     28.692225     28.692225     57.384449
     -4.319319     31.098942     31.098942     62.197884
     -4.309309     33.043039     33.043039     66.086077
     -4.299299     34.653441     34.653441     69.306882
     -4.289289     36.220288     36.220288     72.440576
     -4.279279     38.039920     38.039920     76.079840
     -4.269269     40.254913     40.254913     80.509826
     -4.259259     42.740125     42.740125     85.480251
     -4.249249     45.079098     45.079098     90.158195
     -4.239239     46.658706     46.658706     93.317412
     -4.229229     46.872629     46.872629     93.745257
     -4.219219     45.368667     45.368667     90.737335
     -4.209209     42.231383     42.231383     84.462765
     -4.199199     38.000154     38.000154     76.000307
     -4.189189     33.496078     33.496078     66.992157
     -4.179179     29.532239     29.532239     59.064479
     -4.169169     26.646140     26.646140     53.292281
     -4.159159     24.977761     24.977761     49.955521
     -4.149149     24.333632     24.333632     48.667264
     -4.139139     24.380866     24.380866     48.761732
     -4.129129     24.858974     24.858974     49.717948
     -4.119119     25.701937     25.701937     51.403874
     -4.109109     27.014950     27.014950     54.029900
     -4.099099     28.922484     28.922484     57.844968
     -4.089089     31.369944     31.369944     62.739889
     -4.079079     33.994292     33.994292     67.988584
     -4.069069     36.157060     36.157060     72.314120
     -4.059059     37.153929     37.153929     74.307858
     -4.049049     36.512961     36.512961     73.025922
     -4.039039     34.230364     34.230364     68.460729
     -4.029029     30.815874     30.815874     61.631747
     -4.019019     27.122091     27.122091     54.244182
     -4.009009     24.049638     24.049638     48.099276
     -3.998999     22.277303     22.277303     44.554606
     -3.988989     22.131551     22.131551     44.263102
     -3.978979     23.614899     23.614899     47.229798
     -3.968969     26.525842     26.525842     53.051683
     -3.958959     30.577506     30.577506     61.155013
     -3.948949     35.461358     35.461358     70.922715
     -3.938939     40.864070     40.864070     81.728140
     -3.928929     46.479175     46.479175     92.958349
     -3.918919     52.039577     52.039577    104.079155
     -3.908909     57.354574     57.354574    114.709147
     -3.898899     62.308287     62.308287    124.616574
     -3.888889     66.792541     66.792541    133.585082
     -3.878879     70.596496     70.596496    141.192992
     -3.868869     73.321206     73.321206    146.642412
     -3.858859     74.393738     74.393738    148.787476
     -3.848849     73.212291     73.212291    146.424583
     -3.838839     69.382184     69.382184    138.764368
     -3.828829     62.942949     62.942949    125.885898
     -3.818819     54.475364     54.475364    108.950727
     -3.808809     45.024156     45.024156     90.048312
     -3.798799     35.853739     35.853739     71.707478
     -3.788789     28.126610     28.126610     56.253219
     -3.778779     22.620398     22.620398     45.240797
     -3.768769     19.572939     19.572939     39.145878
     -3.758759     18.687674     18.687674     37.375349
     -3.748749     19.276682     19.276682     38.553364
     -3.738739     20.486073     20.486073     40.972145
     -3.728729     21.540116     21.540116     43.080233
     -3.718719     21.946676     21.946676     43.893351
     -3.708709     21.618699     21.618699     43.237398
     -3.698699     20.882358     20.882358     41.764717
     -3.688689     20.364070     20.364070     40.728140
     -3.678679     20.777884     20.777884     41.555768
     -3.668669     22.667983     22.667983     45.335966
     -3.658659     26.187143     26.187143     52.374286
     -3.648649     30.994411     30.994411     61.988822
     -3.638639     36.321569     36.321569     72.643138
     -3.628629     41.192895     41.192895     82.385790
     -3.618619     44.714703     44.714703     89.429405
     -3.608609     46.319412     46.319412     92.638824
     -3.598599     45.876063     45.876063     91.752127
     -3.588589     43.649455     43.649455     87.298910
     -3.578579     40.157793     40.157793     80.315586
     -3.568569     36.003767     36.003767     72.007535
     -3.558559     31.733234     31.733234     63.466467
     -3.548549     27.740328     27.740328     55.480656
     -3.538539     24.219711     24.219711     48.439422
     -3.528529     21.169067     21.169067     42.338135
     -3.518519     18.446746     18.446746     36.893493
     -3.508509     15.873471     15.873471     31.746942
     -3.498498     13.341574     13.341574     26.683148
     -3.488488     10.884405     10.884405     21.768810
     -3.478478      8.676317      8.676317     17.352634
     -3.468468      6.968598      6.968598     13.937195
     -3.458458      5.994199      5.994199     11.988398
     -3.448448      5.879251      5.879251     11.758502
     -3.438438      6.587670      6.587670     13.175341
     -3.428428      7.911998      7.911998     15.823997
     -3.418418      9.515957      9.515957     19.031914
     -3.408408     11.026052     11.026052     22.052104
     -3.398398     12.152865     12.152865     24.305729
     -3.388388     12.801896     12.801896     25.603792
     -3.378378     13.125753     13.125753     26.251505
     -3.368368     13.487705     13.487705     26.975411
     -3.358358     14.345770     14.345770     28.691540
     -3.348348     16.102258     16.102258     32.204516
     -3.338338     18.972541     18.972541     37.945082
     -3.328328     22.906064     22.906064     45.812128
     -3.318318     27.563863     27.563863     55.127725
     -3.308308     32.345541     32.345541     64.691081
     -3.298298     36.468908     36.468908     72.937816
     -3.288288     39.114200     39.114200     78.228401
     -3.278278     39.625366     39.625366     79.250731
     -3.268268     37.715090     37.715090     75.430179
     -3.258258     33.585132     33.585132     67.170265
     -3.248248     27.890148     27.890148     55.780296
     -3.238238     21.544377     21.544377     43.088755
     -3.228228     15.452075     15.452075     30.904151
     -3.218218     10.277980     10.277980     20.555960
     -3.208208      6.342270      6.342270     12.684539
     -3.198198      3.653221      3.653221      7.306441
     -3.188188      2.029549      2.029549      4.059097
     -3.178178      1.244442      1.244442      2.488884
     -3.168168      1.140794      1.140794      2.281587
     -3.158158      1.696652      1.696652      3.393305
     -3.148148      3.038655      3.038655      6.077310
     -3.138138      5.404041      5.404041     10.808083
     -3.128128      9.049855      9.049855     18.099711
     -3.118118     14.116449     14.116449     28.232897
     -3.108108     20.477301     20.477301     40.954602
     -3.098098     27.636807     27.636807     55.273614
     -3.088088     34.746741     34.746741     69.493481
     -3.078078     40.778641     40.778641     81.557282
     -3.068068     44.816409     44.816409     89.632817
     -3.058058     46.357180     46.357180     92.714361
     -3.048048     45.480589     45.480589     90.961178
     -3.038038     42.796570     42.796570     85.593140
     -3.028028     39.190067     39.190067     78.380135
     -3.018018     35.485199     35.485199     70.970398
     -3.008008     32.188389     32.188389     64.376778
     -2.997998     29.419450     29.419450     58.838899
     -2.987988     27.036128     27.036128     54.072257
     -2.977978     24.863212     24.863212     49.726424
     -2.967968     22.899315     22.899315     45.798630
     -2.957958     21.401422     21.401422     42.802844
     -2.947948     20.814149     20.814149     41.628298
     -2.937938     21.581526     21.581526     43.163052
     -2.927928     23.926158     23.926158     47.852317
     -2.917918     27.691285     27.691285     55.382569
     -2.907908     32.315912     32.315912     64.631824
     -2.897898     36.961854     36.961854     73.923709
     -2.887888     40.751480     40.751480     81.502960
     -2.877878     43.028435     43.028435     86.056869
     -2.867868     43.540616     43.540616     87.081233
     -2.857858     42.474067     42.474067     84.948134
     -2.847848     40.328543     40.328543     80.657086
     -2.837838     37.693673     37.693673     75.387347
     -2.827828     35.026656     35.026656     70.053312
     -2.817818     32.527081     32.527081     65.054161
     -2.807808     30.153379     30.153379     60.306758
     -2.797798     27.754058     27.754058     55.508115
     -2.787788     25.231784     25.231784     50.463568
     -2.777778     22.648243     22.648243     45.296485
     -2.767768     20.217184     20.217184     40.434367
     -2.757758     18.199906     18.199906     36.399813
     -2.747748     16.773737     16.773737     33.547475
     -2.737738     15.957169     15.957169     31.914338
     -2.727728     15.637111     15.637111     31.274223
     -2.717718     15.676686     15.676686     31.353371
     -2.707708     16.027995     16.027995     32.055991
     -2.697698     16.769115     16.769115     33.538229
     -2.687688     18.034166     18.034166     36.068332
     -2.677678     19.879257     19.879257     39.758514
     -2.667668     22.176011     22.176011     44.352022
     -2.657658     24.612782     24.612782     49.225564
     -2.647648     26.815379     26.815379     53.630759
     -2.637638     28.518453     28.518453     57.036906
     -2.627628     29.681706     29.681706     59.363412
     -2.617618     30.479754     30.479754     60.959508
     -2.607608     31.177357     31.177357     62.354714
     -2.597598     31.973253     31.973253     63.946507
     -2.587588     32.904847     32.904847     65.809694
     -2.577578     33.851009     33.851009     67.702018
     -2.567568     34.599924     34.599924     69.199847
     -2.557558     34.919900     34.919900     69.839801
     -2.547548     34.599488     34.599488     69.198976
     -2.537538     33.473094     33.473094     66.946189
     -2.527528     31.467882     31.467882     62.935765
     -2.517518     28.678330     28.678330     57.356661
     -2.507508     25.426543     25.426543     50.853087
     -2.497497     22.247408     22.247408     44.494816
     -2.487487     19.769900     19.769900     39.539801
     -2.477477     18.527617     18.527617     37.055234
     -2.467467     18.779428     18.779428     37.558856
     -2.457457     20.424321     20.424321     40.848642
     -2.447447     23.052900     23.052900     46.105800
     -2.437437     26.115157     26.115157     52.230313
     -2.427427     29.130503     29.130503     58.261005
     -2.417417     31.845573     31.845573     63.691146
     -2.407407     34.267842     34.267842     68.535684
     -2.397397     36.560321     36.560321     73.120641
     -2.387387     38.849662     38.849662     77.699324
     -2.377377     41.045416     41.045416     82.090831
     -2.367367     42.768738     42.768738     85.537476
     -2.357357     43.441038     43.441038     86.882076
     -2.347347     42.506266     42.506266     85.012533
     -2.337337     39.690869     39.690869     79.381738
     -2.327327     35.180229     35.180229     70.360458
     -2.317317     29.626885     29.626885     59.253769
     -2.307307     23.986214     23.986214     47.972427
     -2.297297     19.253993     19.253993     38.507987
     -2.287287     16.213716     16.213716     32.427433
     -2.277277     15.278088     15.278088     30.556176
     -2.267267     16.453542     16.453542     32.907084
     -2.257257     19.406097     19.406097     38.812194
     -2.247247     23.582977     23.582977     47.165953
     -2.237237     28.344808     28.344808     56.689615
     -2.227227     33.074672     33.074672     66.149344
     -2.217217     37.244836     37.244836     74.489672
     -2.207207     40.439392     40.439392     80.878785
     -2.197197     42.350431     42.350431     84.700862
     -2.187187     42.777763     42.777763     85.555527
     -2.177177     41.655495     41.655495     83.310989
     -2.167167     39.100440     39.100440     78.200880
     -2.157157     35.444043     35.444043     70.888086
     -2.147147     31.198838     31.198838     62.397676
     -2.137137     26.939578     26.939578     53.879156
     -2.127127     23.134733     23.134733     46.269467
     -2.117117     20.007338     20.007338     40.014677
     -2.107107     17.499313     17.499313     34.998626
     -2.097097     15.358389     15.358389     30.716778
     -2.087087     13.297573     13.297573     26.595146
     -2.077077     11.140483     11.140483     22.280967
     -2.067067      8.883910      8.883910     17.767820
     -2.057057      6.664193      6.664193     13.328386
     -2.047047      4.666653      4.666653      9.333305
     -2.037037      3.036345      3.036345      6.072690
     -2.027027      1.830928      1.830928      3.661856
     -2.017017      1.022951      1.022951      2.045901
     -2.007007      0.533369      0.533369      1.066737
     -1.996997      0.271635      0.271635      0.543271
     -1.986987      0.166173      0.166173      0.332345
     -1.976977      0.181304      0.181304      0.362608
     -1.966967      0.324253      0.324253      0.648507
     -1.956957      0.646200      0.646200      1.292401
     -1.946947      1.237154      1.237154      2.474308
     -1.936937      2.210225      2.210225      4.420451
     -1.926927      3.670996      3.670996      7.341992
     -1.916917      5.673983      5.673983     11.347966
     -1.906907      8.178329      8.178329     16.356659
     -1.896897     11.022219     11.022219     22.044439
     -1.886887     13.933278     13.933278     27.866556
     -1.876877     16.579015     16.579015     33.158029
     -1.866867     18.644152     18.644152     37.288303
     -1.856857     19.910516     19.910516     39.821031
     -1.846847     20.315065     20.315065     40.630129
     -1.836837     19.969049     19.969049     39.938097
     -1.826827     19.130567     19.130567     38.261134
     -1.816817     18.133277     18.133277     36.266553
     -1.806807     17.288753     17.288753     34.577506
     -1.796797     16.795872     16.795872     33.591745
     -1.786787     16.694835     16.694835     33.389670
     -1.776777     16.884864     16.884864     33.769728
     -1.766767     17.189688     17.189688     34.379375
     -1.756757     17.428455     17.428455     34.856910
     -1.746747     17.454320     17.454320     34.908640
     -1.736737     17.155892     17.155892     34.311784
     -1.726727     16.449569     16.449569     32.899137
     -1.716717     15.294425     15.294425     30.588850
     -1.706707     13.733453     13.733453     27.466906
     -1.696697     11.931407     11.931407     23.862813
     -1.686687     10.170009     10.170009     20.340019
     -1.676677      8.783171      8.783171     17.566343
     -1.666667      8.050374      8.050374     16.100748
     -1.656657      8.091175      8.091175     16.182350
     -1.646647      8.806074      8.806074     17.612147
     -1.636637      9.892026      9.892026     19.784053
     -1.626627     10.933956     10.933956     21.867912
