# EIG2DOS: Utility for SIESTA to obtain the electronic density of states
#  E. Artacho, Apr 1999, A. Garcia, Apr 2012
#  Nick R. Papior, Feb 2017
# ------------------------------------------
# Eigenvalues calculated from a non-polarized calculation
# Eigenvalues read from siesta.EIG
# Kpoint weights read from siesta.KP
# Using smearing parameter:   0.0500
# Using 1000 points in the energy range
# Selected bands: 1 to: 2981
# Emin, Emax in file for selected band(s):    -27.0742671    218.3261790
# Nbands, Nspin, Nk   =   2981     1     1
# E_F                 =    -4.2853 eV --> (shifted to ZERO)
# Broadening          =     0.0500 eV
#
#        E            N(up)  (=)   N(down)         Ntot
     -5.000000     37.931367     37.931367     75.862734
     -4.989990     39.972376     39.972376     79.944751
     -4.979980     41.597276     41.597276     83.194551
     -4.969970     42.463161     42.463161     84.926322
     -4.959960     42.333678     42.333678     84.667355
     -4.949950     41.146342     41.146342     82.292684
     -4.939940     39.036888     39.036888     78.073777
     -4.929930     36.330418     36.330418     72.660837
     -4.919920     33.514403     33.514403     67.028807
     -4.909910     31.198573     31.198573     62.397145
     -4.899900     30.048238     30.048238     60.096477
     -4.889890     30.666375     30.666375     61.332750
     -4.879880     33.414985     33.414985     66.829971
     -4.869870     38.213594     38.213594     76.427187
     -4.859860     44.407808     44.407808     88.815617
     -4.849850     50.816219     50.816219    101.632438
     -4.839840     56.004414     56.004414    112.008829
     -4.829830     58.716870     58.716870    117.433740
     -4.819820     58.291184     58.291184    116.582367
     -4.809810     54.863178     54.863178    109.726355
     -4.799800     49.269257     49.269257     98.538514
     -4.789790     42.707043     42.707043     85.414087
     -4.779780     36.327781     36.327781     72.655562
     -4.769770     30.938052     30.938052     61.876105
     -4.759760     26.897198     26.897198     53.794397
     -4.749750     24.184272     24.184272     48.368544
     -4.739740     22.544924     22.544924     45.089847
     -4.729730     21.633052     21.633052     43.266104
     -4.719720     21.104469     21.104469     42.208938
     -4.709710     20.660947     20.660947     41.321894
     -4.699700     20.064778     20.064778     40.129557
     -4.689690     19.148770     19.148770     38.297541
     -4.679680     17.840253     17.840253     35.680505
     -4.669670     16.202273     16.202273     32.404546
     -4.659660     14.475202     14.475202     28.950405
     -4.649650     13.088304     13.088304     26.176608
     -4.639640     12.613119     12.613119     25.226239
     -4.629630     13.648444     13.648444     27.296888
     -4.619620     16.651564     16.651564     33.303128
     -4.609610     21.754797     21.754797     43.509593
     -4.599600     28.626180     28.626180     57.252359
     -4.589590     36.441282     36.441282     72.882565
     -4.579580     44.015593     44.015593     88.031185
     -4.569570     50.094520     50.094520    100.189039
     -4.559560     53.723972     53.723972    107.447943
     -4.549550     54.567054     54.567054    109.134109
     -4.539540     53.032466     53.032466    106.064932
     -4.529530     50.148982     50.148982    100.297965
     -4.519520     47.226726     47.226726     94.453452
     -4.509510     45.434220     45.434220     90.868441
     -4.499499     45.446479     45.446479     90.892957
     -4.489489     47.276872     47.276872     94.553744
     -4.479479     50.324194     50.324194    100.648388
     -4.469469     53.589655     53.589655    107.179311
     -4.459459     55.976627     55.976627    111.953254
     -4.449449     56.582788     56.582788    113.165576
     -4.439439     54.915649     54.915649    109.831299
     -4.429429     50.992048     50.992048    101.984095
     -4.419419     45.312341     45.312341     90.624682
     -4.409409     38.727902     38.727902     77.455805
     -4.399399     32.241778     32.241778     64.483557
     -4.389389     26.791683     26.791683     53.583366
     -4.379379     23.061401     23.061401     46.122802
     -4.369369     21.356973     21.356973     42.713946
     -4.359359     21.572682     21.572682     43.145365
     -4.349349     23.256890     23.256890     46.513779
     -4.339339     25.764379     25.764379     51.528758
     -4.329329     28.452812     28.452812     56.905623
     -4.319319     30.860435     30.860435     61.720870
     -4.309309     32.806238     32.806238     65.612475
     -4.299299     34.384460     34.384460     68.768920
     -4.289289     35.866288     35.866288     71.732576
     -4.279279     37.550248     37.550248     75.100496
     -4.269269     39.609712     39.609712     79.219425
     -4.259259     41.979758     41.979758     83.959516
     -4.249249     44.319306     44.319306     88.638611
     -4.239239     46.076309     46.076309     92.152619
     -4.229229     46.658433     46.658433     93.316866
     -4.219219     45.662687     45.662687     91.325374
     -4.209209     43.068277     43.068277     86.136555
     -4.199199     39.290053     39.290053     78.580106
     -4.189189     35.048650     35.048650     70.097300
     -4.179179     31.111139     31.111139     62.222278
     -4.169169     28.029414     28.029414     56.058829
     -4.159159     26.002144     26.002144     52.004288
     -4.149149     24.912495     24.912495     49.824991
     -4.139139     24.498523     24.498523     48.997047
     -4.129129     24.552178     24.552178     49.104356
     -4.119119     25.040932     25.040932     50.081864
     -4.109109     26.092412     26.092412     52.184825
     -4.099099     27.851375     27.851375     55.702750
     -4.089089     30.284118     30.284118     60.568237
     -4.079079     33.042591     33.042591     66.085181
     -4.069069     35.484901     35.484901     70.969802
     -4.059059     36.874641     36.874641     73.749282
     -4.049049     36.679033     36.679033     73.358066
     -4.039039     34.816822     34.816822     69.633644
     -4.029029     31.722682     31.722682     63.445365
     -4.019019     28.193858     28.193858     56.387716
     -4.009009     25.105001     25.105001     50.210003
     -3.998999     23.140172     23.140172     46.280344
     -3.988989     22.659414     22.659414     45.318828
     -3.978979     23.721366     23.721366     47.442733
     -3.968969     26.193855     26.193855     52.387709
     -3.958959     29.858691     29.858691     59.717382
     -3.948949     34.459240     34.459240     68.918479
     -3.938939     39.704630     39.704630     79.409261
     -3.928929     45.278341     45.278341     90.556682
     -3.918919     50.879751     50.879751    101.759501
     -3.908909     56.279297     56.279297    112.558594
     -3.898899     61.336586     61.336586    122.673172
     -3.888889     65.945180     65.945180    131.890360
     -3.878879     69.919446     69.919446    139.838892
     -3.868869     72.891111     72.891111    145.782222
     -3.858859     74.298192     74.298192    148.596385
     -3.848849     73.511628     73.511628    147.023256
     -3.838839     70.071610     70.071610    140.143220
     -3.828829     63.936020     63.936020    127.872040
     -3.818819     55.619413     55.619413    111.238825
     -3.808809     46.141499     46.141499     92.282998
     -3.798799     36.789982     36.789982     73.579965
     -3.788789     28.786383     28.786383     57.572767
     -3.778779     22.980109     22.980109     45.960219
     -3.768769     19.671986     19.671986     39.343972
     -3.758759     18.606773     18.606773     37.213547
     -3.748749     19.112491     19.112491     38.224982
     -3.738739     20.328087     20.328087     40.656174
     -3.728729     21.452706     21.452706     42.905413
     -3.718719     21.957841     21.957841     43.915681
     -3.708709     21.716925     21.716925     43.433849
     -3.698699     21.022418     21.022418     42.044837
     -3.688689     20.481073     20.481073     40.962146
     -3.678679     20.806671     20.806671     41.613342
     -3.668669     22.563052     22.563052     45.126104
     -3.658659     25.937500     25.937500     51.875001
     -3.648649     30.628777     30.628777     61.257555
     -3.638639     35.902133     35.902133     71.804266
     -3.628629     40.799580     40.799580     81.599159
     -3.618619     44.425054     44.425054     88.850108
     -3.608609     46.190327     46.190327     92.380654
     -3.598599     45.932219     45.932219     91.864439
     -3.588589     43.880553     43.880553     87.761105
     -3.578579     40.524083     40.524083     81.048166
     -3.568569     36.447648     36.447648     72.895295
     -3.558559     32.193772     32.193772     64.387543
     -3.548549     28.166983     28.166983     56.333965
     -3.538539     24.581527     24.581527     49.163054
     -3.528529     21.456879     21.456879     42.913758
     -3.518519     18.668482     18.668482     37.336965
     -3.508509     16.045409     16.045409     32.090818
     -3.498498     13.479719     13.479719     26.959438
     -3.488488     10.999318     10.999318     21.998637
     -3.478478      8.772344      8.772344     17.544688
     -3.468468      7.046151      7.046151     14.092302
     -3.458458      6.052773      6.052773     12.105546
     -3.448448      5.919330      5.919330     11.838661
     -3.438438      6.610919      6.610919     13.221837
     -3.428428      7.920100      7.920100     15.840200
     -3.418418      9.508906      9.508906     19.017813
     -3.408408     11.000621     11.000621     22.001242
     -3.398398     12.101842     12.101842     24.203684
     -3.388388     12.714580     12.714580     25.429160
     -3.378378     12.989938     12.989938     25.979876
     -3.368368     13.292899     13.292899     26.585798
     -3.358358     14.086680     14.086680     28.173359
     -3.348348     15.781347     15.781347     31.562695
     -3.338338     18.601058     18.601058     37.202115
     -3.328328     22.504112     22.504112     45.008224
     -3.318318     27.160643     27.160643     54.321285
     -3.308308     31.979778     31.979778     63.959555
     -3.298298     36.187294     36.187294     72.374589
     -3.288288     38.964756     38.964756     77.929512
     -3.278278     39.644928     39.644928     79.289856
     -3.268268     37.914945     37.914945     75.829890
     -3.258258     33.942311     33.942311     67.884622
     -3.248248     28.350537     28.350537     56.701073
     -3.238238     22.037672     22.037672     44.075343
     -3.228228     15.911874     15.911874     31.823748
     -3.218218     10.657736     10.657736     21.315472
     -3.208208      6.620664      6.620664     13.241328
     -3.198198      3.828041      3.828041      7.656081
     -3.188188      2.103341      2.103341      4.206681
     -3.178178      1.206148      1.206148      2.412296
     -3.168168      0.946638      0.946638      1.893276
     -3.158158      1.253660      1.253660      2.507320
     -3.148148      2.197295      2.197295      4.394590
     -3.138138      3.971138      3.971138      7.942276
     -3.128128      6.834007      6.834007     13.668014
     -3.118118     11.009254     11.009254     22.018508
     -3.108108     16.552574     16.552574     33.105148
     -3.098098     23.224703     23.224703     46.449406
     -3.088088     30.428549     30.428549     60.857097
     -3.078078     37.268810     37.268810     74.537619
     -3.068068     42.751563     42.751563     85.503125
     -3.058058     46.071468     46.071468     92.142936
     -3.048048     46.872538     46.872538     93.745076
     -3.038038     45.359683     45.359683     90.719367
     -3.028028     42.200834     42.200834     84.401667
     -3.018018     38.263780     38.263780     76.527561
     -3.008008     34.315396     34.315396     68.630791
     -2.997998     30.822004     30.822004     61.644007
     -2.987988     27.925309     27.925309     55.850618
     -2.977978     25.572708     25.572708     51.145416
     -2.967968     23.709754     23.709754     47.419509
     -2.957958     22.426669     22.426669     44.853339
     -2.947948     21.985789     21.985789     43.971578
     -2.937938     22.718439     22.718439     45.436878
     -2.927928     24.840902     24.840902     49.681804
     -2.917918     28.278020     28.278020     56.556041
     -2.907908     32.584482     32.584482     65.168964
     -2.897898     37.014752     37.014752     74.029505
     -2.887888     40.726740     40.726740     81.453480
     -2.877878     43.040828     43.040828     86.081656
     -2.867868     43.646290     43.646290     87.292580
     -2.857858     42.667859     42.667859     85.335717
     -2.847848     40.567757     40.567757     81.135514
     -2.837838     37.932765     37.932765     75.865530
     -2.827828     35.245675     35.245675     70.491349
     -2.817818     32.741852     32.741852     65.483705
     -2.807808     30.404786     30.404786     60.809572
     -2.797798     28.083635     28.083635     56.167270
     -2.787788     25.656988     25.656988     51.313976
     -2.777778     23.150058     23.150058     46.300116
     -2.767768     20.745469     20.745469     41.490939
     -2.757758     18.692008     18.692008     37.384016
     -2.747748     17.175078     17.175078     34.350157
     -2.737738     16.232810     16.232810     32.465620
     -2.727728     15.770180     15.770180     31.540360
     -2.717718     15.658652     15.658652     31.317305
     -2.707708     15.851052     15.851052     31.702103
     -2.697698     16.428899     16.428899     32.857797
     -2.687688     17.542895     17.542895     35.085790
     -2.677678     19.280222     19.280222     38.560444
     -2.667668     21.546767     21.546767     43.093534
     -2.657658     24.049594     24.049594     48.099187
     -2.647648     26.403062     26.403062     52.806125
     -2.637638     28.300198     28.300198     56.600396
     -2.627628     29.645133     29.645133     59.290266
     -2.617618     30.566399     30.566399     61.132798
     -2.607608     31.309215     31.309215     62.618430
     -2.597598     32.081580     32.081580     64.163160
     -2.587588     32.948684     32.948684     65.897368
     -2.577578     33.822489     33.822489     67.644978
     -2.567568     34.521393     34.521393     69.042786
     -2.557558     34.838223     34.838223     69.676446
     -2.547548     34.577539     34.577539     69.155077
     -2.537538     33.574887     33.574887     67.149774
     -2.527528     31.737009     31.737009     63.474017
     -2.517518     29.116800     29.116800     58.233601
     -2.507508     25.985284     25.985284     51.970569
     -2.497497     22.835653     22.835653     45.671306
     -2.487487     20.280745     20.280745     40.561491
     -2.477477     18.868352     18.868352     37.736705
     -2.467467     18.893573     18.893573     37.787146
     -2.457457     20.297831     20.297831     40.595661
     -2.447447     22.705388     22.705388     45.410777
     -2.437437     25.583370     25.583370     51.166740
     -2.427427     28.453230     28.453230     56.906460
     -2.417417     31.057012     31.057012     62.114024
     -2.407407     33.401737     33.401737     66.803473
     -2.397397     35.661897     35.661897     71.323794
     -2.387387     37.988195     37.988195     75.976391
     -2.377377     40.318629     40.318629     80.637258
     -2.367367     42.292165     42.292165     84.584331
     -2.357357     43.321317     43.321317     86.642634
     -2.347347     42.805580     42.805580     85.611160
     -2.337337     40.396743     40.396743     80.793485
     -2.327327     36.195770     36.195770     72.391540
     -2.317317     30.789040     30.789040     61.578080
     -2.307307     25.106803     25.106803     50.213606
     -2.297297     20.167510     20.167510     40.335019
     -2.287287     16.813515     16.813515     33.627030
     -2.277277     15.529410     15.529410     31.058819
     -2.267267     16.383002     16.383002     32.766004
     -2.257257     19.076724     19.076724     38.153447
     -2.247247     23.067922     23.067922     46.135843
     -2.237237     27.710970     27.710970     55.421939
     -2.227227     32.381062     32.381062     64.762123
     -2.217217     36.552116     36.552116     73.104232
     -2.207207     39.820372     39.820372     79.640744
     -2.197197     41.890214     41.890214     83.780428
     -2.187187     42.558218     42.558218     85.116437
     -2.177177     41.728889     41.728889     83.457778
     -2.167167     39.465504     39.465504     78.931009
     -2.157157     36.038830     36.038830     72.077660
     -2.147147     31.917212     31.917212     63.834425
     -2.137137     27.665855     27.665855     55.331711
     -2.127127     23.780999     23.780999     47.561998
     -2.117117     20.536326     20.536326     41.072653
     -2.107107     17.923595     17.923595     35.847190
     -2.097097     15.719281     15.719281     31.438562
     -2.087087     13.636966     13.636966     27.273933
     -2.077077     11.480230     11.480230     22.960460
     -2.067067      9.220657      9.220657     18.441313
     -2.057057      6.977910      6.977910     13.955820
     -2.047047      4.934702      4.934702      9.869404
     -2.037037      3.244628      3.244628      6.489257
     -2.027027      1.977900      1.977900      3.955800
     -2.017017      1.117248      1.117248      2.234496
     -2.007007      0.588514      0.588514      1.177029
     -1.996997      0.301164      0.301164      0.602328
     -1.986987      0.180847      0.180847      0.361695
     -1.976977      0.188408      0.188408      0.376816
     -1.966967      0.328089      0.328089      0.656178
     -1.956957      0.648841      0.648841      1.297683
     -1.946947      1.238835      1.238835      2.477669
     -1.936937      2.209148      2.209148      4.418296
     -1.926927      3.662753      3.662753      7.325506
     -1.916917      5.651184      5.651184     11.302368
     -1.906907      8.131319      8.131319     16.262638
     -1.896897     10.941648     10.941648     21.883295
     -1.886887     13.814496     13.814496     27.628991
     -1.876877     16.426897     16.426897     32.853794
     -1.866867     18.475679     18.475679     36.951358
     -1.856857     19.752305     19.752305     39.504610
     -1.846847     20.194518     20.194518     40.389037
     -1.836837     19.900252     19.900252     39.800504
     -1.826827     19.097908     19.097908     38.195815
     -1.816817     18.075918     18.075918     36.151837
     -1.806807     17.088334     17.088334     34.176668
     -1.796797     16.270641     16.270641     32.541281
     -1.786787     15.607527     15.607527     31.215054
     -1.776777     14.976632     14.976632     29.953264
     -1.766767     14.251262     14.251262     28.502524
     -1.756757     13.405261     13.405261     26.810522
     -1.746747     12.555195     12.555195     25.110390
     -1.736737     11.909542     11.909542     23.819084
     -1.726727     11.651797     11.651797     23.303594
     -1.716717     11.827200     11.827200     23.654400
     -1.706707     12.303096     12.303096     24.606192
     -1.696697     12.829966     12.829966     25.659931
     -1.686687     13.169851     13.169851     26.339701
     -1.676677     13.217581     13.217581     26.435161
     -1.666667     13.043128     13.043128     26.086255
     -1.656657     12.829732     12.829732     25.659463
     -1.646647     12.744932     12.744932     25.489865
     -1.636637     12.822419     12.822419     25.644837
     -1.626627     12.926607     12.926607     25.853214
