# EIG2DOS: Utility for SIESTA to obtain the electronic density of states
#  E. Artacho, Apr 1999, A. Garcia, Apr 2012
#  Nick R. Papior, Feb 2017
# ------------------------------------------
# Eigenvalues calculated from a non-polarized calculation
# Eigenvalues read from siesta.EIG
# Kpoint weights read from siesta.KP
# Using smearing parameter:   0.0500
# Using 1000 points in the energy range
# Selected bands: 1 to: 2981
# Emin, Emax in file for selected band(s):    -27.3047471    218.4003410
# Nbands, Nspin, Nk   =   2981     1     1
# E_F                 =    -4.1966 eV --> (shifted to ZERO)
# Broadening          =     0.0500 eV
#
#        E            N(up)  (=)   N(down)         Ntot
     -5.000000     30.870581     30.870581     61.741161
     -4.989990     35.973916     35.973916     71.947832
     -4.979980     40.935952     40.935952     81.871904
     -4.969970     44.913959     44.913959     89.827918
     -4.959960     47.150263     47.150263     94.300526
     -4.949950     47.223743     47.223743     94.447486
     -4.939940     45.197415     45.197415     90.394830
     -4.929930     41.613687     41.613687     83.227373
     -4.919920     37.359963     37.359963     74.719926
     -4.909910     33.469665     33.469665     66.939330
     -4.899900     30.917722     30.917722     61.835445
     -4.889890     30.435807     30.435807     60.871614
     -4.879880     32.351909     32.351909     64.703818
     -4.869870     36.473124     36.473124     72.946248
     -4.859860     42.061080     42.061080     84.122159
     -4.849850     47.954063     47.954063     95.908127
     -4.839840     52.843523     52.843523    105.687046
     -4.829830     55.634005     55.634005    111.268010
     -4.819820     55.756155     55.756155    111.512310
     -4.809810     53.307519     53.307519    106.615038
     -4.799800     48.969500     48.969500     97.939001
     -4.789790     43.749652     43.749652     87.499304
     -4.779780     38.667924     38.667924     77.335849
     -4.769770     34.507535     34.507535     69.015071
     -4.759760     31.694372     31.694372     63.388745
     -4.749750     30.296590     30.296590     60.593180
     -4.739740     30.092933     30.092933     60.185865
     -4.729730     30.660154     30.660154     61.320309
     -4.719720     31.459206     31.459206     62.918412
     -4.709710     31.925902     31.925902     63.851804
     -4.699700     31.575472     31.575472     63.150944
     -4.689690     30.114160     30.114160     60.228321
     -4.679680     27.531475     27.531475     55.062950
     -4.669670     24.140111     24.140111     48.280222
     -4.659660     20.542537     20.542537     41.085075
     -4.649650     17.526094     17.526094     35.052188
     -4.639640     15.908011     15.908011     31.816023
     -4.629630     16.358995     16.358995     32.717989
     -4.619620     19.232897     19.232897     38.465794
     -4.609610     24.432619     24.432619     48.865239
     -4.599600     31.353356     31.353356     62.706711
     -4.589590     38.949940     38.949940     77.899880
     -4.579580     45.952626     45.952626     91.905251
     -4.569570     51.197710     51.197710    102.395420
     -4.559560     53.970765     53.970765    107.941529
     -4.549550     54.226375     54.226375    108.452750
     -4.539540     52.581534     52.581534    105.163068
     -4.529530     50.071954     50.071954    100.143908
     -4.519520     47.765046     47.765046     95.530093
     -4.509510     46.385573     46.385573     92.771146
     -4.499499     46.099881     46.099881     92.199762
     -4.489489     46.530427     46.530427     93.060854
     -4.479479     46.972025     46.972025     93.944051
     -4.469469     46.701611     46.701611     93.403221
     -4.459459     45.247920     45.247920     90.495841
     -4.449449     42.522964     42.522964     85.045929
     -4.439439     38.791498     38.791498     77.582996
     -4.429429     34.529189     34.529189     69.058377
     -4.419419     30.258241     30.258241     60.516482
     -4.409409     26.435181     26.435181     52.870363
     -4.399399     23.413273     23.413273     46.826546
     -4.389389     21.448167     21.448167     42.896335
     -4.379379     20.696199     20.696199     41.392398
     -4.369369     21.180581     21.180581     42.361163
     -4.359359     22.747833     22.747833     45.495665
     -4.349349     25.064907     25.064907     50.129814
     -4.339339     27.692492     27.692492     55.384984
     -4.329329     30.221889     30.221889     60.443777
     -4.319319     32.417033     32.417033     64.834066
     -4.309309     34.290979     34.290979     68.581959
     -4.299299     36.073532     36.073532     72.147065
     -4.289289     38.075127     38.075127     76.150254
     -4.279279     40.496899     40.496899     80.993798
     -4.269269     43.262784     43.262784     86.525567
     -4.259259     45.950588     45.950588     91.901176
     -4.249249     47.871920     47.871920     95.743840
     -4.239239     48.295405     48.295405     96.590810
     -4.229229     46.738209     46.738209     93.476417
     -4.219219     43.201558     43.201558     86.403116
     -4.209209     38.233523     38.233523     76.467046
     -4.199199     32.775771     32.775771     65.551541
     -4.189189     27.855382     27.855382     55.710765
     -4.179179     24.258234     24.258234     48.516469
     -4.169169     22.323488     22.323488     44.646976
     -4.159159     21.931840     21.931840     43.863681
     -4.149149     22.665758     22.665758     45.331516
     -4.139139     24.048132     24.048132     48.096265
     -4.129129     25.744653     25.744653     51.489305
     -4.119119     27.643763     27.643763     55.287526
     -4.109109     29.788297     29.788297     59.576593
     -4.099099     32.202265     32.202265     64.404530
     -4.089089     34.710757     34.710757     69.421514
     -4.079079     36.864459     36.864459     73.728918
     -4.069069     38.035886     38.035886     76.071771
     -4.059059     37.663367     37.663367     75.326735
     -4.049049     35.528225     35.528225     71.056450
     -4.039039     31.919027     31.919027     63.838053
     -4.029029     27.590983     27.590983     55.181966
     -4.019019     23.537418     23.537418     47.074837
     -4.009009     20.685099     20.685099     41.370198
     -3.998999     19.649747     19.649747     39.299493
     -3.988989     20.636963     20.636963     41.273926
     -3.978979     23.489450     23.489450     46.978900
     -3.968969     27.818126     27.818126     55.636252
     -3.958959     33.142112     33.142112     66.284225
     -3.948949     38.992503     38.992503     77.985005
     -3.938939     44.974575     44.974575     89.949149
     -3.928929     50.801951     50.801951    101.603902
     -3.918919     56.307119     56.307119    112.614239
     -3.908909     61.415293     61.415293    122.830587
     -3.898899     66.069618     66.069618    132.139236
     -3.888889     70.123757     70.123757    140.247514
     -3.878879     73.253476     73.253476    146.506951
     -3.868869     74.950278     74.950278    149.900556
     -3.858859     74.630691     74.630691    149.261382
     -3.848849     71.836956     71.836956    143.673913
     -3.838839     66.451937     66.451937    132.903874
     -3.828829     58.833995     58.833995    117.667991
     -3.818819     49.806230     49.806230     99.612460
     -3.808809     40.493537     40.493537     80.987075
     -3.798799     32.060851     32.060851     64.121702
     -3.788789     25.439785     25.439785     50.879571
     -3.778779     21.127932     21.127932     42.255864
     -3.768769     19.112886     19.112886     38.225773
     -3.758759     18.930184     18.930184     37.860369
     -3.748749     19.827792     19.827792     39.655583
     -3.738739     20.988131     20.988131     41.976262
     -3.728729     21.751677     21.751677     43.503354
     -3.718719     21.789913     21.789913     43.579827
     -3.708709     21.186557     21.186557     42.373113
     -3.698699     20.403355     20.403355     40.806710
     -3.688689     20.130949     20.130949     40.261899
     -3.678679     21.055862     21.055862     42.111724
     -3.668669     23.606510     23.606510     47.213020
     -3.658659     27.761966     27.761966     55.523932
     -3.648649     33.000616     33.000616     66.001231
     -3.638639     38.422333     38.422333     76.844667
     -3.628629     43.008030     43.008030     86.016060
     -3.618619     45.917633     45.917633     91.835267
     -3.608609     46.710072     46.710072     93.420144
     -3.598599     45.410821     45.410821     90.821642
     -3.588589     42.428583     42.428583     84.857165
     -3.578579     38.384401     38.384401     76.768801
     -3.568569     33.930515     33.930515     67.861030
     -3.558559     29.608890     29.608890     59.217780
     -3.548549     25.764674     25.764674     51.529348
     -3.538539     22.514806     22.514806     45.029612
     -3.528529     19.773721     19.773721     39.547442
     -3.518519     17.335088     17.335088     34.670175
     -3.508509     14.989280     14.989280     29.978559
     -3.498498     12.633832     12.633832     25.267663
     -3.488488     10.331462     10.331462     20.662924
     -3.478478      8.295015      8.295015     16.590029
     -3.468468      6.814376      6.814376     13.628751
     -3.458458      6.162315      6.162315     12.324629
     -3.448448      6.513690      6.513690     13.027379
     -3.438438      7.895552      7.895552     15.791104
     -3.428428     10.171635     10.171635     20.343269
     -3.418418     13.060952     13.060952     26.121904
     -3.408408     16.190591     16.190591     32.381183
     -3.398398     19.177732     19.177732     38.355463
     -3.388388     21.724201     21.724201     43.448403
     -3.378378     23.696542     23.696542     47.393084
     -3.368368     25.164221     25.164221     50.328441
     -3.358358     26.379549     26.379549     52.759098
     -3.348348     27.698956     27.698956     55.397912
     -3.338338     29.460101     29.460101     58.920201
     -3.328328     31.841660     31.841660     63.683320
     -3.318318     34.744570     34.744570     69.489140
     -3.308308     37.742977     37.742977     75.485954
     -3.298298     40.148664     40.148664     80.297328
     -3.288288     41.200369     41.200369     82.400737
     -3.278278     40.330690     40.330690     80.661380
     -3.268268     37.406740     37.406740     74.813480
     -3.258258     32.828839     32.828839     65.657677
     -3.248248     27.426054     27.426054     54.852108
     -3.238238     22.184007     22.184007     44.368014
     -3.228228     17.921838     17.921838     35.843677
     -3.218218     15.053837     15.053837     30.107673
     -3.208208     13.522485     13.522485     27.044970
     -3.198198     12.908680     12.908680     25.817359
     -3.188188     12.655394     12.655394     25.310788
     -3.178178     12.309127     12.309127     24.618253
     -3.168168     11.691876     11.691876     23.383751
     -3.158158     10.953260     10.953260     21.906521
     -3.148148     10.499585     10.499585     20.999171
     -3.138138     10.835806     10.835806     21.671611
     -3.128128     12.375931     12.375931     24.751861
     -3.118118     15.277692     15.277692     30.555384
     -3.108108     19.347025     19.347025     38.694049
     -3.098098     24.043353     24.043353     48.086705
     -3.088088     28.595205     28.595205     57.190410
     -3.078078     32.202291     32.202291     64.404583
     -3.068068     34.261157     34.261157     68.522314
     -3.058058     34.528772     34.528772     69.057544
     -3.048048     33.155128     33.155128     66.310256
     -3.038038     30.574139     30.574139     61.148279
     -3.028028     27.312858     27.312858     54.625716
     -3.018018     23.818232     23.818232     47.636464
     -3.008008     20.381850     20.381850     40.763700
     -2.997998     17.178850     17.178850     34.357701
     -2.987988     14.370767     14.370767     28.741533
     -2.977978     12.194568     12.194568     24.389136
     -2.967968     10.981066     10.981066     21.962132
     -2.957958     11.092016     11.092016     22.184032
     -2.947948     12.804583     12.804583     25.609167
     -2.937938     16.188464     16.188464     32.376928
     -2.927928     21.019227     21.019227     42.038454
     -2.917918     26.761867     26.761867     53.523734
     -2.907908     32.643952     32.643952     65.287904
     -2.897898     37.813936     37.813936     75.627872
     -2.887888     41.547433     41.547433     83.094865
     -2.877878     43.434811     43.434811     86.869622
     -2.867868     43.476810     43.476810     86.953621
     -2.857858     42.043228     42.043228     84.086456
     -2.847848     39.706217     39.706217     79.412434
     -2.837838     37.018165     37.018165     74.036330
     -2.827828     34.332318     34.332318     68.664637
     -2.817818     31.743420     31.743420     63.486840
     -2.807808     29.163814     29.163814     58.327627
     -2.797798     26.480442     26.480442     52.960885
     -2.787788     23.699112     23.699112     47.398224
     -2.777778     20.996181     20.996181     41.992362
     -2.767768     18.655822     18.655822     37.311644
     -2.757758     16.938867     16.938867     33.877734
     -2.747748     15.967243     15.967243     31.934486
     -2.737738     15.693887     15.693887     31.387774
     -2.727728     15.970577     15.970577     31.941155
     -2.717718     16.661118     16.661118     33.322235
     -2.707708     17.717234     17.717234     35.434468
     -2.697698     19.161551     19.161551     38.323102
     -2.687688     20.990467     20.990467     41.980935
     -2.677678     23.073041     23.073041     46.146081
     -2.667668     25.132717     25.132717     50.265435
     -2.657658     26.844441     26.844441     53.688881
     -2.647648     27.995814     27.995814     55.991628
     -2.637638     28.608519     28.608519     57.217037
     -2.627628     28.935912     28.935912     57.871823
     -2.617618     29.332539     29.332539     58.665079
     -2.607608     30.073347     30.073347     60.146695
     -2.597598     31.225718     31.225718     62.451437
     -2.587588     32.632208     32.632208     65.264415
     -2.577578     33.986284     33.986284     67.972568
     -2.567568     34.936690     34.936690     69.873379
     -2.557558     35.167014     35.167014     70.334027
     -2.547548     34.443666     34.443666     68.887332
     -2.537538     32.659158     32.659158     65.318316
     -2.527528     29.888629     29.888629     59.777258
     -2.517518     26.439471     26.439471     52.878943
     -2.507508     22.846974     22.846974     45.693948
     -2.497497     19.781789     19.781789     39.563578
     -2.487487     17.880902     17.880902     35.761805
     -2.477477     17.560389     17.560389     35.120778
     -2.467467     18.885770     18.885770     37.771540
     -2.457457     21.556257     21.556257     43.112513
     -2.447447     25.014134     25.014134     50.028268
     -2.437437     28.639641     28.639641     57.279281
     -2.427427     31.954275     31.954275     63.908549
     -2.417417     34.747358     34.747358     69.494716
     -2.407407     37.069558     37.069558     74.139116
     -2.397397     39.095602     39.095602     78.191203
     -2.387387     40.922814     40.922814     81.845628
     -2.377377     42.410579     42.410579     84.821158
     -2.367367     43.154335     43.154335     86.308670
     -2.357357     42.624788     42.624788     85.249576
     -2.347347     40.416244     40.416244     80.832487
     -2.337337     36.484240     36.484240     72.968480
     -2.327327     31.252076     31.252076     62.504151
     -2.317317     25.532329     25.532329     51.064659
     -2.307307     20.303355     20.303355     40.606710
     -2.297297     16.444764     16.444764     32.889528
     -2.287287     14.536635     14.536635     29.073270
     -2.277277     14.776226     14.776226     29.552453
     -2.267267     17.004453     17.004453     34.008905
     -2.257257     20.797883     20.797883     41.595766
     -2.247247     25.579033     25.579033     51.158066
     -2.237237     30.714214     30.714214     61.428427
     -2.227227     35.586914     35.586914     71.173828
     -2.217217     39.647552     39.647552     79.295104
     -2.207207     42.448080     42.448080     84.896159
     -2.197197     43.673701     43.673701     87.347403
     -2.187187     43.181292     43.181292     86.362584
     -2.177177     41.041504     41.041504     82.083008
     -2.167167     37.562282     37.562282     75.124564
     -2.157157     33.259770     33.259770     66.519540
     -2.147147     28.755185     28.755185     57.510370
     -2.137137     24.615544     24.615544     49.231088
     -2.127127     21.199995     21.199995     42.399991
     -2.117117     18.587304     18.587304     37.174608
     -2.107107     16.624997     16.624997     33.249995
     -2.097097     15.073652     15.073652     30.147303
     -2.087087     13.764264     13.764264     27.528529
     -2.077077     12.680634     12.680634     25.361268
     -2.067067     11.926483     11.926483     23.852965
     -2.057057     11.607218     11.607218     23.214436
     -2.047047     11.704798     11.704798     23.409596
     -2.037037     12.023853     12.023853     24.047706
     -2.027027     12.241911     12.241911     24.483821
     -2.017017     12.035773     12.035773     24.071546
     -2.007007     11.215469     11.215469     22.430938
     -1.996997      9.798285      9.798285     19.596570
     -1.986987      7.993701      7.993701     15.987403
     -1.976977      6.119676      6.119676     12.239351
     -1.966967      4.501153      4.501153      9.002307
     -1.956957      3.398103      3.398103      6.796206
     -1.946947      2.980959      2.980959      5.961919
     -1.936937      3.339135      3.339135      6.678271
     -1.926927      4.493683      4.493683      8.987366
     -1.916917      6.393859      6.393859     12.787718
     -1.906907      8.899206      8.899206     17.798411
     -1.896897     11.766993     11.766993     23.533986
     -1.886887     14.667324     14.667324     29.334647
     -1.876877     17.234506     17.234506     34.469013
     -1.866867     19.143761     19.143761     38.287523
     -1.856857     20.189130     20.189130     40.378259
     -1.846847     20.336728     20.336728     40.673455
     -1.836837     19.733979     19.733979     39.467958
     -1.826827     18.665752     18.665752     37.331503
     -1.816817     17.462771     17.462771     34.925541
     -1.806807     16.387493     16.387493     32.774987
     -1.796797     15.541003     15.541003     31.082005
     -1.786787     14.835984     14.835984     29.671968
     -1.776777     14.054957     14.054957     28.109913
     -1.766767     12.968924     12.968924     25.937848
     -1.756757     11.457074     11.457074     22.914147
     -1.746747      9.568159      9.568159     19.136319
     -1.736737      7.500005      7.500005     15.000010
     -1.726727      5.520312      5.520312     11.040623
     -1.716717      3.878649      3.878649      7.757298
     -1.706707      2.752225      2.752225      5.504451
     -1.696697      2.237313      2.237313      4.474626
     -1.686687      2.367615      2.367615      4.735231
     -1.676677      3.129068      3.129068      6.258136
     -1.666667      4.451651      4.451651      8.903301
     -1.656657      6.183128      6.183128     12.366256
     -1.646647      8.071348      8.071348     16.142697
     -1.636637      9.786311      9.786311     19.572621
     -1.626627     10.995496     10.995496     21.990993
