# EIG2DOS: Utility for SIESTA to obtain the electronic density of states
#  E. Artacho, Apr 1999, A. Garcia, Apr 2012
#  Nick R. Papior, Feb 2017
# ------------------------------------------
# Eigenvalues calculated from a non-polarized calculation
# Eigenvalues read from siesta.EIG
# Kpoint weights read from siesta.KP
# Using smearing parameter:   0.0500
# Using 1000 points in the energy range
# Selected bands: 1 to: 2981
# Emin, Emax in file for selected band(s):    -27.0712283    218.3276150
# Nbands, Nspin, Nk   =   2981     1     1
# E_F                 =    -4.2887 eV --> (shifted to ZERO)
# Broadening          =     0.0500 eV
#
#        E            N(up)  (=)   N(down)         Ntot
     -5.000000     40.049594     40.049594     80.099187
     -4.989990     41.647482     41.647482     83.294964
     -4.979980     42.980325     42.980325     85.960650
     -4.969970     43.814882     43.814882     87.629765
     -4.959960     43.869038     43.869038     87.738077
     -4.949950     42.940212     42.940212     85.880423
     -4.939940     41.010499     41.010499     82.020999
     -4.929930     38.295068     38.295068     76.590136
     -4.919920     35.233131     35.233131     70.466262
     -4.909910     32.438143     32.438143     64.876285
     -4.899900     30.616838     30.616838     61.233676
     -4.889890     30.448197     30.448197     60.896395
     -4.879880     32.410542     32.410542     64.821084
     -4.869870     36.577099     36.577099     73.154199
     -4.859860     42.455347     42.455347     84.910694
     -4.849850     48.978170     48.978170     97.956341
     -4.839840     54.719510     54.719510    109.439020
     -4.829830     58.301199     58.301199    116.602397
     -4.819820     58.838756     58.838756    117.677513
     -4.809810     56.225814     56.225814    112.451628
     -4.799800     51.124888     51.124888    102.249776
     -4.789790     44.681292     44.681292     89.362584
     -4.779780     38.112105     38.112105     76.224211
     -4.769770     32.359607     32.359607     64.719213
     -4.759760     27.927751     27.927751     55.855501
     -4.749750     24.904200     24.904200     49.808401
     -4.739740     23.088622     23.088622     46.177244
     -4.729730     22.136434     22.136434     44.272867
     -4.719720     21.665426     21.665426     43.330852
     -4.709710     21.317628     21.317628     42.635256
     -4.699700     20.793488     20.793488     41.586976
     -4.689690     19.878864     19.878864     39.757727
     -4.679680     18.477288     18.477288     36.954576
     -4.669670     16.647434     16.647434     33.294867
     -4.659660     14.632816     14.632816     29.265631
     -4.649650     12.863162     12.863162     25.726325
     -4.639640     11.909275     11.909275     23.818549
     -4.629630     12.384149     12.384149     24.768298
     -4.619620     14.797378     14.797378     29.594756
     -4.609610     19.385445     19.385445     38.770890
     -4.599600     25.959741     25.959741     51.919481
     -4.589590     33.833317     33.833317     67.666633
     -4.579580     41.889523     41.889523     83.779046
     -4.569570     48.820486     48.820486     97.640972
     -4.559560     53.490489     53.490489    106.980978
     -4.549550     55.301801     55.301801    110.603603
     -4.539540     54.409348     54.409348    108.818696
     -4.529530     51.677675     51.677675    103.355349
     -4.519520     48.383547     48.383547     96.767095
     -4.509510     45.782584     45.782584     91.565169
     -4.499499     44.715234     44.715234     89.430468
     -4.489489     45.397296     45.397296     90.794593
     -4.479479     47.444972     47.444972     94.889944
     -4.469469     50.080278     50.080278    100.160556
     -4.459459     52.404003     52.404003    104.808006
     -4.449449     53.631199     53.631199    107.262399
     -4.439439     53.238043     53.238043    106.476086
     -4.429429     51.025661     51.025661    102.051322
     -4.419419     47.131498     47.131498     94.262996
     -4.409409     42.006987     42.006987     84.013974
     -4.399399     36.354517     36.354517     72.709033
     -4.389389     31.006762     31.006762     62.013525
     -4.379379     26.750934     26.750934     53.501869
     -4.369369     24.137476     24.137476     48.274953
     -4.359359     23.339776     23.339776     46.679552
     -4.349349     24.125547     24.125547     48.251093
     -4.339339     25.959481     25.959481     51.918962
     -4.329329     28.200874     28.200874     56.401748
     -4.319319     30.319214     30.319214     60.638428
     -4.309309     32.046618     32.046618     64.093236
     -4.299299     33.417973     33.417973     66.835946
     -4.289289     34.697231     34.697231     69.394463
     -4.279279     36.226353     36.226353     72.452706
     -4.269269     38.249765     38.249765     76.499530
     -4.259259     40.767681     40.767681     81.535363
     -4.249249     43.466846     43.466846     86.933693
     -4.239239     45.766489     45.766489     91.532979
     -4.229229     46.987781     46.987781     93.975563
     -4.219219     46.602056     46.602056     93.204113
     -4.209209     44.458732     44.458732     88.917465
     -4.199199     40.880078     40.880078     81.760156
     -4.189189     36.563026     36.563026     73.126051
     -4.179179     32.327102     32.327102     64.654204
     -4.169169     28.831088     28.831088     57.662175
     -4.159159     26.393492     26.393492     52.786984
     -4.149149     24.987154     24.987154     49.974307
     -4.139139     24.382133     24.382133     48.764266
     -4.129129     24.342225     24.342225     48.684451
     -4.119119     24.769019     24.769019     49.538039
     -4.109109     25.725490     25.725490     51.450981
     -4.099099     27.332934     27.332934     54.665868
     -4.089089     29.596704     29.596704     59.193408
     -4.079079     32.257685     32.257685     64.515369
     -4.069069     34.766892     34.766892     69.533785
     -4.059059     36.427582     36.427582     72.855164
     -4.049049     36.658737     36.658737     73.317474
     -4.039039     35.255078     35.255078     70.510156
     -4.029029     32.506524     32.506524     65.013049
     -4.019019     29.111173     29.111173     58.222346
     -4.009009     25.929081     25.929081     51.858162
     -3.998999     23.706213     23.706213     47.412425
     -3.988989     22.897232     22.897232     45.794463
     -3.978979     23.639893     23.639893     47.279785
     -3.968969     25.840788     25.840788     51.681577
     -3.958959     29.285259     29.285259     58.570518
     -3.948949     33.705671     33.705671     67.411342
     -3.938939     38.802001     38.802001     77.604001
     -3.928929     44.253218     44.253218     88.506436
     -3.918919     49.754074     49.754074     99.508148
     -3.908909     55.070191     55.070191    110.140382
     -3.898899     60.066273     60.066273    120.132545
     -3.888889     64.664150     64.664150    129.328300
     -3.878879     68.732189     68.732189    137.464378
     -3.868869     71.964659     71.964659    143.929318
     -3.858859     73.837663     73.837663    147.675326
     -3.848849     73.703048     73.703048    147.406096
     -3.838839     71.011458     71.011458    142.022917
     -3.828829     65.577812     65.577812    131.155624
     -3.818819     57.763352     57.763352    115.526704
     -3.808809     48.475506     48.475506     96.951013
     -3.798799     38.968515     38.968515     77.937029
     -3.788789     30.518669     30.518669     61.037338
     -3.778779     24.098149     24.098149     48.196298
     -3.768769     20.159327     20.159327     40.318653
     -3.758759     18.584394     18.584394     37.168788
     -3.748749     18.790843     18.790843     37.581687
     -3.738739     19.941183     19.941183     39.882365
     -3.728729     21.191742     21.191742     42.383483
     -3.718719     21.920270     21.920270     43.840540
     -3.708709     21.883200     21.883200     43.766401
     -3.698699     21.266905     21.266905     42.533811
     -3.688689     20.615746     20.615746     41.231492
     -3.678679     20.646818     20.646818     41.293637
     -3.668669     21.995532     21.995532     43.991063
     -3.658659     24.967955     24.967955     49.935910
     -3.648649     29.388720     29.388720     58.777441
     -3.638639     34.611166     34.611166     69.222331
     -3.628629     39.697299     39.697299     79.394598
     -3.618619     43.701258     43.701258     87.402516
     -3.608609     45.941541     45.941541     91.883083
     -3.598599     46.156823     46.156823     92.313647
     -3.588589     44.504135     44.504135     89.008269
     -3.578579     41.435001     41.435001     82.870002
     -3.568569     37.526144     37.526144     75.052288
     -3.558559     33.330153     33.330153     66.660307
     -3.548549     29.273334     29.273334     58.546668
     -3.538539     25.600769     25.600769     51.201539
     -3.528529     22.366815     22.366815     44.733629
     -3.518519     19.475590     19.475590     38.951181
     -3.508509     16.767695     16.767695     33.535389
     -3.498498     14.125650     14.125650     28.251300
     -3.488488     11.553478     11.553478     23.106956
     -3.478478      9.194842      9.194842     18.389683
     -3.468468      7.285522      7.285522     14.571044
     -3.458458      6.066595      6.066595     12.133189
     -3.448448      5.695352      5.695352     11.390705
     -3.438438      6.182284      6.182284     12.364569
     -3.428428      7.368868      7.368868     14.737737
     -3.418418      8.953134      8.953134     17.906267
     -3.408408     10.564344     10.564344     21.128688
     -3.398398     11.874960     11.874960     23.749920
     -3.388388     12.716900     12.716900     25.433801
     -3.378378     13.154623     13.154623     26.309247
     -3.368368     13.477078     13.477078     26.954157
     -3.358358     14.105601     14.105601     28.211203
     -3.348348     15.454903     15.454903     30.909806
     -3.338338     17.801692     17.801692     35.603383
     -3.328328     21.199325     21.199325     42.398651
     -3.318318     25.444113     25.444113     50.888225
     -3.308308     30.080086     30.080086     60.160172
     -3.298298     34.439186     34.439186     68.878371
     -3.288288     37.735392     37.735392     75.470783
     -3.278278     39.229378     39.229378     78.458757
     -3.268268     38.439081     38.439081     76.878163
     -3.258258     35.317878     35.317878     70.635756
     -3.248248     30.306459     30.306459     60.612919
     -3.238238     24.213981     24.213981     48.427962
     -3.228228     17.972283     17.972283     35.944567
     -3.218218     12.372943     12.372943     24.745886
     -3.208208      7.896400      7.896400     15.792800
     -3.198198      4.682369      4.682369      9.364739
     -3.188188      2.617537      2.617537      5.235075
     -3.178178      1.475131      1.475131      2.950261
     -3.168168      1.043859      1.043859      2.087719
     -3.158158      1.212472      1.212472      2.424944
     -3.148148      2.003844      2.003844      4.007689
     -3.138138      3.564525      3.564525      7.129050
     -3.128128      6.114670      6.114670     12.229341
     -3.118118      9.861320      9.861320     19.722639
     -3.108108     14.885202     14.885202     29.770403
     -3.098098     21.028407     21.028407     42.056814
     -3.088088     27.827436     27.827436     55.654873
     -3.078078     34.537779     34.537779     69.075557
     -3.068068     40.271201     40.271201     80.542402
     -3.058058     44.218860     44.218860     88.437720
     -3.048048     45.884181     45.884181     91.768362
     -3.038038     45.230008     45.230008     90.460016
     -3.028028     42.674104     42.674104     85.348208
     -3.018018     38.935314     38.935314     77.870627
     -3.008008     34.801745     34.801745     69.603491
     -2.997998     30.921668     30.921668     61.843336
     -2.987988     27.693925     27.693925     55.387851
     -2.977978     25.278263     25.278263     50.556525
     -2.967968     23.692010     23.692010     47.384020
     -2.957958     22.930842     22.930842     45.861685
     -2.947948     23.050499     23.050499     46.100997
     -2.937938     24.167217     24.167217     48.334435
     -2.927928     26.372062     26.372062     52.744123
     -2.917918     29.599796     29.599796     59.199591
     -2.907908     33.526945     33.526945     67.053890
     -2.897898     37.571907     37.571907     75.143814
     -2.887888     41.023849     41.023849     82.047698
     -2.877878     43.257407     43.257407     86.514815
     -2.867868     43.937503     43.937503     87.875005
     -2.857858     43.116366     43.116366     86.232733
     -2.847848     41.176265     41.176265     82.352530
     -2.837838     38.647763     38.647763     77.295526
     -2.827828     35.992909     35.992909     71.985819
     -2.817818     33.454953     33.454953     66.909906
     -2.807808     31.037064     31.037064     62.074129
     -2.797798     28.604275     28.604275     57.208550
     -2.787788     26.041228     26.041228     52.082456
     -2.777778     23.374627     23.374627     46.749253
     -2.767768     20.794797     20.794797     41.589594
     -2.757758     18.571039     18.571039     37.142077
     -2.747748     16.917060     16.917060     33.834119
     -2.737738     15.890896     15.890896     31.781791
     -2.727728     15.391327     15.391327     30.782654
     -2.717718     15.252118     15.252118     30.504237
     -2.707708     15.372482     15.372482     30.744964
     -2.697698     15.796658     15.796658     31.593316
     -2.687688     16.685601     16.685601     33.371202
     -2.677678     18.192867     18.192867     36.385734
     -2.667668     20.321766     20.321766     40.643533
     -2.657658     22.858549     22.858549     45.717098
     -2.647648     25.432237     25.432237     50.864474
     -2.637638     27.671703     27.671703     55.343406
     -2.627628     29.366911     29.366911     58.733823
     -2.617618     30.538072     30.538072     61.076145
     -2.607608     31.377445     31.377445     62.754890
     -2.597598     32.110833     32.110833     64.221667
     -2.587588     32.870058     32.870058     65.740116
     -2.577578     33.644231     33.644231     67.288462
     -2.567568     34.310975     34.310975     68.621949
     -2.557558     34.696510     34.696510     69.393019
     -2.547548     34.616205     34.616205     69.232409
     -2.537538     33.892842     33.892842     67.785685
     -2.527528     32.388081     32.388081     64.776162
     -2.517518     30.073326     30.073326     60.146653
     -2.507508     27.117542     27.117542     54.235083
     -2.497497     23.928514     23.928514     47.857027
     -2.487487     21.091979     21.091979     42.183957
     -2.477477     19.208850     19.208850     38.417699
     -2.467467     18.695077     18.695077     37.390153
     -2.457457     19.637701     19.637701     39.275401
     -2.447447     21.777522     21.777522     43.555044
     -2.437437     24.628548     24.628548     49.257097
     -2.427427     27.679111     27.679111     55.358222
     -2.417417     30.580327     30.580327     61.160654
     -2.407407     33.232905     33.232905     66.465811
     -2.397397     35.732139     35.732139     71.464277
     -2.387387     38.201666     38.201666     76.403332
     -2.377377     40.604771     40.604771     81.209542
     -2.367367     42.637254     42.637254     85.274509
     -2.357357     43.768866     43.768866     87.537731
     -2.347347     43.427807     43.427807     86.855613
     -2.337337     41.250432     41.250432     82.500864
     -2.327327     37.282458     37.282458     74.564915
     -2.317317     32.037973     32.037973     64.075947
     -2.307307     26.388396     26.388396     52.776793
     -2.297297     21.329789     21.329789     42.659578
     -2.287287     17.723368     17.723368     35.446737
     -2.277277     16.100844     16.100844     32.201688
     -2.267267     16.584666     16.584666     33.169333
     -2.257257     18.922916     18.922916     37.845833
     -2.247247     22.603679     22.603679     45.207358
     -2.237237     27.000579     27.000579     54.001158
     -2.227227     31.503636     31.503636     63.007272
     -2.217217     35.602010     35.602010     71.204019
     -2.207207     38.906800     38.906800     77.813600
     -2.197197     41.129973     41.129973     82.259947
     -2.187187     42.058073     42.058073     84.116145
     -2.177177     41.559879     41.559879     83.119758
     -2.167167     39.638490     39.638490     79.276980
     -2.157157     36.494738     36.494738     72.989477
     -2.147147     32.542065     32.542065     65.084130
     -2.137137     28.329055     28.329055     56.658111
     -2.127127     24.381481     24.381481     48.762961
     -2.117117     21.034474     21.034474     42.068947
     -2.107107     18.343237     18.343237     36.686474
     -2.097097     16.120467     16.120467     32.240934
     -2.087087     14.076110     14.076110     28.152220
     -2.077077     11.979400     11.979400     23.958801
     -2.067067      9.759800      9.759800     19.519600
     -2.057057      7.509152      7.509152     15.018304
     -2.047047      5.406597      5.406597     10.813193
     -2.037037      3.622235      3.622235      7.244471
     -2.027027      2.250719      2.250719      4.501439
     -2.017017      1.295405      1.295405      2.590809
     -2.007007      0.692773      0.692773      1.385547
     -1.996997      0.352682      0.352682      0.705364
     -1.986987      0.193840      0.193840      0.387680
     -1.976977      0.166019      0.166019      0.332037
     -1.966967      0.260491      0.260491      0.520982
     -1.956957      0.513225      0.513225      1.026450
     -1.946947      1.002388      1.002388      2.004777
     -1.936937      1.836967      1.836967      3.673934
     -1.926927      3.131404      3.131404      6.262809
     -1.916917      4.965249      4.965249      9.930498
     -1.906907      7.336126      7.336126     14.672253
     -1.896897     10.123793     10.123793     20.247587
     -1.886887     13.085153     13.085153     26.170305
     -1.876877     15.890848     15.890848     31.781697
     -1.866867     18.197153     18.197153     36.394305
     -1.856857     19.731738     19.731738     39.463475
     -1.846847     20.366294     20.366294     40.732589
     -1.836837     20.152937     20.152937     40.305874
     -1.826827     19.310272     19.310272     38.620544
     -1.816817     18.156907     18.156907     36.313813
     -1.806807     17.007163     17.007163     34.014325
     -1.796797     16.064312     16.064312     32.128623
     -1.786787     15.358967     15.358967     30.717933
     -1.776777     14.768514     14.768514     29.537029
     -1.766767     14.114799     14.114799     28.229597
     -1.756757     13.291235     13.291235     26.582470
     -1.746747     12.348282     12.348282     24.696564
     -1.736737     11.486290     11.486290     22.972579
     -1.726727     10.957340     10.957340     21.914680
     -1.716717     10.930672     10.930672     21.861344
     -1.706707     11.397653     11.397653     22.795305
     -1.696697     12.169859     12.169859     24.339718
     -1.686687     12.971021     12.971021     25.942041
     -1.676677     13.570134     13.570134     27.140269
     -1.666667     13.879429     13.879429     27.758858
     -1.656657     13.961938     13.961938     27.923876
     -1.646647     13.948483     13.948483     27.896966
     -1.636637     13.920148     13.920148     27.840296
     -1.626627     13.833918     13.833918     27.667836
