# EIG2DOS: Utility for SIESTA to obtain the electronic density of states
#  E. Artacho, Apr 1999, A. Garcia, Apr 2012
#  Nick R. Papior, Feb 2017
# ------------------------------------------
# Eigenvalues calculated from a non-polarized calculation
# Eigenvalues read from siesta.EIG
# Kpoint weights read from siesta.KP
# Using smearing parameter:   0.0500
# Using 1000 points in the energy range
# Selected bands: 1 to: 2981
# Emin, Emax in file for selected band(s):    -27.0606290    218.3356130
# Nbands, Nspin, Nk   =   2981     1     1
# E_F                 =    -4.2703 eV --> (shifted to ZERO)
# Broadening          =     0.0500 eV
#
#        E            N(up)  (=)   N(down)         Ntot
     -5.000000     37.135721     37.135721     74.271441
     -4.989990     39.735341     39.735341     79.470681
     -4.979980     41.842925     41.842925     83.685850
     -4.969970     43.030114     43.030114     86.060228
     -4.959960     43.024037     43.024037     86.048075
     -4.949950     41.778060     41.778060     83.556121
     -4.939940     39.485182     39.485182     78.970363
     -4.929930     36.548381     36.548381     73.096763
     -4.919920     33.530882     33.530882     67.061764
     -4.909910     31.097985     31.097985     62.195969
     -4.899900     29.939319     29.939319     59.878637
     -4.889890     30.646234     30.646234     61.292467
     -4.879880     33.535258     33.535258     67.070515
     -4.869870     38.458117     38.458117     76.916233
     -4.859860     44.692469     44.692469     89.384937
     -4.849850     51.016192     51.016192    102.032385
     -4.839840     56.001653     56.001653    112.003306
     -4.829830     58.448338     58.448338    116.896676
     -4.819820     57.775499     57.775499    115.550999
     -4.809810     54.193571     54.193571    108.387142
     -4.799800     48.578057     48.578057     97.156114
     -4.789790     42.119983     42.119983     84.239965
     -4.779780     35.927778     35.927778     71.855557
     -4.769770     30.749331     30.749331     61.498661
     -4.759760     26.889470     26.889470     53.778940
     -4.749750     24.290129     24.290129     48.580258
     -4.739740     22.682684     22.682684     45.365369
     -4.729730     21.729001     21.729001     43.458001
     -4.719720     21.109769     21.109769     42.219538
     -4.709710     20.559549     20.559549     41.119099
     -4.699700     19.870978     19.870978     39.741955
     -4.689690     18.896909     18.896909     37.793819
     -4.679680     17.572376     17.572376     35.144753
     -4.669670     15.959905     15.959905     31.919810
     -4.659660     14.298457     14.298457     28.596913
     -4.649650     13.020994     13.020994     26.041987
     -4.639640     12.708669     12.708669     25.417338
     -4.629630     13.969598     13.969598     27.939196
     -4.619620     17.257998     17.257998     34.515997
     -4.609610     22.677504     22.677504     45.355008
     -4.599600     29.835810     29.835810     59.671620
     -4.589590     37.826245     37.826245     75.652489
     -4.579580     45.388217     45.388217     90.776434
     -4.569570     51.234401     51.234401    102.468803
     -4.559560     54.448159     54.448159    108.896318
     -4.549550     54.797661     54.797661    109.595323
     -4.539540     52.827398     52.827398    105.654797
     -4.529530     49.676991     49.676991     99.353982
     -4.519520     46.696249     46.696249     93.392497
     -4.509510     45.009427     45.009427     90.018853
     -4.499499     45.189240     45.189240     90.378480
     -4.489489     47.138104     47.138104     94.276209
     -4.479479     50.182591     50.182591    100.365181
     -4.469469     53.314821     53.314821    106.629642
     -4.459459     55.486623     55.486623    110.973246
     -4.449449     55.873764     55.873764    111.747529
     -4.439439     54.057127     54.057127    108.114254
     -4.429429     50.096827     50.096827    100.193653
     -4.419419     44.498238     44.498238     88.996476
     -4.409409     38.087341     38.087341     76.174683
     -4.399399     31.827283     31.827283     63.654566
     -4.389389     26.616022     26.616022     53.232044
     -4.379379     23.105758     23.105758     46.211515
     -4.369369     21.580878     21.580878     43.161757
     -4.359359     21.923388     21.923388     43.846777
     -4.349349     23.679237     23.679237     47.358474
     -4.339339     26.212276     26.212276     52.424551
     -4.329329     28.900745     28.900745     57.801490
     -4.319319     31.310790     31.310790     62.621580
     -4.309309     33.288146     33.288146     66.576292
     -4.299299     34.942505     34.942505     69.885009
     -4.289289     36.540832     36.540832     73.081665
     -4.279279     38.353797     38.353797     76.707594
     -4.269269     40.505530     40.505530     81.011061
     -4.259259     42.870697     42.870697     85.741394
     -4.249249     45.055366     45.055366     90.110732
     -4.239239     46.485902     46.485902     92.971804
     -4.229229     46.598738     46.598738     93.197475
     -4.219219     45.072395     45.072395     90.144790
     -4.209209     41.999561     41.999561     83.999122
     -4.199199     37.902701     37.902701     75.805403
     -4.189189     33.566449     33.566449     67.132898
     -4.179179     29.758728     29.758728     59.517455
     -4.169169     26.975920     26.975920     53.951839
     -4.159159     25.332095     25.332095     50.664190
     -4.149149     24.630010     24.630010     49.260020
     -4.139139     24.556184     24.556184     49.112369
     -4.129129     24.887380     24.887380     49.774761
     -4.119119     25.601554     25.601554     51.203108
     -4.109109     26.839950     26.839950     53.679899
     -4.099099     28.741587     28.741587     57.483173
     -4.089089     31.238723     31.238723     62.477447
     -4.079079     33.933504     33.933504     67.867007
     -4.069069     36.148322     36.148322     72.296645
     -4.059059     37.155803     37.155803     74.311606
     -4.049049     36.488669     36.488669     72.977339
     -4.039039     34.170725     34.170725     68.341449
     -4.029029     30.743557     30.743557     61.487114
     -4.019019     27.075145     27.075145     54.150290
     -4.009009     24.055542     24.055542     48.111084
     -3.998999     22.334505     22.334505     44.669010
     -3.988989     22.209761     22.209761     44.419522
     -3.978979     23.672753     23.672753     47.345507
     -3.968969     26.533937     26.533937     53.067875
     -3.958959     30.533056     30.533056     61.066113
     -3.948949     35.387857     35.387857     70.775715
     -3.938939     40.799281     40.799281     81.598563
     -3.928929     46.460327     46.460327     92.920653
     -3.918919     52.093220     52.093220    104.186441
     -3.908909     57.492793     57.492793    114.985586
     -3.898899     62.528206     62.528206    125.056412
     -3.888889     67.075469     67.075469    134.150939
     -3.878879     70.906170     70.906170    141.812340
     -3.868869     73.604128     73.604128    147.208256
     -3.858859     74.585659     74.585659    149.171318
     -3.848849     73.252359     73.252359    146.504717
     -3.838839     69.231574     69.231574    138.463148
     -3.828829     62.600817     62.600817    125.201634
     -3.818819     53.984381     53.984381    107.968762
     -3.808809     44.461650     44.461650     88.923300
     -3.798799     35.310711     35.310711     70.621421
     -3.788789     27.682286     27.682286     55.364573
     -3.778779     22.321658     22.321658     44.643316
     -3.768769     19.425372     19.425372     38.850744
     -3.758759     18.660103     18.660103     37.320205
     -3.748749     19.316167     19.316167     38.632334
     -3.738739     20.537647     20.537647     41.075294
     -3.728729     21.564986     21.564986     43.129971
     -3.718719     21.933888     21.933888     43.867776
     -3.708709     21.587429     21.587429     43.174858
     -3.698699     20.874347     20.874347     41.748693
     -3.688689     20.428176     20.428176     40.856352
     -3.678679     20.951018     20.951018     41.902037
     -3.668669     22.958514     22.958514     45.917027
     -3.658659     26.567172     26.567172     53.134345
     -3.648649     31.405000     31.405000     62.810001
     -3.638639     36.689920     36.689920     73.379840
     -3.628629     41.454821     41.454821     82.909643
     -3.618619     44.832824     44.832824     89.665649
     -3.608609     46.289776     46.289776     92.579551
     -3.598599     45.722231     45.722231     91.444462
     -3.588589     43.409396     43.409396     86.818791
     -3.578579     39.871016     39.871016     79.742032
     -3.568569     35.703357     35.703357     71.406715
     -3.558559     31.442827     31.442827     62.885654
     -3.548549     27.473545     27.473545     54.947089
     -3.538539     23.980367     23.980367     47.960735
     -3.528529     20.952704     20.952704     41.905409
     -3.518519     18.244723     18.244723     36.489447
     -3.508509     15.679303     15.679303     31.358605
     -3.498498     13.156984     13.156984     26.313967
     -3.488488     10.722000     10.722000     21.444000
     -3.478478      8.557331      8.557331     17.114662
     -3.468468      6.916454      6.916454     13.832907
     -3.458458      6.026087      6.026087     12.052173
     -3.448448      5.998144      5.998144     11.996287
     -3.438438      6.777068      6.777068     13.554136
     -3.428428      8.135654      8.135654     16.271307
     -3.418418      9.724335      9.724335     19.448671
     -3.408408     11.169319     11.169319     22.338638
     -3.398398     12.197019     12.197019     24.394038
     -3.388388     12.742193     12.742193     25.484386
     -3.378378     12.991865     12.991865     25.983730
     -3.368368     13.338399     13.338399     26.676798
     -3.358358     14.254984     14.254984     28.509967
     -3.348348     16.140726     16.140726     32.281452
     -3.338338     19.188831     19.188831     38.377661
     -3.328328     23.309967     23.309967     46.619934
     -3.318318     28.115634     28.115634     56.231267
     -3.308308     32.956135     32.956135     65.912270
     -3.298298     37.015961     37.015961     74.031922
     -3.288288     39.473352     39.473352     78.946705
     -3.278278     39.707976     39.707976     79.415953
     -3.268268     37.497118     37.497118     74.994236
     -3.258258     33.113717     33.113717     66.227434
     -3.248248     27.264620     27.264620     54.529240
     -3.238238     20.881032     20.881032     41.762063
     -3.228228     14.848957     14.848957     29.697914
     -3.218218      9.793313      9.793313     19.586626
     -3.208208      5.990829      5.990829     11.981657
     -3.198198      3.415444      3.415444      6.830889
     -3.188188      1.863607      1.863607      3.727215
     -3.178178      1.092689      1.092689      2.185378
     -3.168168      0.926906      0.926906      1.853811
     -3.158158      1.315855      1.315855      2.631710
     -3.148148      2.349420      2.349420      4.698840
     -3.138138      4.234258      4.234258      8.468515
     -3.128128      7.230696      7.230696     14.461392
     -3.118118     11.548607     11.548607     23.097214
     -3.108108     17.215283     17.215283     34.430565
     -3.098098     23.954109     23.954109     47.908218
     -3.088088     31.133704     31.133704     62.267408
     -3.078078     37.841566     37.841566     75.683131
     -3.068068     43.092579     43.092579     86.185159
     -3.058058     46.114035     46.114035     92.228069
     -3.048048     46.593183     46.593183     93.186367
     -3.038038     44.772400     44.772400     89.544800
     -3.028028     41.342845     41.342845     82.685690
     -3.018018     37.186740     37.186740     74.373480
     -3.008008     33.090862     33.090862     66.181723
     -2.997998     29.556464     29.556464     59.112929
     -2.987988     26.768282     26.768282     53.536564
     -2.977978     24.701848     24.701848     49.403696
     -2.967968     23.290806     23.290806     46.581613
     -2.957958     22.563780     22.563780     45.127559
     -2.947948     22.685948     22.685948     45.371896
     -2.937938     23.886710     23.886710     47.773421
     -2.927928     26.306526     26.306526     52.613052
     -2.917918     29.837441     29.837441     59.674882
     -2.907908     34.044034     34.044034     68.088069
     -2.897898     38.221966     38.221966     76.443932
     -2.887888     41.587729     41.587729     83.175459
     -2.877878     43.525817     43.525817     87.051633
     -2.867868     43.785138     43.785138     87.570277
     -2.857858     42.535973     42.535973     85.071946
     -2.847848     40.263423     40.263423     80.526846
     -2.837838     37.550336     37.550336     75.100671
     -2.827828     34.852641     34.852641     69.705282
     -2.817818     32.368224     32.368224     64.736449
     -2.807808     30.048787     30.048787     60.097574
     -2.797798     27.730065     27.730065     55.460131
     -2.787788     25.298096     25.298096     50.596192
     -2.777778     22.797666     22.797666     45.595331
     -2.767768     20.428683     20.428683     40.857366
     -2.757758     18.443979     18.443979     36.887959
     -2.747748     17.019169     17.019169     34.038339
     -2.737738     16.178377     16.178377     32.356754
     -2.727728     15.820787     15.820787     31.641573
     -2.717718     15.825532     15.825532     31.651064
     -2.707708     16.159131     16.159131     32.318261
     -2.697698     16.906305     16.906305     33.812609
     -2.687688     18.196298     18.196298     36.392596
     -2.677678     20.070508     20.070508     40.141017
     -2.667668     22.383500     22.383500     44.767000
     -2.657658     24.813975     24.813975     49.627950
     -2.647648     26.991719     26.991719     53.983439
     -2.637638     28.667255     28.667255     57.334509
     -2.627628     29.818746     29.818746     59.637492
     -2.617618     30.630452     30.630452     61.260903
     -2.607608     31.361621     31.361621     62.723241
     -2.597598     32.192904     32.192904     64.385808
     -2.587588     33.140341     33.140341     66.280682
     -2.577578     34.067820     34.067820     68.135641
     -2.567568     34.759401     34.759401     69.518802
     -2.557558     34.988719     34.988719     69.977439
     -2.547548     34.555508     34.555508     69.111016
     -2.537538     33.309375     33.309375     66.618751
     -2.527528     31.196925     31.196925     62.393850
     -2.517518     28.335384     28.335384     56.670769
     -2.507508     25.067795     25.067795     50.135589
     -2.497497     21.939599     21.939599     43.879197
     -2.487487     19.572517     19.572517     39.145033
     -2.477477     18.473928     18.473928     36.947855
     -2.467467     18.864576     18.864576     37.729152
     -2.457457     20.606054     20.606054     41.212107
     -2.447447     23.264900     23.264900     46.529800
     -2.437437     26.287506     26.287506     52.575013
     -2.427427     29.209316     29.209316     58.418632
     -2.417417     31.805295     31.805295     63.610590
     -2.407407     34.113765     34.113765     68.227530
     -2.397397     36.322809     36.322809     72.645618
     -2.387387     38.573302     38.573302     77.146604
     -2.377377     40.776035     40.776035     81.552070
     -2.367367     42.540795     42.540795     85.081590
     -2.357357     43.268434     43.268434     86.536868
     -2.347347     42.380023     42.380023     84.760045
     -2.337337     39.585341     39.585341     79.170683
     -2.327327     35.065487     35.065487     70.130973
     -2.317317     29.481334     29.481334     58.962668
     -2.307307     23.803570     23.803570     47.607140
     -2.297297     19.042550     19.042550     38.085099
     -2.287287     15.990481     15.990481     31.980962
     -2.277277     15.062343     15.062343     30.124686
     -2.267267     16.262901     16.262901     32.525801
     -2.257257     19.255242     19.255242     38.510484
     -2.247247     23.483507     23.483507     46.967014
     -2.237237     28.304784     28.304784     56.609568
     -2.227227     33.097541     33.097541     66.195082
     -2.217217     37.328145     37.328145     74.656291
     -2.207207     40.573821     40.573821     81.147641
     -2.197197     42.519698     42.519698     85.039396
     -2.187187     42.960175     42.960175     85.920351
     -2.177177     41.827677     41.827677     83.655355
     -2.167167     39.242702     39.242702     78.485403
     -2.157157     35.545303     35.545303     71.090606
     -2.147147     31.258532     31.258532     62.517065
     -2.137137     26.965292     26.965292     53.930584
     -2.127127     23.136840     23.136840     46.273680
     -2.117117     19.993754     19.993754     39.987507
     -2.107107     17.473207     17.473207     34.946415
     -2.097097     15.319555     15.319555     30.639110
     -2.087087     13.245780     13.245780     26.491560
     -2.077077     11.078238     11.078238     22.156475
     -2.067067      8.816944      8.816944     17.633887
     -2.057057      6.599769      6.599769     13.199538
     -2.047047      4.611080      4.611080      9.222160
     -2.037037      2.993206      2.993206      5.986413
     -2.027027      1.800748      1.800748      3.601497
     -2.017017      1.004099      1.004099      2.008198
     -2.007007      0.523533      0.523533      1.047065
     -1.996997      0.269309      0.269309      0.538618
     -1.986987      0.171953      0.171953      0.343905
     -1.976977      0.199029      0.199029      0.398058
     -1.966967      0.361902      0.361902      0.723803
     -1.956957      0.716030      0.716030      1.432061
     -1.946947      1.354124      1.354124      2.708248
     -1.936937      2.387778      2.387778      4.775556
     -1.926927      3.914300      3.914300      7.828600
     -1.916917      5.972632      5.972632     11.945264
     -1.906907      8.502295      8.502295     17.004590
     -1.896897     11.325008     11.325008     22.650016
     -1.886887     14.163632     14.163632     28.327264
     -1.876877     16.697989     16.697989     33.395977
     -1.866867     18.640469     18.640469     37.280937
     -1.856857     19.806514     19.806514     39.613028
     -1.846847     20.158816     20.158816     40.317632
     -1.836837     19.813303     19.813303     39.626605
     -1.826827     19.003144     19.003144     38.006288
     -1.816817     18.005204     18.005204     36.010408
     -1.806807     17.047018     17.047018     34.094036
     -1.796797     16.229167     16.229167     32.458335
     -1.786787     15.503429     15.503429     31.006858
     -1.776777     14.727033     14.727033     29.454065
     -1.766767     13.772109     13.772109     27.544217
     -1.756757     12.632391     12.632391     25.264782
     -1.746747     11.464489     11.464489     22.928979
     -1.736737     10.535485     10.535485     21.070970
     -1.726727     10.101662     10.101662     20.203323
     -1.716717     10.282430     10.282430     20.564860
     -1.706707     10.996729     10.996729     21.993458
     -1.696697     11.995969     11.995969     23.991938
     -1.686687     12.976220     12.976220     25.952440
     -1.676677     13.709504     13.709504     27.419008
     -1.666667     14.123164     14.123164     28.246328
     -1.656657     14.285767     14.285767     28.571535
     -1.646647     14.313594     14.313594     28.627189
     -1.636637     14.260697     14.260697     28.521395
     -1.626627     14.065608     14.065608     28.131216
