# EIG2DOS: Utility for SIESTA to obtain the electronic density of states
#  E. Artacho, Apr 1999, A. Garcia, Apr 2012
#  Nick R. Papior, Feb 2017
# ------------------------------------------
# Eigenvalues calculated from a non-polarized calculation
# Eigenvalues read from siesta.EIG
# Kpoint weights read from siesta.KP
# Using smearing parameter:   0.0500
# Using 1000 points in the energy range
# Selected bands: 1 to: 2981
# Emin, Emax in file for selected band(s):    -27.3277823    218.4104630
# Nbands, Nspin, Nk   =   2981     1     1
# E_F                 =    -4.1839 eV --> (shifted to ZERO)
# Broadening          =     0.0500 eV
#
#        E            N(up)  (=)   N(down)         Ntot
     -5.000000     33.058528     33.058528     66.117056
     -4.989990     38.478443     38.478443     76.956885
     -4.979980     43.358058     43.358058     86.716116
     -4.969970     46.790411     46.790411     93.580821
     -4.959960     48.107438     48.107438     96.214877
     -4.949950     47.107769     47.107769     94.215538
     -4.939940     44.125022     44.125022     88.250043
     -4.929930     39.930217     39.930217     79.860434
     -4.919920     35.533765     35.533765     71.067530
     -4.909910     31.969076     31.969076     63.938151
     -4.899900     30.104953     30.104953     60.209905
     -4.889890     30.490898     30.490898     60.981797
     -4.879880     33.230831     33.230831     66.461663
     -4.869870     37.909667     37.909667     75.819333
     -4.859860     43.626270     43.626270     87.252539
     -4.849850     49.173359     49.173359     98.346717
     -4.839840     53.343368     53.343368    106.686737
     -4.829830     55.266113     55.266113    110.532225
     -4.819820     54.650844     54.650844    109.301688
     -4.809810     51.838124     51.838124    103.676249
     -4.799800     47.648260     47.648260     95.296519
     -4.789790     43.096504     43.096504     86.193009
     -4.779780     39.087860     39.087860     78.175719
     -4.769770     36.192427     36.192427     72.384854
     -4.759760     34.553922     34.553922     69.107845
     -4.749750     33.930535     33.930535     67.861069
     -4.739740     33.830727     33.830727     67.661453
     -4.729730     33.690395     33.690395     67.380790
     -4.719720     33.036328     33.036328     66.072656
     -4.709710     31.592198     31.592198     63.184395
     -4.699700     29.308912     29.308912     58.617824
     -4.689690     26.334740     26.334740     52.669481
     -4.679680     22.964069     22.964069     45.928138
     -4.669670     19.600102     19.600102     39.200205
     -4.659660     16.738310     16.738310     33.476620
     -4.649650     14.945389     14.945389     29.890779
     -4.639640     14.796495     14.796495     29.592991
     -4.629630     16.750306     16.750306     33.500611
     -4.619620     20.979214     20.979214     41.958428
     -4.609610     27.213389     27.213389     54.426779
     -4.599600     34.681698     34.681698     69.363395
     -4.589590     42.218804     42.218804     84.437607
     -4.579580     48.547363     48.547363     97.094725
     -4.569570     52.656206     52.656206    105.312411
     -4.559560     54.127482     54.127482    108.254964
     -4.549550     53.266216     53.266216    106.532432
     -4.539540     50.965683     50.965683    101.931366
     -4.529530     48.361104     48.361104     96.722209
     -4.519520     46.417009     46.417009     92.834018
     -4.509510     45.613658     45.613658     91.227316
     -4.499499     45.843135     45.843135     91.686270
     -4.489489     46.530851     46.530851     93.061701
     -4.479479     46.909114     46.909114     93.818228
     -4.469469     46.320623     46.320623     92.641245
     -4.459459     44.434902     44.434902     88.869804
     -4.449449     41.312031     41.312031     82.624062
     -4.439439     37.320437     37.320437     74.640874
     -4.429429     32.975775     32.975775     65.951551
     -4.419419     28.788020     28.788020     57.576040
     -4.409409     25.176192     25.176192     50.352384
     -4.399399     22.454244     22.454244     44.908489
     -4.389389     20.845190     20.845190     41.690381
     -4.379379     20.474732     20.474732     40.949464
     -4.369369     21.331493     21.331493     42.662987
     -4.359359     23.227346     23.227346     46.454692
     -4.349349     25.809143     25.809143     51.618287
     -4.339339     28.646671     28.646671     57.293342
     -4.329329     31.370261     31.370261     62.740522
     -4.319319     33.793116     33.793116     67.586232
     -4.309309     35.954123     35.954123     71.908247
     -4.299299     38.054394     38.054394     76.108789
     -4.289289     40.310715     40.310715     80.621430
     -4.279279     42.786505     42.786505     85.573010
     -4.269269     45.273441     45.273441     90.546882
     -4.259259     47.283700     47.283700     94.567400
     -4.249249     48.176296     48.176296     96.352593
     -4.239239     47.387054     47.387054     94.774109
     -4.229229     44.677542     44.677542     89.355085
     -4.219219     40.292623     40.292623     80.585247
     -4.209209     34.943192     34.943192     69.886385
     -4.199199     29.606171     29.606171     59.212343
     -4.189189     25.220520     25.220520     50.441039
     -4.179179     22.407259     22.407259     44.814518
     -4.169169     21.326733     21.326733     42.653466
     -4.159159     21.719005     21.719005     43.438009
     -4.149149     23.091160     23.091160     46.182321
     -4.139139     24.956389     24.956389     49.912778
     -4.129129     27.014743     27.014743     54.029486
     -4.119119     29.196324     29.196324     58.392648
     -4.109109     31.552885     31.552885     63.105770
     -4.099099     34.060769     34.060769     68.121537
     -4.089089     36.452866     36.452866     72.905731
     -4.079079     38.194809     38.194809     76.389617
     -4.069069     38.648903     38.648903     77.297806
     -4.059059     37.359760     37.359760     74.719521
     -4.049049     34.314204     34.314204     68.628407
     -4.039039     30.031756     30.031756     60.063511
     -4.029029     25.432966     25.432966     50.865933
     -4.019019     21.552390     21.552390     43.104780
     -4.009009     19.235191     19.235191     38.470382
     -3.998999     18.943475     18.943475     37.886950
     -3.988989     20.722460     20.722460     41.444921
     -3.978979     24.293841     24.293841     48.587683
     -3.968969     29.201369     29.201369     58.402739
     -3.958959     34.942709     34.942709     69.885419
     -3.948949     41.059377     41.059377     82.118755
     -3.938939     47.188814     47.188814     94.377628
     -3.928929     53.088872     53.088872    106.177744
     -3.918919     58.630920     58.630920    117.261840
     -3.908909     63.748068     63.748068    127.496136
     -3.898899     68.339668     68.339668    136.679337
     -3.888889     72.167463     72.167463    144.334926
     -3.878879     74.804471     74.804471    149.608942
     -3.868869     75.687811     75.687811    151.375623
     -3.858859     74.279126     74.279126    148.558251
     -3.848849     70.277734     70.277734    140.555468
     -3.838839     63.797403     63.797403    127.594806
     -3.828829     55.427270     55.427270    110.854541
     -3.818819     46.144226     46.144226     92.288453
     -3.808809     37.102478     37.102478     74.204956
     -3.798799     29.369146     29.369146     58.738292
     -3.788789     23.687631     23.687631     47.375261
     -3.778779     20.334168     20.334168     40.668337
     -3.768769     19.099322     19.099322     38.198645
     -3.758759     19.389578     19.389578     38.779155
     -3.748749     20.415195     20.415195     40.830389
     -3.738739     21.413787     21.413787     42.827573
     -3.728729     21.854839     21.854839     43.709678
     -3.718719     21.576519     21.576519     43.153038
     -3.708709     20.820304     20.820304     41.640607
     -3.698699     20.149802     20.149802     40.299604
     -3.688689     20.267062     20.267062     40.534124
     -3.678679     21.770216     21.770216     43.540431
     -3.668669     24.923108     24.923108     49.846217
     -3.658659     29.517172     29.517172     59.034344
     -3.648649     34.885175     34.885175     69.770351
     -3.638639     40.073937     40.073937     80.147874
     -3.628629     44.117362     44.117362     88.234725
     -3.618619     46.306149     46.306149     92.612298
     -3.608609     46.354646     46.354646     92.709293
     -3.598599     44.418216     44.418216     88.836431
     -3.588589     40.983336     40.983336     81.966671
     -3.578579     36.695978     36.695978     73.391956
     -3.568569     32.193164     32.193164     64.386329
     -3.558559     27.974443     27.974443     55.948885
     -3.548549     24.325205     24.325205     48.650410
     -3.538539     21.297231     21.297231     42.594462
     -3.528529     18.752441     18.752441     37.504881
     -3.518519     16.464637     16.464637     32.929274
     -3.508509     14.249184     14.249184     28.498369
     -3.498498     12.071048     12.071048     24.142096
     -3.488488     10.086977     10.086977     20.173955
     -3.478478      8.607039      8.607039     17.214078
     -3.468468      7.993612      7.993612     15.987224
     -3.458458      8.533069      8.533069     17.066138
     -3.448448     10.315568     10.315568     20.631136
     -3.438438     13.154746     13.154746     26.309492
     -3.428428     16.579160     16.579160     33.158320
     -3.418418     19.921311     19.921311     39.842623
     -3.408408     22.502229     22.502229     45.004458
     -3.398398     23.861179     23.861179     47.722358
     -3.388388     23.939205     23.939205     47.878410
     -3.378378     23.127468     23.127468     46.254937
     -3.368368     22.146929     22.146929     44.293858
     -3.358358     21.804661     21.804661     43.609321
     -3.348348     22.724634     22.724634     45.449269
     -3.338338     25.148027     25.148027     50.296054
     -3.328328     28.853251     28.853251     57.706502
     -3.318318     33.198225     33.198225     66.396449
     -3.308308     37.264485     37.264485     74.528969
     -3.298298     40.078272     40.078272     80.156543
     -3.288288     40.871855     40.871855     81.743709
     -3.278278     39.319508     39.319508     78.639015
     -3.268268     35.660295     35.660295     71.320591
     -3.258258     30.639849     30.639849     61.279699
     -3.248248     25.273499     25.273499     50.546997
     -3.238238     20.517742     20.517742     41.035484
     -3.228228     16.982765     16.982765     33.965530
     -3.218218     14.797054     14.797054     29.594107
     -3.208208     13.661892     13.661892     27.323783
     -3.198198     13.051760     13.051760     26.103520
     -3.188188     12.465623     12.465623     24.931245
     -3.178178     11.629911     11.629911     23.259821
     -3.168168     10.588976     10.588976     21.177953
     -3.158158      9.670792      9.670792     19.341584
     -3.148148      9.359597      9.359597     18.719193
     -3.138138     10.127043     10.127043     20.254087
     -3.128128     12.269930     12.269930     24.539859
     -3.118118     15.790095     15.790095     31.580190
     -3.108108     20.343757     20.343757     40.687514
     -3.098098     25.282404     25.282404     50.564809
     -3.088088     29.792058     29.792058     59.584116
     -3.078078     33.103700     33.103700     66.207399
     -3.068068     34.706915     34.706915     69.413830
     -3.058058     34.480564     34.480564     68.961128
     -3.048048     32.682068     32.682068     65.364136
     -3.038038     29.804204     29.804204     59.608407
     -3.028028     26.376587     26.376587     52.753173
     -3.018018     22.813445     22.813445     45.626890
     -3.008008     19.373015     19.373015     38.746031
     -2.997998     16.222515     16.222515     32.445030
     -2.987988     13.544198     13.544198     27.088397
     -2.977978     11.606474     11.606474     23.212948
     -2.967968     10.756829     10.756829     21.513658
     -2.957958     11.340329     11.340329     22.680658
     -2.947948     13.579581     13.579581     27.159162
     -2.937938     17.460899     17.460899     34.921797
     -2.927928     22.666016     22.666016     45.332031
     -2.917918     28.578707     28.578707     57.157415
     -2.907908     34.380730     34.380730     68.761460
     -2.897898     39.226469     39.226469     78.452938
     -2.887888     42.452478     42.452478     84.904957
     -2.877878     43.751309     43.751309     87.502619
     -2.867868     43.238325     43.238325     86.476650
     -2.857858     41.375683     41.375683     82.751367
     -2.847848     38.778799     38.778799     77.557598
     -2.837838     35.987581     35.987581     71.975161
     -2.827828     33.304331     33.304331     66.608662
     -2.817818     30.766962     30.766962     61.533924
     -2.807808     28.255365     28.255365     56.510729
     -2.797798     25.659637     25.659637     51.319273
     -2.787788     23.011188     23.011188     46.022376
     -2.777778     20.506873     20.506873     41.013746
     -2.767768     18.423714     18.423714     36.847427
     -2.757758     16.986503     16.986503     33.973007
     -2.747748     16.274054     16.274054     32.548108
     -2.737738     16.218655     16.218655     32.437310
     -2.727728     16.687990     16.687990     33.375980
     -2.717718     17.582322     17.582322     35.164644
     -2.707708     18.871274     18.871274     37.742548
     -2.697698     20.542070     20.542070     41.084141
     -2.687688     22.502488     22.502488     45.004977
     -2.677678     24.524289     24.524289     49.048579
     -2.667668     26.290977     26.290977     52.581954
     -2.657658     27.538662     27.538662     55.077324
     -2.647648     28.204413     28.204413     56.408825
     -2.637638     28.480024     28.480024     56.960048
     -2.627628     28.726327     28.726327     57.452654
     -2.617618     29.293612     29.293612     58.587224
     -2.607608     30.351554     30.351554     60.703108
     -2.597598     31.817516     31.817516     63.635033
     -2.587588     33.401849     33.401849     66.803698
     -2.577578     34.719696     34.719696     69.439392
     -2.567568     35.399809     35.399809     70.799618
     -2.557558     35.154764     35.154764     70.309528
     -2.547548     33.823780     33.823780     67.647560
     -2.537538     31.415316     31.415316     62.830631
     -2.527528     28.152495     28.152495     56.304990
     -2.517518     24.489384     24.489384     48.978768
     -2.507508     21.057371     21.057371     42.114742
     -2.497497     18.530064     18.530064     37.060128
     -2.487487     17.441723     17.441723     34.883445
     -2.477477     18.026389     18.026389     36.052777
     -2.467467     20.144026     20.144026     40.288051
     -2.457457     23.328523     23.328523     46.657047
     -2.447447     26.945543     26.945543     53.891087
     -2.437437     30.403714     30.403714     60.807427
     -2.427427     33.336943     33.336943     66.673886
     -2.417417     35.681006     35.681006     71.362012
     -2.407407     37.607373     37.607373     75.214745
     -2.397397     39.340083     39.340083     78.680165
     -2.387387     40.941661     40.941661     81.883322
     -2.377377     42.180286     42.180286     84.360572
     -2.367367     42.561383     42.561383     85.122765
     -2.357357     41.527312     41.527312     83.054624
     -2.347347     38.736494     38.736494     77.472988
     -2.337337     34.282701     34.282701     68.565403
     -2.327327     28.742296     28.742296     57.484591
     -2.317317     23.028424     23.028424     46.056848
     -2.307307     18.128848     18.128848     36.257695
     -2.297297     14.848183     14.848183     29.696367
     -2.287287     13.647976     13.647976     27.295953
     -2.277277     14.610713     14.610713     29.221426
     -2.267267     17.495910     17.495910     34.991821
     -2.257257     21.836016     21.836016     43.672031
     -2.247247     27.032250     27.032250     54.064500
     -2.237237     32.433715     32.433715     64.867431
     -2.227227     37.399892     37.399892     74.799783
     -2.217217     41.353379     41.353379     82.706757
     -2.207207     43.830471     43.830471     87.660941
     -2.197197     44.534611     44.534611     89.069221
     -2.187187     43.390423     43.390423     86.780847
     -2.177177     40.582728     40.582728     81.165457
     -2.167167     36.552108     36.552108     73.104216
     -2.157157     31.920205     31.920205     63.840411
     -2.147147     27.344291     27.344291     54.688582
     -2.137137     23.343545     23.343545     46.687090
     -2.127127     20.170752     20.170752     40.341505
     -2.117117     17.793630     17.793630     35.587260
     -2.107107     15.996415     15.996415     31.992830
     -2.097097     14.545249     14.545249     29.090497
     -2.087087     13.324703     13.324703     26.649406
     -2.077077     12.372600     12.372600     24.745201
     -2.067067     11.803425     11.803425     23.606851
     -2.057057     11.676594     11.676594     23.353188
     -2.047047     11.894816     11.894816     23.789631
     -2.037037     12.195353     12.195353     24.390706
     -2.027027     12.240042     12.240042     24.480085
     -2.017017     11.753768     11.753768     23.507536
     -2.007007     10.637669     10.637669     21.275338
     -1.996997      9.003272      9.003272     18.006545
     -1.986987      7.121266      7.121266     14.242532
     -1.976977      5.322896      5.322896     10.645791
     -1.966967      3.907473      3.907473      7.814945
     -1.956957      3.091894      3.091894      6.183787
     -1.946947      3.004348      3.004348      6.008695
     -1.936937      3.698490      3.698490      7.396980
     -1.926927      5.160889      5.160889     10.321778
     -1.916917      7.301132      7.301132     14.602264
     -1.906907      9.935868      9.935868     19.871736
     -1.896897     12.789165     12.789165     25.578329
     -1.886887     15.524964     15.524964     31.049928
     -1.876877     17.809212     17.809212     35.618425
     -1.866867     19.382778     19.382778     38.765556
     -1.856857     20.121183     20.121183     40.242366
     -1.846847     20.062570     20.062570     40.125140
     -1.836837     19.393845     19.393845     38.787690
     -1.826827     18.393120     18.393120     36.786239
     -1.816817     17.338240     17.338240     34.676479
     -1.806807     16.408606     16.408606     32.817213
     -1.796797     15.621635     15.621635     31.243270
     -1.786787     14.839553     14.839553     29.679107
     -1.776777     13.850488     13.850488     27.700976
     -1.766767     12.485931     12.485931     24.971862
     -1.756757     10.714048     10.714048     21.428096
     -1.746747      8.663025      8.663025     17.326051
     -1.736737      6.571128      6.571128     13.142255
     -1.726727      4.700448      4.700448      9.400897
     -1.716717      3.263515      3.263515      6.527030
     -1.706707      2.392535      2.392535      4.785069
     -1.696697      2.148144      2.148144      4.296288
     -1.686687      2.541005      2.541005      5.082009
     -1.676677      3.538156      3.538156      7.076312
     -1.666667      5.044277      5.044277     10.088554
     -1.656657      6.873068      6.873068     13.746135
     -1.646647      8.740043      8.740043     17.480086
     -1.636637     10.303799     10.303799     20.607598
     -1.626627     11.258029     11.258029     22.516059
