# EIG2DOS: Utility for SIESTA to obtain the electronic density of states
#  E. Artacho, Apr 1999, A. Garcia, Apr 2012
#  Nick R. Papior, Feb 2017
# ------------------------------------------
# Eigenvalues calculated from a non-polarized calculation
# Eigenvalues read from siesta.EIG
# Kpoint weights read from siesta.KP
# Using smearing parameter:   0.0500
# Using 1000 points in the energy range
# Selected bands: 1 to: 2981
# Emin, Emax in file for selected band(s):    -27.2733066    218.4090290
# Nbands, Nspin, Nk   =   2981     1     1
# E_F                 =    -4.1835 eV --> (shifted to ZERO)
# Broadening          =     0.0500 eV
#
#        E            N(up)  (=)   N(down)         Ntot
     -5.000000     33.494796     33.494796     66.989592
     -4.989990     38.751438     38.751438     77.502877
     -4.979980     43.402353     43.402353     86.804707
     -4.969970     46.589661     46.589661     93.179321
     -4.959960     47.701173     47.701173     95.402346
     -4.949950     46.578030     46.578030     93.156060
     -4.939940     43.568606     43.568606     87.137213
     -4.929930     39.428965     39.428965     78.857930
     -4.919920     35.135293     35.135293     70.270586
     -4.909910     31.684311     31.684311     63.368623
     -4.899900     29.920593     29.920593     59.841185
     -4.889890     30.388631     30.388631     60.777263
     -4.879880     33.203026     33.203026     66.406052
     -4.869870     37.963573     37.963573     75.927146
     -4.859860     43.774548     43.774548     87.549095
     -4.849850     49.415573     49.415573     98.831145
     -4.839840     53.647414     53.647414    107.294827
     -4.829830     55.557376     55.557376    111.114753
     -4.819820     54.810464     54.810464    109.620928
     -4.809810     51.704732     51.704732    103.409465
     -4.799800     47.016785     47.016785     94.033570
     -4.789790     41.716210     41.716210     83.432420
     -4.779780     36.675317     36.675317     73.350635
     -4.769770     32.482302     32.482302     64.964605
     -4.759760     29.400043     29.400043     58.800086
     -4.749750     27.439772     27.439772     54.879545
     -4.739740     26.475737     26.475737     52.951474
     -4.729730     26.328419     26.328419     52.656838
     -4.719720     26.781673     26.781673     53.563346
     -4.709710     27.550902     27.550902     55.101804
     -4.699700     28.258393     28.258393     56.516787
     -4.689690     28.475301     28.475301     56.950601
     -4.679680     27.850648     27.850648     55.701295
     -4.669670     26.285560     26.285560     52.571120
     -4.659660     24.065080     24.065080     48.130161
     -4.649650     21.863129     21.863129     43.726258
     -4.639640     20.588647     20.588647     41.177295
     -4.629630     21.111052     21.111052     42.222104
     -4.619620     23.954502     23.954502     47.909004
     -4.609610     29.066737     29.066737     58.133474
     -4.599600     35.752215     35.752215     71.504429
     -4.589590     42.816047     42.816047     85.632093
     -4.579580     48.897180     48.897180     97.794360
     -4.569570     52.890068     52.890068    105.780135
     -4.559560     54.299247     54.299247    108.598494
     -4.549550     53.380805     53.380805    106.761611
     -4.539540     51.008176     51.008176    102.016353
     -4.529530     48.319241     48.319241     96.638482
     -4.519520     46.294120     46.294120     92.588239
     -4.509510     45.432328     45.432328     90.864656
     -4.499499     45.641862     45.641862     91.283723
     -4.489489     46.356394     46.356394     92.712788
     -4.479479     46.806664     46.806664     93.613327
     -4.469469     46.323399     46.323399     92.646797
     -4.459459     44.555063     44.555063     89.110126
     -4.449449     41.535457     41.535457     83.070914
     -4.439439     37.607986     37.607986     75.215972
     -4.429429     33.272032     33.272032     66.544063
     -4.419419     29.035596     29.035596     58.071191
     -4.409409     25.330814     25.330814     50.661629
     -4.399399     22.495073     22.495073     44.990147
     -4.389389     20.776816     20.776816     41.553631
     -4.379379     20.321096     20.321096     40.642193
     -4.369369     21.125349     21.125349     42.250698
     -4.359359     22.999950     22.999950     45.999899
     -4.349349     25.583507     25.583507     51.167014
     -4.339339     28.435142     28.435142     56.870285
     -4.329329     31.175229     31.175229     62.350458
     -4.319319     33.609175     33.609175     67.218349
     -4.309309     35.770903     35.770903     71.541806
     -4.299299     37.860399     37.860399     75.720798
     -4.289289     40.098789     40.098789     80.197577
     -4.279279     42.560413     42.560413     85.120826
     -4.269269     45.053074     45.053074     90.106148
     -4.259259     47.105235     47.105235     94.210469
     -4.249249     48.084863     48.084863     96.169726
     -4.239239     47.423194     47.423194     94.846388
     -4.229229     44.862777     44.862777     89.725554
     -4.219219     40.620823     40.620823     81.241647
     -4.209209     35.381622     35.381622     70.763244
     -4.199199     30.104870     30.104870     60.209740
     -4.189189     25.724649     25.724649     51.449298
     -4.179179     22.866823     22.866823     45.733645
     -4.169169     21.701195     21.701195     43.402391
     -4.159159     21.978003     21.978003     43.956006
     -4.149149     23.214196     23.214196     46.428392
     -4.139139     24.933643     24.933643     49.867286
     -4.129129     26.849381     26.849381     53.698761
     -4.119119     28.907239     28.907239     57.814478
     -4.109109     31.176185     31.176185     62.352370
     -4.099099     33.648178     33.648178     67.296356
     -4.089089     36.065597     36.065597     72.131195
     -4.079079     37.892868     37.892868     75.785735
     -4.069069     38.478162     38.478162     76.956325
     -4.059059     37.341265     37.341265     74.682531
     -4.049049     34.440148     34.440148     68.880297
     -4.039039     30.269744     30.269744     60.539487
     -4.029029     25.736054     25.736054     51.472109
     -4.019019     21.869896     21.869896     43.739792
     -4.009009     19.520116     19.520116     39.040231
     -3.998999     19.155827     19.155827     38.311654
     -3.988989     20.830875     20.830875     41.661750
     -3.978979     24.278252     24.278252     48.556503
     -3.968969     29.057090     29.057090     58.114179
     -3.958959     34.683463     34.683463     69.366927
     -3.948949     40.716087     40.716087     81.432173
     -3.938939     46.803088     46.803088     93.606176
     -3.928929     52.703446     52.703446    105.406892
     -3.918919     58.281239     58.281239    116.562478
     -3.908909     63.458391     63.458391    126.916782
     -3.898899     68.124184     68.124184    136.248368
     -3.888889     72.034074     72.034074    144.068147
     -3.878879     74.757914     74.757914    149.515828
     -3.868869     75.729982     75.729982    151.459964
     -3.858859     74.406700     74.406700    148.813400
     -3.848849     70.478977     70.478977    140.957954
     -3.838839     64.050514     64.050514    128.101028
     -3.828829     55.701824     55.701824    111.403647
     -3.818819     46.405821     46.405821     92.811643
     -3.808809     37.319363     37.319363     74.638727
     -3.798799     29.518831     29.518831     59.037662
     -3.788789     23.761533     23.761533     47.523065
     -3.778779     20.338997     20.338997     40.677993
     -3.768769     19.054865     19.054865     38.109730
     -3.758759     19.323463     19.323463     38.646926
     -3.748749     20.355939     20.355939     40.711877
     -3.738739     21.383850     21.383850     42.767700
     -3.728729     21.865436     21.865436     43.730871
     -3.718719     21.625471     21.625471     43.250941
     -3.708709     20.893406     20.893406     41.786812
     -3.698699     20.225235     20.225235     40.450471
     -3.688689     20.321588     20.321588     40.643176
     -3.678679     21.785512     21.785512     43.571024
     -3.668669     24.890614     24.890614     49.781228
     -3.658659     29.440259     29.440259     58.880517
     -3.648649     34.778197     34.778197     69.556395
     -3.638639     39.958549     39.958549     79.917098
     -3.628629     44.017183     44.017183     88.034367
     -3.618619     46.241214     46.241214     92.482429
     -3.608609     46.336996     46.336996     92.673992
     -3.598599     44.449608     44.449608     88.899216
     -3.588589     41.055562     41.055562     82.111123
     -3.578579     36.793699     36.793699     73.587398
     -3.568569     32.298551     32.298551     64.597103
     -3.558559     28.072232     28.072232     56.144464
     -3.548549     24.406316     24.406316     48.812633
     -3.538539     21.359182     21.359182     42.718364
     -3.528529     18.795454     18.795454     37.590908
     -3.518519     16.483183     16.483183     32.966366
     -3.508509     14.219139     14.219139     28.438278
     -3.498498     11.932678     11.932678     23.865356
     -3.488488      9.724717      9.724717     19.449434
     -3.478478      7.830217      7.830217     15.660433
     -3.468468      6.528560      6.528560     13.057120
     -3.458458      6.043714      6.043714     12.087428
     -3.448448      6.470145      6.470145     12.940289
     -3.438438      7.743605      7.743605     15.487210
     -3.428428      9.661419      9.661419     19.322838
     -3.418418     11.946513     11.946513     23.893025
     -3.408408     14.337314     14.337314     28.674627
     -3.398398     16.671863     16.671863     33.343726
     -3.388388     18.930228     18.930228     37.860456
     -3.378378     21.215685     21.215685     42.431369
     -3.368368     23.686931     23.686931     47.373863
     -3.358358     26.478160     26.478160     52.956320
     -3.348348     29.640614     29.640614     59.281227
     -3.338338     33.111830     33.111830     66.223661
     -3.328328     36.695185     36.695185     73.390371
     -3.318318     40.039001     40.039001     80.078003
     -3.308308     42.637226     42.637226     85.274451
     -3.298298     43.896571     43.896571     87.793141
     -3.288288     43.293087     43.293087     86.586175
     -3.278278     40.578232     40.578232     81.156464
     -3.268268     35.937660     35.937660     71.875320
     -3.258258     30.007142     30.007142     60.014283
     -3.248248     23.717907     23.717907     47.435814
     -3.238238     18.033214     18.033214     36.066427
     -3.228228     13.687817     13.687817     27.375634
     -3.218218     11.025758     11.025758     22.051517
     -3.208208      9.973437      9.973437     19.946873
     -3.198198     10.129579     10.129579     20.259158
     -3.188188     10.927834     10.927834     21.855668
     -3.178178     11.825350     11.825350     23.650700
     -3.168168     12.472882     12.472882     24.945764
     -3.158158     12.821698     12.821698     25.643396
     -3.148148     13.129481     13.129481     26.258963
     -3.138138     13.852630     13.852630     27.705260
     -3.128128     15.452705     15.452705     30.905411
     -3.118118     18.182829     18.182829     36.365657
     -3.108108     21.935946     21.935946     43.871893
     -3.098098     26.220720     26.220720     52.441441
     -3.088088     30.285136     30.285136     60.570272
     -3.078078     33.347680     33.347680     66.695361
     -3.068068     34.845729     34.845729     69.691458
     -3.058058     34.597384     34.597384     69.194769
     -3.048048     32.810479     32.810479     65.620957
     -3.038038     29.947123     29.947123     59.894247
     -3.028028     26.523981     26.523981     53.047961
     -3.018018     22.953829     22.953829     45.907658
     -3.008008     19.497699     19.497699     38.995397
     -2.997998     16.324588     16.324588     32.649176
     -2.987988     13.615683     13.615683     27.231366
     -2.977978     11.636663     11.636663     23.273326
     -2.967968     10.733282     10.733282     21.466563
     -2.957958     11.252359     11.252359     22.504718
     -2.947948     13.422997     13.422997     26.845993
     -2.937938     17.242301     17.242301     34.484601
     -2.927928     22.404909     22.404909     44.809818
     -2.917918     28.306005     28.306005     56.612010
     -2.907908     34.133172     34.133172     68.266344
     -2.897898     39.038012     39.038012     78.076024
     -2.887888     42.345349     42.345349     84.690698
     -2.877878     43.730202     43.730202     87.460404
     -2.867868     43.290429     43.290429     86.580859
     -2.857858     41.476851     41.476851     82.953702
     -2.847848     38.903258     38.903258     77.806516
     -2.837838     36.116771     36.116771     72.233543
     -2.827828     33.430882     33.430882     66.861765
     -2.817818     30.892444     30.892444     61.784887
     -2.807808     28.383806     28.383806     56.767613
     -2.797798     25.790909     25.790909     51.581819
     -2.787788     23.137998     23.137998     46.275996
     -2.777778     20.616654     20.616654     41.233307
     -2.767768     18.503664     18.503664     37.007328
     -2.757758     17.028297     17.028297     34.056593
     -2.747748     16.275273     16.275273     32.550546
     -2.737738     16.180500     16.180500     32.361000
     -2.727728     16.611606     16.611606     33.223211
     -2.717718     17.467305     17.467305     34.934609
     -2.707708     18.718472     18.718472     37.436944
     -2.697698     20.359349     20.359349     40.718697
     -2.687688     22.309072     22.309072     44.618143
     -2.677678     24.349099     24.349099     48.698198
     -2.667668     26.163787     26.163787     52.327574
     -2.657658     27.477918     27.477918     54.955836
     -2.647648     28.208552     28.208552     56.417103
     -2.637638     28.527682     28.527682     57.055363
     -2.627628     28.785601     28.785601     57.571202
     -2.617618     29.335252     29.335252     58.670505
     -2.607608     30.359259     30.359259     60.718519
     -2.597598     31.791259     31.791259     63.582518
     -2.587588     33.354830     33.354830     66.709659
     -2.577578     34.672513     34.672513     69.345026
     -2.567568     35.375016     35.375016     70.750031
     -2.557558     35.172550     35.172550     70.345101
     -2.547548     33.897792     33.897792     67.795584
     -2.537538     31.548140     31.548140     63.096280
     -2.527528     28.332228     28.332228     56.664457
     -2.517518     24.689766     24.689766     49.379531
     -2.507508     21.242904     21.242904     42.485807
     -2.497497     18.665061     18.665061     37.330121
     -2.487487     17.500097     17.500097     35.000194
     -2.477477     17.998607     17.998607     35.997214
     -2.467467     20.038896     20.038896     40.077793
     -2.457457     23.169510     23.169510     46.339020
     -2.447447     26.763090     26.763090     53.526180
     -2.437437     30.226291     30.226291     60.452582
     -2.427427     33.183914     33.183914     66.367828
     -2.417417     35.559891     35.559891     71.119782
     -2.407407     37.516489     37.516489     75.032978
     -2.397397     39.275267     39.275267     78.550533
     -2.387387     40.903610     40.903610     81.807219
     -2.377377     42.178350     42.178350     84.356700
     -2.367367     42.611113     42.611113     85.222226
     -2.357357     41.642445     41.642445     83.284890
     -2.347347     38.919464     38.919464     77.838928
     -2.337337     34.518988     34.518988     69.037976
     -2.327327     29.001885     29.001885     58.003770
     -2.317317     23.273662     23.273662     46.547325
     -2.307307     18.324649     18.324649     36.649298
     -2.297297     14.969991     14.969991     29.939982
     -2.287287     13.684932     13.684932     27.369864
     -2.277277     14.564394     14.564394     29.128788
     -2.267267     17.376821     17.376821     34.753642
     -2.257257     21.660112     21.660112     43.320224
     -2.247247     26.818745     26.818745     53.637490
     -2.237237     32.204198     32.204198     64.408395
     -2.227227     37.178011     37.178011     74.356022
     -2.217217     41.164075     41.164075     82.328151
     -2.207207     43.697838     43.697838     87.395676
     -2.197197     44.478045     44.478045     88.956089
     -2.187187     43.419688     43.419688     86.839377
     -2.177177     40.693728     40.693728     81.387457
     -2.167167     36.725677     36.725677     73.451354
     -2.157157     32.125318     32.125318     64.250636
     -2.147147     27.544680     27.544680     55.089360
     -2.137137     23.504108     23.504108     47.008216
     -2.127127     20.259314     20.259314     40.518628
     -2.117117     17.775982     17.775982     35.551963
     -2.107107     15.827514     15.827514     31.655028
     -2.097097     14.164488     14.164488     28.328976
     -2.087087     12.664760     12.664760     25.329521
     -2.077077     11.386843     11.386843     22.773685
     -2.067067     10.506217     10.506217     21.012434
     -2.057057     10.178503     10.178503     20.357005
     -2.047047     10.408727     10.408727     20.817453
     -2.037037     10.997302     10.997302     21.994603
     -2.027027     11.590226     11.590226     23.180451
     -2.017017     11.807842     11.807842     23.615684
     -2.007007     11.389484     11.389484     22.778968
     -1.996997     10.287568     10.287568     20.575137
     -1.986987      8.674534      8.674534     17.349069
     -1.976977      6.871688      6.871688     13.743376
     -1.966967      5.243841      5.243841     10.487683
     -1.956957      4.108987      4.108987      8.217975
     -1.946947      3.689607      3.689607      7.379213
     -1.936937      4.101055      4.101055      8.202109
     -1.926927      5.354790      5.354790     10.709580
     -1.916917      7.358788      7.358788     14.717576
     -1.906907      9.915649      9.915649     19.831297
     -1.896897     12.733282     12.733282     25.466563
     -1.886887     15.461961     15.461961     30.923922
     -1.876877     17.757007     17.757007     35.514013
     -1.866867     19.350753     19.350753     38.701506
     -1.856857     20.111531     20.111531     40.223062
     -1.846847     20.071633     20.071633     40.143267
     -1.836837     19.414089     19.414089     38.828178
     -1.826827     18.415950     18.415950     36.831901
     -1.816817     17.357247     17.357247     34.714494
     -1.806807     16.422170     16.422170     32.844340
     -1.796797     15.633622     15.633622     31.267245
     -1.786787     14.857467     14.857467     29.714933
     -1.776777     13.881738     13.881738     27.763475
     -1.766767     12.534054     12.534054     25.068108
     -1.756757     10.776792     10.776792     21.553583
     -1.746747      8.733111      8.733111     17.466222
     -1.736737      6.638973      6.638973     13.277946
     -1.726727      4.757180      4.757180      9.514361
     -1.716717      3.302812      3.302812      6.605625
     -1.706707      2.410870      2.410870      4.821741
     -1.696697      2.144073      2.144073      4.288146
     -1.686687      2.514590      2.514590      5.029180
     -1.676677      3.491270      3.491270      6.982540
     -1.666667      4.981665      4.981665      9.963331
     -1.656657      6.803229      6.803229     13.606457
     -1.646647      8.674720      8.674720     17.349441
     -1.636637     10.255442     10.255442     20.510884
     -1.626627     11.235717     11.235717     22.471434
