# EIG2DOS: Utility for SIESTA to obtain the electronic density of states
#  E. Artacho, Apr 1999, A. Garcia, Apr 2012
#  Nick R. Papior, Feb 2017
# ------------------------------------------
# Eigenvalues calculated from a non-polarized calculation
# Eigenvalues read from siesta.EIG
# Kpoint weights read from siesta.KP
# Using smearing parameter:   0.0500
# Using 1000 points in the energy range
# Selected bands: 1 to: 2981
# Emin, Emax in file for selected band(s):    -27.0853304    218.3510540
# Nbands, Nspin, Nk   =   2981     1     1
# E_F                 =    -4.2585 eV --> (shifted to ZERO)
# Broadening          =     0.0500 eV
#
#        E            N(up)  (=)   N(down)         Ntot
     -5.000000     33.614556     33.614556     67.229113
     -4.989990     37.438539     37.438539     74.877077
     -4.979980     40.821338     40.821338     81.642675
     -4.969970     43.214678     43.214678     86.429356
     -4.959960     44.200189     44.200189     88.400378
     -4.949950     43.609657     43.609657     87.219315
     -4.939940     41.582359     41.582359     83.164718
     -4.929930     38.547323     38.547323     77.094647
     -4.919920     35.151178     35.151178     70.302357
     -4.909910     32.161849     32.161849     64.323699
     -4.899900     30.360973     30.360973     60.721946
     -4.889890     30.413563     30.413563     60.827126
     -4.879880     32.702810     32.702810     65.405619
     -4.869870     37.154612     37.154612     74.309223
     -4.859860     43.128318     43.128318     86.256635
     -4.849850     49.469130     49.469130     98.938260
     -4.839840     54.767898     54.767898    109.535797
     -4.829830     57.768600     57.768600    115.537200
     -4.819820     57.765719     57.765719    115.531438
     -4.809810     54.814355     54.814355    109.628710
     -4.799800     49.659299     49.659299     99.318598
     -4.789790     43.428700     43.428700     86.857401
     -4.779780     37.246461     37.246461     74.492922
     -4.769770     31.931680     31.931680     63.863361
     -4.759760     27.877656     27.877656     55.755312
     -4.749750     25.098496     25.098496     50.196993
     -4.739740     23.364501     23.364501     46.729002
     -4.729730     22.342495     22.342495     44.684990
     -4.719720     21.693287     21.693287     43.386574
     -4.709710     21.119742     21.119742     42.239485
     -4.699700     20.384413     20.384413     40.768826
     -4.689690     19.322600     19.322600     38.645200
     -4.679680     17.869315     17.869315     35.738630
     -4.669670     16.101345     16.101345     32.202690
     -4.659660     14.275932     14.275932     28.551864
     -4.649650     12.836459     12.836459     25.672918
     -4.639640     12.360217     12.360217     24.720434
     -4.629630     13.441144     13.441144     26.882289
     -4.619620     16.523061     16.523061     33.046123
     -4.609610     21.721081     21.721081     43.442162
     -4.599600     28.688510     28.688510     57.377021
     -4.589590     36.595972     36.595972     73.191944
     -4.579580     44.272642     44.272642     88.545284
     -4.569570     50.505381     50.505381    101.010763
     -4.559560     54.413745     54.413745    108.827489
     -4.549550     55.758124     55.758124    111.516248
     -4.539540     55.038713     55.038713    110.077426
     -4.529530     53.318552     53.318552    106.637104
     -4.519520     51.823694     51.823694    103.647388
     -4.509510     51.477757     51.477757    102.955515
     -4.499499     52.562568     52.562568    105.125137
     -4.489489     54.642307     54.642307    109.284614
     -4.479479     56.770998     56.770998    113.541997
     -4.469469     57.879568     57.879568    115.759136
     -4.459459     57.169184     57.169184    114.338368
     -4.449449     54.354140     54.354140    108.708280
     -4.439439     49.685797     49.685797     99.371595
     -4.429429     43.797051     43.797051     87.594102
     -4.419419     37.475575     37.475575     74.951149
     -4.409409     31.473214     31.473214     62.946428
     -4.399399     26.402136     26.402136     52.804273
     -4.389389     22.701231     22.701231     45.402463
     -4.379379     20.623745     20.623745     41.247491
     -4.369369     20.213682     20.213682     40.427364
     -4.359359     21.281429     21.281429     42.562858
     -4.349349     23.418739     23.418739     46.837478
     -4.339339     26.084104     26.084104     52.168207
     -4.329329     28.748410     28.748410     57.496819
     -4.319319     31.048698     31.048698     62.097395
     -4.309309     32.884882     32.884882     65.769765
     -4.299299     34.417476     34.417476     68.834951
     -4.289289     35.966265     35.966265     71.932530
     -4.279279     37.846280     37.846280     75.692559
     -4.269269     40.196139     40.196139     80.392277
     -4.259259     42.857672     42.857672     85.715344
     -4.249249     45.358739     45.358739     90.717478
     -4.239239     47.028036     47.028036     94.056073
     -4.229229     47.223725     47.223725     94.447450
     -4.219219     45.597032     45.597032     91.194063
     -4.209209     42.272583     42.272583     84.545166
     -4.199199     37.847128     37.847128     75.694256
     -4.189189     33.191763     33.191763     66.383526
     -4.179179     29.145682     29.145682     58.291364
     -4.169169     26.246719     26.246719     52.493438
     -4.159159     24.618862     24.618862     49.237724
     -4.149149     24.048348     24.048348     48.096696
     -4.139139     24.184881     24.184881     48.369762
     -4.129129     24.754088     24.754088     49.508175
     -4.119119     25.677097     25.677097     51.354195
     -4.109109     27.046433     27.046433     54.092866
     -4.099099     28.977022     28.977022     57.954044
     -4.089089     31.412727     31.412727     62.825455
     -4.079079     33.999488     33.999488     67.998975
     -4.069069     36.115369     36.115369     72.230739
     -4.059059     37.072474     37.072474     74.144948
     -4.049049     36.407435     36.407435     72.814871
     -4.039039     34.114659     34.114659     68.229319
     -4.029029     30.696265     30.696265     61.392530
     -4.019019     26.999816     26.999816     53.999632
     -4.009009     23.929464     23.929464     47.858929
     -3.998999     22.175104     22.175104     44.350209
     -3.988989     22.074419     22.074419     44.148837
     -3.978979     23.632524     23.632524     47.265048
     -3.968969     26.637964     26.637964     53.275928
     -3.958959     30.784804     30.784804     61.569608
     -3.948949     35.744767     35.744767     71.489534
     -3.938939     41.192284     41.192284     82.384568
     -3.928929     46.819763     46.819763     93.639526
     -3.918919     52.368207     52.368207    104.736415
     -3.908909     57.658922     57.658922    115.317844
     -3.898899     62.586321     62.586321    125.172642
     -3.888889     67.047026     67.047026    134.094053
     -3.878879     70.828379     70.828379    141.656759
     -3.868869     73.524388     73.524388    147.048777
     -3.858859     74.553278     74.553278    149.106555
     -3.848849     73.307143     73.307143    146.614286
     -3.838839     69.391988     69.391988    138.783976
     -3.828829     62.856413     62.856413    125.712826
     -3.818819     54.296520     54.296520    108.593039
     -3.808809     44.773336     44.773336     89.546673
     -3.798799     35.562593     35.562593     71.125186
     -3.788789     27.829524     27.829524     55.659049
     -3.778779     22.346325     22.346325     44.692650
     -3.768769     19.340827     19.340827     38.681653
     -3.758759     18.506259     18.506259     37.012519
     -3.748749     19.147016     19.147016     38.294031
     -3.738739     20.404425     20.404425     40.808850
     -3.728729     21.499774     21.499774     42.999548
     -3.718719     21.938675     21.938675     43.877351
     -3.708709     21.632512     21.632512     43.265024
     -3.698699     20.907463     20.907463     41.814927
     -3.688689     20.392480     20.392480     40.784960
     -3.678679     20.806664     20.806664     41.613327
     -3.668669     22.700287     22.700287     45.400574
     -3.658659     26.230674     26.230674     52.461348
     -3.648649     31.057431     31.057431     62.114863
     -3.638639     36.408024     36.408024     72.816049
     -3.628629     41.298952     41.298952     82.597904
     -3.618619     44.828434     44.828434     89.656867
     -3.608609     46.423769     46.423769     92.847537
     -3.598599     45.953689     45.953689     91.907378
     -3.588589     43.687295     43.687295     87.374589
     -3.578579     40.150042     40.150042     80.300084
     -3.568569     35.952757     35.952757     71.905515
     -3.558559     31.648584     31.648584     63.297167
     -3.548549     27.636832     27.636832     55.273664
     -3.538539     24.114312     24.114312     48.228625
     -3.528529     21.077348     21.077348     42.154697
     -3.518519     18.379633     18.379633     36.759267
     -3.508509     15.835062     15.835062     31.670125
     -3.498498     13.328755     13.328755     26.657510
     -3.488488     10.888326     10.888326     21.776652
     -3.478478      8.685141      8.685141     17.370282
     -3.468468      6.970643      6.970643     13.941287
     -3.458458      5.980759      5.980759     11.961518
     -3.448448      5.846690      5.846690     11.693379
     -3.438438      6.538599      6.538599     13.077197
     -3.428428      7.855220      7.855220     15.710441
     -3.418418      9.464813      9.464813     18.929625
     -3.408408     10.995058     10.995058     21.990117
     -3.398398     12.153240     12.153240     24.306480
     -3.388388     12.837196     12.837196     25.674393
     -3.378378     13.188986     13.188986     26.377972
     -3.368368     13.560886     13.560886     27.121771
     -3.358358     14.402308     14.402308     28.804616
     -3.348348     16.112261     16.112261     32.224522
     -3.338338     18.910741     18.910741     37.821482
     -3.328328     22.761131     22.761131     45.522262
     -3.318318     27.346219     27.346219     54.692437
     -3.308308     32.089593     32.089593     64.179186
     -3.298298     36.226542     36.226542     72.453083
     -3.288288     38.940037     38.940037     77.880074
     -3.278278     39.558999     39.558999     79.117998
     -3.268268     37.768090     37.768090     75.536180
     -3.258258     33.738814     33.738814     67.477627
     -3.248248     28.104677     28.104677     56.209354
     -3.238238     21.774219     21.774219     43.548439
     -3.228228     15.660528     15.660528     31.321055
     -3.218218     10.445643     10.445643     20.891286
     -3.208208      6.468833      6.468833     12.937666
     -3.198198      3.755841      3.755841      7.511683
     -3.188188      2.142342      2.142342      4.284685
     -3.178178      1.421845      1.421845      2.843689
     -3.168168      1.463602      1.463602      2.927204
     -3.158158      2.274718      2.274718      4.549436
     -3.148148      4.000553      4.000553      8.001106
     -3.138138      6.864868      6.864868     13.729737
     -3.128128     11.056806     11.056806     22.113611
     -3.118118     16.587616     16.587616     33.175232
     -3.108108     23.164878     23.164878     46.329756
     -3.098098     30.148691     30.148691     60.297382
     -3.088088     36.640976     36.640976     73.281952
     -3.078078     41.707525     41.707525     83.415050
     -3.068068     44.662071     44.662071     89.324141
     -3.058058     45.292713     45.292713     90.585426
     -3.048048     43.920116     43.920116     87.840231
     -3.038038     41.249438     41.249438     82.498875
     -3.028028     38.079418     38.079418     76.158835
     -3.018018     35.005783     35.005783     70.011566
     -3.008008     32.258437     32.258437     64.516874
     -2.997998     29.739764     29.739764     59.479528
     -2.987988     27.225904     27.225904     54.451808
     -2.977978     24.613403     24.613403     49.226807
     -2.967968     22.081207     22.081207     44.162414
     -2.957958     20.091714     20.091714     40.183427
     -2.947948     19.237601     19.237601     38.475201
     -2.937938     20.008174     20.008174     40.016347
     -2.927928     22.574006     22.574006     45.148011
     -2.917918     26.672510     26.672510     53.345020
     -2.907908     31.636308     31.636308     63.272616
     -2.897898     36.557553     36.557553     73.115107
     -2.887888     40.536248     40.536248     81.072496
     -2.877878     42.929480     42.929480     85.858959
     -2.867868     43.513348     43.513348     87.026697
     -2.857858     42.498071     42.498071     84.996142
     -2.847848     40.393614     40.393614     80.787228
     -2.837838     37.785768     37.785768     75.571535
     -2.827828     35.120765     35.120765     70.241530
     -2.817818     32.589410     32.589410     65.178820
     -2.807808     30.150673     30.150673     60.301347
     -2.797798     27.664932     27.664932     55.329865
     -2.787788     25.054539     25.054539     50.109079
     -2.777778     22.401790     22.401790     44.803579
     -2.767768     19.935197     19.935197     39.870393
     -2.757758     17.921338     17.921338     35.842676
     -2.747748     16.533863     16.533863     33.067726
     -2.737738     15.782191     15.782191     31.564382
     -2.727728     15.542908     15.542908     31.085817
     -2.717718     15.670100     15.670100     31.340200
     -2.707708     16.108165     16.108165     32.216330
     -2.697698     16.927146     16.927146     33.854292
     -2.687688     18.251299     18.251299     36.502598
     -2.677678     20.125518     20.125518     40.251035
     -2.667668     22.411979     22.411979     44.823958
     -2.657658     24.795836     24.795836     49.591672
     -2.647648     26.909165     26.909165     53.818331
     -2.637638     28.502008     28.502008     57.004015
     -2.627628     29.554383     29.554383     59.108766
     -2.617618     30.260206     30.260206     60.520413
     -2.607608     30.897813     30.897813     61.795626
     -2.597598     31.671981     31.671981     63.343963
     -2.587588     32.619221     32.619221     65.238442
     -2.577578     33.611994     33.611994     67.223988
     -2.567568     34.427840     34.427840     68.855680
     -2.557558     34.821635     34.821635     69.643270
     -2.547548     34.567968     34.567968     69.135936
     -2.537538     33.489662     33.489662     66.979324
     -2.527528     31.507112     31.507112     63.014224
     -2.517518     28.713837     28.713837     57.427673
     -2.507508     25.436308     25.436308     50.872617
     -2.497497     22.217973     22.217973     44.435947
     -2.487487     19.699443     19.699443     39.398886
     -2.477477     18.427770     18.427770     36.855540
     -2.467467     18.674984     18.674984     37.349969
     -2.457457     20.349680     20.349680     40.699360
     -2.447447     23.045025     23.045025     46.090049
     -2.437437     26.204521     26.204521     52.409042
     -2.427427     29.332775     29.332775     58.665550
     -2.417417     32.156518     32.156518     64.313035
     -2.407407     34.662385     34.662385     69.324770
     -2.397397     36.995299     36.995299     73.990598
     -2.387387     39.269590     39.269590     78.539179
     -2.377377     41.391264     41.391264     82.782529
     -2.367367     42.989630     42.989630     85.979260
     -2.357357     43.506960     43.506960     87.013920
     -2.347347     42.417545     42.417545     84.835090
     -2.337337     39.479703     39.479703     78.959407
     -2.327327     34.902404     34.902404     69.804807
     -2.317317     29.346522     29.346522     58.693044
     -2.307307     23.759775     23.759775     47.519549
     -2.297297     19.119424     19.119424     38.238847
     -2.287287     16.187162     16.187162     32.374324
     -2.277277     15.356691     15.356691     30.713381
     -2.267267     16.620906     16.620906     33.241812
     -2.257257     19.637535     19.637535     39.275070
     -2.247247     23.849351     23.849351     47.698702
     -2.237237     28.615152     28.615152     57.230304
     -2.227227     33.318296     33.318296     66.636593
     -2.217217     37.433503     37.433503     74.867006
     -2.207207     40.549874     40.549874     81.099747
     -2.197197     42.367406     42.367406     84.734813
     -2.187187     42.696614     42.696614     85.393229
     -2.177177     41.484093     41.484093     82.968185
     -2.167167     38.858860     38.858860     77.717719
     -2.157157     35.161488     35.161488     70.322975
     -2.147147     30.908031     30.908031     61.816062
     -2.137137     26.670041     26.670041     53.340082
     -2.127127     22.907113     22.907113     45.814226
     -2.117117     19.830677     19.830677     39.661355
     -2.107107     17.371937     17.371937     34.743874
     -2.097097     15.271547     15.271547     30.543094
     -2.087087     13.239977     13.239977     26.479954
     -2.077077     11.101947     11.101947     22.203893
     -2.067067      8.857151      8.857151     17.714301
     -2.057057      6.644911      6.644911     13.289822
     -2.047047      4.652639      4.652639      9.305279
     -2.037037      3.026434      3.026434      6.052868
     -2.027027      1.824271      1.824271      3.648541
     -2.017017      1.018699      1.018699      2.037399
     -2.007007      0.530598      0.530598      1.061195
     -1.996997      0.269289      0.269289      0.538578
     -1.986987      0.162894      0.162894      0.325788
     -1.976977      0.175107      0.175107      0.350214
     -1.966967      0.312151      0.312151      0.624302
     -1.956957      0.624042      0.624042      1.248083
     -1.946947      1.200053      1.200053      2.400105
     -1.936937      2.153927      2.153927      4.307854
     -1.926927      3.594167      3.594167      7.188334
     -1.916917      5.580730      5.580730     11.161460
     -1.906907      8.079580      8.079580     16.159159
     -1.896897     10.934473     10.934473     21.868947
     -1.886887     13.874151     13.874151     27.748301
     -1.876877     16.560712     16.560712     33.121424
     -1.866867     18.667658     18.667658     37.335317
     -1.856857     19.963711     19.963711     39.927421
     -1.846847     20.376769     20.376769     40.753538
     -1.836837     20.018759     20.018759     40.037518
     -1.826827     19.161397     19.161397     38.322793
     -1.816817     18.164071     18.164071     36.328143
     -1.806807     17.370473     17.370473     34.740946
     -1.796797     17.007152     17.007152     34.014305
     -1.786787     17.123074     17.123074     34.246147
     -1.776777     17.593674     17.593674     35.187348
     -1.766767     18.181103     18.181103     36.362206
     -1.756757     18.615805     18.615805     37.231611
     -1.746747     18.663383     18.663383     37.326767
     -1.736737     18.163201     18.163201     36.326402
     -1.726727     17.049152     17.049152     34.098305
     -1.716717     15.367018     15.367018     30.734035
     -1.706707     13.287038     13.287038     26.574076
     -1.696697     11.094300     11.094300     22.188601
     -1.686687      9.141121      9.141121     18.282242
     -1.676677      7.764210      7.764210     15.528421
     -1.666667      7.189791      7.189791     14.379582
     -1.656657      7.458663      7.458663     14.917326
     -1.646647      8.398841      8.398841     16.797683
     -1.636637      9.660904      9.660904     19.321808
     -1.626627     10.814029     10.814029     21.628057
