# EIG2DOS: Utility for SIESTA to obtain the electronic density of states
#  E. Artacho, Apr 1999, A. Garcia, Apr 2012
#  Nick R. Papior, Feb 2017
# ------------------------------------------
# Eigenvalues calculated from a non-polarized calculation
# Eigenvalues read from siesta.EIG
# Kpoint weights read from siesta.KP
# Using smearing parameter:   0.0500
# Using 1000 points in the energy range
# Selected bands: 1 to: 2981
# Emin, Emax in file for selected band(s):    -27.1828247    218.3553230
# Nbands, Nspin, Nk   =   2981     1     1
# E_F                 =    -4.2553 eV --> (shifted to ZERO)
# Broadening          =     0.0500 eV
#
#        E            N(up)  (=)   N(down)         Ntot
     -5.000000     34.056032     34.056032     68.112065
     -4.989990     37.915632     37.915632     75.831263
     -4.979980     41.185355     41.185355     82.370711
     -4.969970     43.366744     43.366744     86.733488
     -4.959960     44.102858     44.102858     88.205715
     -4.949950     43.286157     43.286157     86.572314
     -4.939940     41.102113     41.102113     82.204225
     -4.929930     38.003445     38.003445     76.006889
     -4.919920     34.638727     34.638727     69.277454
     -4.909910     31.762742     31.762742     63.525484
     -4.899900     30.135391     30.135391     60.270782
     -4.889890     30.393598     30.393598     60.787195
     -4.879880     32.885220     32.885220     65.770439
     -4.869870     37.494822     37.494822     74.989643
     -4.859860     43.542378     43.542378     87.084756
     -4.849850     49.849540     49.849540     99.699079
     -4.839840     55.012170     55.012170    110.024339
     -4.829830     57.810598     57.810598    115.621195
     -4.819820     57.595701     57.595701    115.191402
     -4.809810     54.477989     54.477989    108.955977
     -4.799800     49.236455     49.236455     98.472910
     -4.789790     43.002714     43.002714     86.005427
     -4.779780     36.877650     36.877650     73.755301
     -4.769770     31.644299     31.644299     63.288598
     -4.759760     27.661421     27.661421     55.322841
     -4.749750     24.920022     24.920022     49.840045
     -4.739740     23.182675     23.182675     46.365351
     -4.729730     22.123370     22.123370     44.246740
     -4.719720     21.421544     21.421544     42.843087
     -4.709710     20.804189     20.804189     41.608379
     -4.699700     20.055681     20.055681     40.111361
     -4.689690     19.023611     19.023611     38.047221
     -4.679680     17.642631     17.642631     35.285263
     -4.669670     15.979771     15.979771     31.959543
     -4.659660     14.281790     14.281790     28.563581
     -4.649650     12.991075     12.991075     25.982151
     -4.639640     12.700556     12.700556     25.401113
     -4.629630     14.037757     14.037757     28.075515
     -4.619620     17.493562     17.493562     34.987123
     -4.609610     23.235229     23.235229     46.470459
     -4.599600     30.962237     30.962237     61.924474
     -4.589590     39.870509     39.870509     79.741018
     -4.579580     48.772205     48.772205     97.544411
     -4.569570     56.367099     56.367099    112.734198
     -4.559560     61.592727     61.592727    123.185454
     -4.549550     63.930033     63.930033    127.860066
     -4.539540     63.543404     63.543404    127.086809
     -4.529530     61.194621     61.194621    122.389241
     -4.519520     57.961370     57.961370    115.922739
     -4.509510     54.868916     54.868916    109.737832
     -4.499499     52.573833     52.573833    105.147666
     -4.489489     51.210768     51.210768    102.421536
     -4.479479     50.441518     50.441518    100.883036
     -4.469469     49.662720     49.662720     99.325440
     -4.459459     48.271239     48.271239     96.542478
     -4.449449     45.879319     45.879319     91.758639
     -4.439439     42.413244     42.413244     84.826488
     -4.429429     38.092844     38.092844     76.185687
     -4.419419     33.338616     33.338616     66.677232
     -4.409409     28.664614     28.664614     57.329228
     -4.399399     24.590931     24.590931     49.181862
     -4.389389     21.574677     21.574677     43.149354
     -4.379379     19.941976     19.941976     39.883952
     -4.369369     19.817096     19.817096     39.634192
     -4.359359     21.073128     21.073128     42.146256
     -4.349349     23.342959     23.342959     46.685919
     -4.339339     26.111568     26.111568     52.223136
     -4.329329     28.869072     28.869072     57.738144
     -4.319319     31.266714     31.266714     62.533429
     -4.309309     33.210763     33.210763     66.421526
     -4.299299     34.856111     34.856111     69.712222
     -4.289289     36.503757     36.503757     73.007514
     -4.279279     38.440872     38.440872     76.881743
     -4.269269     40.778128     40.778128     81.556257
     -4.259259     43.340386     43.340386     86.680772
     -4.249249     45.658654     45.658654     91.317309
     -4.239239     47.088324     47.088324     94.176647
     -4.229229     47.033272     47.033272     94.066544
     -4.219219     45.197462     45.197462     90.394925
     -4.209209     41.749381     41.749381     83.498763
     -4.199199     37.306820     37.306820     74.613640
     -4.189189     32.732813     32.732813     65.465627
     -4.179179     28.833429     28.833429     57.666859
     -4.169169     26.100852     26.100852     52.201705
     -4.159159     24.616650     24.616650     49.233300
     -4.149149     24.140932     24.140932     48.281863
     -4.139139     24.319849     24.319849     48.639697
     -4.129129     24.896005     24.896005     49.792010
     -4.119119     25.818305     25.818305     51.636610
     -4.109109     27.203273     27.203273     54.406546
     -4.099099     29.172130     29.172130     58.344260
     -4.089089     31.651159     31.651159     63.302318
     -4.079079     34.251679     34.251679     68.503358
     -4.069069     36.318615     36.318615     72.637229
     -4.059059     37.153376     37.153376     74.306752
     -4.049049     36.315153     36.315153     72.630305
     -4.039039     33.847124     33.847124     67.694249
     -4.029029     30.304798     30.304798     60.609596
     -4.019019     26.570050     26.570050     53.140101
     -4.009009     23.549870     23.549870     47.099740
     -3.998999     21.909825     21.909825     43.819649
     -3.988989     21.952013     21.952013     43.904026
     -3.978979     23.651333     23.651333     47.302666
     -3.968969     26.780085     26.780085     53.560170
     -3.958959     31.029058     31.029058     62.058116
     -3.948949     36.073641     36.073641     72.147282
     -3.938939     41.593620     41.593620     83.187241
     -3.928929     47.286170     47.286170     94.572339
     -3.918919     52.895006     52.895006    105.790012
     -3.908909     58.238329     58.238329    116.476659
     -3.898899     63.195965     63.195965    126.391930
     -3.888889     67.636169     67.636169    135.272338
     -3.878879     71.311523     71.311523    142.623047
     -3.868869     73.792864     73.792864    147.585728
     -3.858859     74.507261     74.507261    149.014522
     -3.848849     72.897011     72.897011    145.794023
     -3.838839     68.648397     68.648397    137.296794
     -3.828829     61.891305     61.891305    123.782611
     -3.818819     53.272028     53.272028    106.544056
     -3.808809     43.852735     43.852735     87.705470
     -3.798799     34.865544     34.865544     69.731088
     -3.788789     27.408547     27.408547     54.817093
     -3.778779     22.188160     22.188160     44.376319
     -3.768769     19.384949     19.384949     38.769897
     -3.758759     18.669184     18.669184     37.338368
     -3.748749     19.344352     19.344352     38.688703
     -3.738739     20.567712     20.567712     41.135423
     -3.728729     21.587994     21.587994     43.175987
     -3.718719     21.944324     21.944324     43.888648
     -3.708709     21.581167     21.581167     43.162335
     -3.698699     20.849769     20.849769     41.699539
     -3.688689     20.389030     20.389030     40.778060
     -3.678679     20.908812     20.908812     41.817625
     -3.668669     22.932259     22.932259     45.864518
     -3.658659     26.579128     26.579128     53.158255
     -3.648649     31.472870     31.472870     62.945741
     -3.638639     36.818185     36.818185     73.636370
     -3.628629     41.629283     41.629283     83.258566
     -3.618619     45.021776     45.021776     90.043552
     -3.608609     46.452299     46.452299     92.904598
     -3.598599     45.820542     45.820542     91.641084
     -3.588589     43.420112     43.420112     86.840224
     -3.578579     39.791009     39.791009     79.582017
     -3.568569     35.548776     35.548776     71.097551
     -3.558559     31.243006     31.243006     62.486011
     -3.548549     27.262944     27.262944     54.525888
     -3.538539     23.791178     23.791178     47.582356
     -3.528529     20.809303     20.809303     41.618605
     -3.518519     18.160134     18.160134     36.320268
     -3.508509     15.653694     15.653694     31.307388
     -3.498498     13.178449     13.178449     26.356899
     -3.488488     10.769735     10.769735     21.539469
     -3.478478      8.606647      8.606647     17.213294
     -3.468468      6.944476      6.944476     13.888952
     -3.458458      6.016888      6.016888     12.033777
     -3.448448      5.946462      5.946462     11.892924
     -3.438438      6.690049      6.690049     13.380097
     -3.428428      8.032040      8.032040     16.064079
     -3.418418      9.630584      9.630584     19.261168
     -3.408408     11.112816     11.112816     22.225631
     -3.398398     12.197890     12.197890     24.395780
     -3.388388     12.806298     12.806298     25.612595
     -3.378378     13.107474     13.107474     26.214947
     -3.368368     13.477758     13.477758     26.955516
     -3.358358     14.380363     14.380363     28.760726
     -3.348348     16.213596     16.213596     32.427192
     -3.338338     19.180500     19.180500     38.361000
     -3.328328     23.211584     23.211584     46.423169
     -3.318318     27.944690     27.944690     55.889381
     -3.308308     32.756563     32.756563     65.513125
     -3.298298     36.851287     36.851287     73.702573
     -3.288288     39.417086     39.417086     78.834172
     -3.278278     39.839801     39.839801     79.679601
     -3.268268     37.913379     37.913379     75.826758
     -3.258258     33.953757     33.953757     67.907513
     -3.248248     28.742419     28.742419     57.484838
     -3.238238     23.300374     23.300374     46.600749
     -3.228228     18.577579     18.577579     37.155159
     -3.218218     15.182902     15.182902     30.365804
     -3.208208     13.254730     13.254730     26.509461
     -3.198198     12.504975     12.504975     25.009950
     -3.188188     12.400375     12.400375     24.800750
     -3.178178     12.403337     12.403337     24.806673
     -3.168168     12.186790     12.186790     24.373579
     -3.158158     11.756976     11.756976     23.513953
     -3.148148     11.453591     11.453591     22.907183
     -3.138138     11.835318     11.835318     23.670636
     -3.128128     13.488259     13.488259     26.976517
     -3.118118     16.809520     16.809520     33.619041
     -3.108108     21.822389     21.822389     43.644779
     -3.098098     28.079073     28.079073     56.158146
     -3.088088     34.698291     34.698291     69.396582
     -3.078078     40.554958     40.554958     81.109916
     -3.068068     44.582589     44.582589     89.165178
     -3.058058     46.086346     46.086346     92.172693
     -3.048048     44.938015     44.938015     89.876031
     -3.038038     41.565738     41.565738     83.131475
     -3.028028     36.749645     36.749645     73.499291
     -3.018018     31.332453     31.332453     62.664905
     -3.008008     25.987971     25.987971     51.975942
     -2.997998     21.139733     21.139733     42.279467
     -2.987988     17.025178     17.025178     34.050355
     -2.977978     13.824137     13.824137     27.648274
     -2.967968     11.755925     11.755925     23.511849
     -2.957958     11.090012     11.090012     22.180025
     -2.947948     12.072140     12.072140     24.144280
     -2.937938     14.806424     14.806424     29.612848
     -2.927928     19.145928     19.145928     38.291857
     -2.917918     24.638667     24.638667     49.277334
     -2.907908     30.561486     30.561486     61.122973
     -2.897898     36.050236     36.050236     72.100472
     -2.887888     40.299964     40.299964     80.599929
     -2.877878     42.773176     42.773176     85.546352
     -2.867868     43.337167     43.337167     86.674334
     -2.857858     42.269619     42.269619     84.539237
     -2.847848     40.123649     40.123649     80.247298
     -2.837838     37.506642     37.506642     75.013285
     -2.827828     34.868567     34.868567     69.737133
     -2.817818     32.390971     32.390971     64.781943
     -2.807808     30.017186     30.017186     60.034372
     -2.797798     27.592833     27.592833     55.185666
     -2.787788     25.031749     25.031749     50.063499
     -2.777778     22.415153     22.415153     44.830307
     -2.767768     19.975156     19.975156     39.950312
     -2.757758     17.982604     17.982604     35.965208
     -2.747748     16.614137     16.614137     33.228273
     -2.737738     15.882151     15.882151     31.764303
     -2.727728     15.668714     15.668714     31.337428
     -2.717718     15.836015     15.836015     31.672030
     -2.707708     16.334810     16.334810     32.669620
     -2.697698     17.232616     17.232616     34.465233
     -2.687688     18.637566     18.637566     37.275133
     -2.677678     20.567766     20.567766     41.135532
     -2.667668     22.859422     22.859422     45.718844
     -2.657658     25.187250     25.187250     50.374499
     -2.647648     27.197295     27.197295     54.394590
     -2.637638     28.674187     28.674187     57.348374
     -2.627628     29.637541     29.637541     59.275081
     -2.617618     30.307167     30.307167     60.614334
     -2.607608     30.962721     30.962721     61.925443
     -2.597598     31.788108     31.788108     63.576216
     -2.587588     32.788867     32.788867     65.577734
     -2.577578     33.809293     33.809293     67.618587
     -2.567568     34.608430     34.608430     69.216859
     -2.557558     34.933121     34.933121     69.866242
     -2.547548     34.559927     34.559927     69.119855
     -2.537538     33.325428     33.325428     66.650857
     -2.527528     31.177729     31.177729     62.355457
     -2.517518     28.249274     28.249274     56.498547
     -2.507508     24.906152     24.906152     49.812304
     -2.497497     21.717143     21.717143     43.434286
     -2.487487     19.322308     19.322308     38.644616
     -2.477477     18.240757     18.240757     36.481514
     -2.467467     18.698864     18.698864     37.397727
     -2.457457     20.557924     20.557924     41.115849
     -2.447447     23.377263     23.377263     46.754526
     -2.437437     26.588190     26.588190     53.176379
     -2.427427     29.704044     29.704044     59.408087
     -2.417417     32.473537     32.473537     64.947073
     -2.407407     34.908132     34.908132     69.816264
     -2.397397     37.171349     37.171349     74.342698
     -2.387387     39.384495     39.384495     78.768990
     -2.377377     41.448091     41.448091     82.896182
     -2.367367     42.977456     42.977456     85.954912
     -2.357357     43.400717     43.400717     86.801434
     -2.347347     42.188032     42.188032     84.376064
     -2.337337     39.110490     39.110490     78.220981
     -2.327327     34.405216     34.405216     68.810433
     -2.317317     28.765895     28.765895     57.531790
     -2.307307     23.163117     23.163117     46.326234
     -2.297297     18.577064     18.577064     37.154128
     -2.287287     15.752541     15.752541     31.505082
     -2.277277     15.055921     15.055921     30.111842
     -2.267267     16.454665     16.454665     32.909331
     -2.257257     19.591299     19.591299     39.182598
     -2.247247     23.904488     23.904488     47.808976
     -2.237237     28.754629     28.754629     57.509258
     -2.227227     33.525172     33.525172     67.050344
     -2.217217     37.685203     37.685203     75.370406
     -2.207207     40.813879     40.813879     81.627758
     -2.197197     42.603142     42.603142     85.206283
     -2.187187     42.864492     42.864492     85.728984
     -2.177177     41.558069     41.558069     83.116139
     -2.167167     38.836084     38.836084     77.672168
     -2.157157     35.063403     35.063403     70.126807
     -2.147147     30.771373     30.771373     61.542746
     -2.137137     26.531434     26.531434     53.062869
     -2.127127     22.788561     22.788561     45.577122
     -2.117117     19.732941     19.732941     39.465883
     -2.107107     17.278642     17.278642     34.557283
     -2.097097     15.161085     15.161085     30.322169
     -2.087087     13.098385     13.098385     26.196771
     -2.077077     10.930141     10.930141     21.860282
     -2.067067      8.669807      8.669807     17.339614
     -2.057057      6.463111      6.463111     12.926223
     -2.047047      4.495153      4.495153      8.990306
     -2.037037      2.903970      2.903970      5.807939
     -2.027027      1.738369      1.738369      3.476738
     -2.017017      0.964232      0.964232      1.928463
     -2.007007      0.499625      0.499625      0.999249
     -1.996997      0.254396      0.254396      0.508792
     -1.986987      0.159238      0.159238      0.318475
     -1.976977      0.181339      0.181339      0.362678
     -1.966967      0.330682      0.330682      0.661363
     -1.956957      0.660895      0.660895      1.321790
     -1.946947      1.264228      1.264228      2.528457
     -1.936937      2.256210      2.256210      4.512420
     -1.926927      3.746117      3.746117      7.492234
     -1.916917      5.796092      5.796092     11.592185
     -1.906907      8.381819      8.381819     16.763638
     -1.896897     11.374083     11.374083     22.748167
     -1.886887     14.556076     14.556076     29.112151
     -1.876877     17.675139     17.675139     35.350277
     -1.866867     20.508469     20.508469     41.016938
     -1.856857     22.912978     22.912978     45.825955
     -1.846847     24.837199     24.837199     49.674398
     -1.836837     26.292924     26.292924     52.585848
     -1.826827     27.303630     27.303630     54.607261
     -1.816817     27.855782     27.855782     55.711564
     -1.806807     27.875921     27.875921     55.751841
     -1.796797     27.245297     27.245297     54.490594
     -1.786787     25.848967     25.848967     51.697934
     -1.776777     23.641411     23.641411     47.282823
     -1.766767     20.700681     20.700681     41.401362
     -1.756757     17.244111     17.244111     34.488221
     -1.746747     13.593755     13.593755     27.187510
     -1.736737     10.103241     10.103241     20.206482
     -1.726727      7.076940      7.076940     14.153879
     -1.716717      4.715348      4.715348      9.430695
     -1.706707      3.105282      3.105282      6.210563
     -1.696697      2.249199      2.249199      4.498399
     -1.686687      2.108652      2.108652      4.217304
     -1.676677      2.632485      2.632485      5.264971
     -1.666667      3.752238      3.752238      7.504476
     -1.656657      5.348989      5.348989     10.697978
     -1.646647      7.216989      7.216989     14.433978
     -1.636637      9.058292      9.058292     18.116584
     -1.626627     10.531688     10.531688     21.063376
