# EIG2DOS: Utility for SIESTA to obtain the electronic density of states
#  E. Artacho, Apr 1999, A. Garcia, Apr 2012
#  Nick R. Papior, Feb 2017
# ------------------------------------------
# Eigenvalues calculated from a non-polarized calculation
# Eigenvalues read from siesta.EIG
# Kpoint weights read from siesta.KP
# Using smearing parameter:   0.0500
# Using 1000 points in the energy range
# Selected bands: 1 to: 2981
# Emin, Emax in file for selected band(s):    -27.0682500    218.3422340
# Nbands, Nspin, Nk   =   2981     1     1
# E_F                 =    -4.2634 eV --> (shifted to ZERO)
# Broadening          =     0.0500 eV
#
#        E            N(up)  (=)   N(down)         Ntot
     -5.000000     34.994630     34.994630     69.989259
     -4.989990     38.309618     38.309618     76.619236
     -4.979980     41.284477     41.284477     82.568955
     -4.969970     43.350140     43.350140     86.700281
     -4.959960     44.082315     44.082315     88.164630
     -4.949950     43.318192     43.318192     86.636385
     -4.939940     41.202016     41.202016     82.404033
     -4.929930     38.158497     38.158497     76.316994
     -4.919920     34.819736     34.819736     69.639472
     -4.909910     31.933997     31.933997     63.867995
     -4.899900     30.263761     30.263761     60.527522
     -4.889890     30.457285     30.457285     60.914570
     -4.879880     32.881207     32.881207     65.762414
     -4.869870     37.442085     37.442085     74.884169
     -4.859860     43.477591     43.477591     86.955182
     -4.849850     49.814697     49.814697     99.629394
     -4.839840     55.038290     55.038290    110.076579
     -4.829830     57.905093     57.905093    115.810185
     -4.819820     57.740019     57.740019    115.480037
     -4.809810     54.636754     54.636754    109.273508
     -4.799800     49.373049     49.373049     98.746098
     -4.789790     43.093312     43.093312     86.186623
     -4.779780     36.917870     36.917870     73.835739
     -4.769770     31.647622     31.647622     63.295243
     -4.759760     27.652596     27.652596     55.305192
     -4.749750     24.927346     24.927346     49.854693
     -4.739740     23.231155     23.231155     46.462310
     -4.729730     22.228917     22.228917     44.457833
     -4.719720     21.586276     21.586276     43.172552
     -4.709710     21.014124     21.014124     42.028249
     -4.699700     20.282580     20.282580     40.565161
     -4.689690     19.231219     19.231219     38.462438
     -4.679680     17.794817     17.794817     35.589634
     -4.669670     16.046282     16.046282     32.092563
     -4.659660     14.238041     14.238041     28.476082
     -4.649650     12.811283     12.811283     25.622566
     -4.639640     12.346570     12.346570     24.693140
     -4.629630     13.447025     13.447025     26.894049
     -4.619620     16.568297     16.568297     33.136594
     -4.609610     21.832873     21.832873     43.665746
     -4.599600     28.887962     28.887962     57.775923
     -4.589590     36.877698     36.877698     73.755396
     -4.579580     44.583981     44.583981     89.167963
     -4.569570     50.733810     50.733810    101.467621
     -4.559560     54.389280     54.389280    108.778559
     -4.549550     55.273361     55.273361    110.546721
     -4.539540     53.886115     53.886115    107.772230
     -4.529530     51.343797     51.343797    102.687594
     -4.519520     48.991458     48.991458     97.982916
     -4.509510     47.936922     47.936922     95.873844
     -4.499499     48.683040     48.683040     97.366080
     -4.489489     50.987857     50.987857    101.975714
     -4.479479     53.987461     53.987461    107.974923
     -4.469469     56.517704     56.517704    113.035408
     -4.459459     57.506143     57.506143    115.012286
     -4.449449     56.294198     56.294198    112.588396
     -4.439439     52.791173     52.791173    105.582346
     -4.429429     47.436867     47.436867     94.873733
     -4.419419     41.024252     41.024252     82.048504
     -4.409409     34.473444     34.473444     68.946887
     -4.399399     28.637389     28.637389     57.274777
     -4.389389     24.174072     24.174072     48.348143
     -4.379379     21.476372     21.476372     42.952743
     -4.369369     20.638388     20.638388     41.276775
     -4.359359     21.454967     21.454967     42.909934
     -4.349349     23.471682     23.471682     46.943364
     -4.339339     26.098452     26.098452     52.196904
     -4.329329     28.769446     28.769446     57.538892
     -4.319319     31.098504     31.098504     62.197007
     -4.309309     32.970549     32.970549     65.941098
     -4.299299     34.533159     34.533159     69.066317
     -4.289289     36.092686     36.092686     72.185373
     -4.279279     37.952847     37.952847     75.905695
     -4.269269     40.248971     40.248971     80.497942
     -4.259259     42.832390     42.832390     85.664780
     -4.249249     45.252521     45.252521     90.505042
     -4.239239     46.864209     46.864209     93.728417
     -4.229229     47.045465     47.045465     94.090930
     -4.219219     45.452630     45.452630     90.905261
     -4.209209     42.199264     42.199264     84.398528
     -4.199199     37.860644     37.860644     75.721289
     -4.189189     33.285105     33.285105     66.570211
     -4.179179     29.295265     29.295265     58.590530
     -4.169169     26.421612     26.421612     52.843223
     -4.159159     24.789037     24.789037     49.578074
     -4.149149     24.190275     24.190275     48.380550
     -4.139139     24.284865     24.284865     48.569730
     -4.129129     24.810159     24.810159     49.620317
     -4.119119     25.699252     25.699252     51.398504
     -4.109109     27.053963     27.053963     54.107926
     -4.099099     28.992042     28.992042     57.984084
     -4.089089     31.451143     31.451143     62.902286
     -4.079079     34.063242     34.063242     68.126485
     -4.069069     36.190587     36.190587     72.381173
     -4.059059     37.135694     37.135694     74.271387
     -4.049049     36.437440     36.437440     72.874879
     -4.039039     34.103512     34.103512     68.207025
     -4.029029     30.653163     30.653163     61.306326
     -4.019019     26.945586     26.945586     53.891172
     -4.009009     23.885294     23.885294     47.770589
     -3.998999     22.152371     22.152371     44.304743
     -3.988989     22.071172     22.071172     44.142343
     -3.978979     23.637517     23.637517     47.275035
     -3.968969     26.638561     26.638561     53.277123
     -3.958959     30.773572     30.773572     61.547144
     -3.948949     35.721583     35.721583     71.443166
     -3.938939     41.162290     41.162290     82.324581
     -3.928929     46.789803     46.789803     93.579607
     -3.918919     52.344242     52.344242    104.688484
     -3.908909     57.645096     57.645096    115.290192
     -3.898899     62.584672     62.584672    125.169344
     -3.888889     67.056630     67.056630    134.113260
     -3.878879     70.843889     70.843889    141.687779
     -3.868869     73.535356     73.535356    147.070712
     -3.858859     74.545893     74.545893    149.091786
     -3.848849     73.268794     73.268794    146.537589
     -3.838839     69.316998     69.316998    138.633996
     -3.828829     62.750031     62.750031    125.500062
     -3.818819     54.174779     54.174779    108.349558
     -3.808809     44.658507     44.658507     89.317014
     -3.798799     35.476221     35.476221     70.952442
     -3.788789     27.785987     27.785987     55.571974
     -3.778779     22.349139     22.349139     44.698278
     -3.768769     19.382438     19.382438     38.764875
     -3.758759     18.570776     18.570776     37.141551
     -3.748749     19.214837     19.214837     38.429674
     -3.738739     20.457610     20.457610     40.915220
     -3.728729     21.526982     21.526982     43.053964
     -3.718719     21.938478     21.938478     43.876957
     -3.708709     21.614034     21.614034     43.228069
     -3.698699     20.887826     20.887826     41.775652
     -3.688689     20.391394     20.391394     40.782788
     -3.678679     20.839528     20.839528     41.679056
     -3.668669     22.771969     22.771969     45.543938
     -3.658659     26.332385     26.332385     52.664770
     -3.648649     31.168350     31.168350     62.336699
     -3.638639     36.501550     36.501550     73.003101
     -3.628629     41.351388     41.351388     82.702775
     -3.618619     44.826606     44.826606     89.653211
     -3.608609     46.368558     46.368558     92.737117
     -3.598599     45.858427     45.858427     91.716855
     -3.588589     43.572344     43.572344     87.144688
     -3.578579     40.036215     40.036215     80.072430
     -3.568569     35.855973     35.855973     71.711947
     -3.558559     31.576955     31.576955     63.153910
     -3.548549     27.590229     27.590229     55.180459
     -3.538539     24.085953     24.085953     48.171907
     -3.528529     21.056853     21.056853     42.113705
     -3.518519     18.356842     18.356842     36.713685
     -3.508509     15.803596     15.803596     31.607191
     -3.498498     13.288161     13.288161     26.576321
     -3.488488     10.844101     10.844101     21.688201
     -3.478478      8.646734      8.646734     17.293469
     -3.468468      6.948297      6.948297     13.896595
     -3.458458      5.982227      5.982227     11.964454
     -3.448448      5.874644      5.874644     11.749289
     -3.438438      6.589223      6.589223     13.178445
     -3.428428      7.918386      7.918386     15.836772
     -3.418418      9.526186      9.526186     19.052373
     -3.408408     11.040036     11.040036     22.080072
     -3.398398     12.171795     12.171795     24.343590
     -3.388388     12.827994     12.827994     25.655989
     -3.378378     13.161123     13.161123     26.322247
     -3.368368     13.532505     13.532505     27.065010
     -3.358358     14.396524     14.396524     28.793047
     -3.348348     16.151502     16.151502     32.303003
     -3.338338     19.010584     19.010584     38.021169
     -3.328328     22.924510     22.924510     45.849019
     -3.318318     27.559232     27.559232     55.118465
     -3.308308     32.320914     32.320914     64.641827
     -3.298298     36.432423     36.432423     72.864847
     -3.288288     39.075188     39.075188     78.150376
     -3.278278     39.590359     39.590359     79.180718
     -3.268268     37.685948     37.685948     75.371897
     -3.258258     33.559980     33.559980     67.119961
     -3.248248     27.865997     27.865997     55.731994
     -3.238238     21.519513     21.519513     43.039025
     -3.228228     15.426869     15.426869     30.853739
     -3.218218     10.254060     10.254060     20.508120
     -3.208208      6.320805      6.320805     12.641610
     -3.198198      3.633011      3.633011      7.266021
     -3.188188      2.004872      2.004872      4.009744
     -3.178178      1.201982      1.201982      2.403964
     -3.168168      1.055099      1.055099      2.110197
     -3.158158      1.524926      1.524926      3.049852
     -3.148148      2.718096      2.718096      5.436193
     -3.138138      4.857357      4.857357      9.714715
     -3.128128      8.204635      8.204635     16.409270
     -3.118118     12.939220     12.939220     25.878440
     -3.108108     19.012955     19.012955     38.025911
     -3.098098     26.033223     26.033223     52.066446
     -3.088088     33.241591     33.241591     66.483183
     -3.078078     39.637740     39.637740     79.275480
     -3.068068     44.238325     44.238325     88.476651
     -3.058058     46.383562     46.383562     92.767124
     -3.048048     45.958268     45.958268     91.916536
     -3.038038     43.418344     43.418344     86.836688
     -3.028028     39.604884     39.604884     79.209769
     -3.018018     35.434952     35.434952     70.869904
     -3.008008     31.614713     31.614713     63.229426
     -2.997998     28.495216     28.495216     56.990431
     -2.987988     26.106785     26.106785     52.213570
     -2.977978     24.320392     24.320392     48.640785
     -2.967968     23.038206     23.038206     46.076412
     -2.957958     22.320611     22.320611     44.641223
     -2.947948     22.396387     22.396387     44.792773
     -2.937938     23.555069     23.555069     47.110138
     -2.927928     25.970228     25.970228     51.940457
     -2.917918     29.535592     29.535592     59.071183
     -2.907908     33.797867     33.797867     67.595734
     -2.897898     38.033201     38.033201     76.066402
     -2.887888     41.449742     41.449742     82.899485
     -2.877878     43.436573     43.436573     86.873146
     -2.867868     43.752329     43.752329     87.504658
     -2.857858     42.571350     42.571350     85.142700
     -2.847848     40.370426     40.370426     80.740852
     -2.837838     37.712854     37.712854     75.425708
     -2.827828     35.031833     35.031833     70.063667
     -2.817818     32.509907     32.509907     65.019814
     -2.807808     30.098608     30.098608     60.197216
     -2.797798     27.650128     27.650128     55.300255
     -2.787788     25.078376     25.078376     50.156752
     -2.777778     22.458282     22.458282     44.916564
     -2.767768     20.013140     20.013140     40.026280
     -2.757758     18.006779     18.006779     36.013558
     -2.747748     16.612315     16.612315     33.224629
     -2.737738     15.840417     15.840417     31.680834
     -2.727728     15.570408     15.570408     31.140817
     -2.717718     15.660417     15.660417     31.320835
     -2.707708     16.059995     16.059995     32.119990
     -2.697698     16.845096     16.845096     33.690193
     -2.687688     18.146113     18.146113     36.292226
     -2.677678     20.013533     20.013533     40.027065
     -2.667668     22.313521     22.313521     44.627041
     -2.657658     24.732371     24.732371     49.464743
     -2.647648     26.899446     26.899446     53.798892
     -2.637638     28.558011     28.558011     57.116022
     -2.627628     29.678227     29.678227     59.356454
     -2.617618     30.443030     30.443030     60.886060
     -2.607608     31.121014     31.121014     62.242028
     -2.597598     31.910511     31.910511     63.821023
     -2.587588     32.846116     32.846116     65.692232
     -2.577578     33.803034     33.803034     67.606068
     -2.567568     34.565234     34.565234     69.130469
     -2.557558     34.896020     34.896020     69.792040
     -2.547548     34.578732     34.578732     69.157465
     -2.537538     33.444264     33.444264     66.888529
     -2.527528     31.420051     31.420051     62.840102
     -2.517518     28.605283     28.605283     57.210565
     -2.507508     25.329699     25.329699     50.659399
     -2.497497     22.135949     22.135949     44.271899
     -2.487487     19.658495     19.658495     39.316990
     -2.477477     18.433280     18.433280     36.866560
     -2.467467     18.718912     18.718912     37.437825
     -2.457457     20.412481     20.412481     40.824963
     -2.447447     23.101614     23.101614     46.203228
     -2.437437     26.232235     26.232235     52.464470
     -2.427427     29.318346     29.318346     58.636691
     -2.417417     32.099626     32.099626     64.199252
     -2.407407     34.574987     34.574987     69.149973
     -2.397397     36.897505     36.897505     73.795010
     -2.387387     39.183601     39.183601     78.367203
     -2.377377     41.334850     41.334850     82.669701
     -2.367367     42.970604     42.970604     85.941208
     -2.357357     43.520366     43.520366     87.040733
     -2.347347     42.447102     42.447102     84.894203
     -2.337337     39.503655     39.503655     79.007310
     -2.327327     34.901639     34.901639     69.803278
     -2.317317     29.311219     29.311219     58.622437
     -2.307307     23.691453     23.691453     47.382905
     -2.297297     19.027953     19.027953     38.055907
     -2.287287     16.085097     16.085097     32.170193
     -2.277277     15.254387     15.254387     30.508774
     -2.267267     16.524739     16.524739     33.049478
     -2.257257     19.551250     19.551250     39.102500
     -2.247247     23.776793     23.776793     47.553586
     -2.237237     28.562154     28.562154     57.124309
     -2.227227     33.292326     33.292326     66.584652
     -2.217217     37.441094     37.441094     74.882188
     -2.207207     40.593167     40.593167     81.186333
     -2.197197     42.441706     42.441706     84.883413
     -2.187187     42.790498     42.790498     85.580996
     -2.177177     41.582360     41.582360     83.164720
     -2.167167     38.947132     38.947132     77.894264
     -2.157157     35.230309     35.230309     70.460619
     -2.147147     30.954571     30.954571     61.909142
     -2.137137     26.696823     26.696823     53.393646
     -2.127127     22.918844     22.918844     45.837689
     -2.117117     19.831171     19.831171     39.662342
     -2.107107     17.362763     17.362763     34.725526
     -2.097097     15.252747     15.252747     30.505494
     -2.087087     13.211860     13.211860     26.423720
     -2.077077     11.066516     11.066516     22.133032
     -2.067067      8.818244      8.818244     17.636488
     -2.057057      6.607139      6.607139     13.214278
     -2.047047      4.619919      4.619919      9.239838
     -2.037037      3.000975      3.000975      6.001950
     -2.027027      1.806406      1.806406      3.612813
     -2.017017      1.007419      1.007419      2.014839
     -2.007007      0.524374      0.524374      1.048748
     -1.996997      0.266846      0.266846      0.533691
     -1.986987      0.163773      0.163773      0.327547
     -1.976977      0.180074      0.180074      0.360149
     -1.966967      0.323471      0.323471      0.646943
     -1.956957      0.645532      0.645532      1.291065
     -1.946947      1.236644      1.236644      2.473287
     -1.936937      2.210414      2.210414      4.420828
     -1.926927      3.673120      3.673120      7.346240
     -1.916917      5.680085      5.680085     11.360171
     -1.906907      8.191038      8.191038     16.382076
     -1.896897     11.043979     11.043979     22.087958
     -1.886887     13.965023     13.965023     27.930046
     -1.876877     16.618643     16.618643     33.237285
     -1.866867     18.685427     18.685427     37.370855
     -1.856857     19.942939     19.942939     39.885878
     -1.846847     20.324536     20.324536     40.649072
     -1.836837     19.938099     19.938099     39.876197
     -1.826827     19.036094     19.036094     38.072189
     -1.816817     17.940122     17.940122     35.880243
     -1.806807     16.939743     16.939743     33.879485
     -1.796797     16.203232     16.203232     32.406464
     -1.786787     15.742492     15.742492     31.484984
     -1.776777     15.452648     15.452648     30.905297
     -1.766767     15.204406     15.204406     30.408812
     -1.756757     14.931588     14.931588     29.863177
     -1.746747     14.657196     14.657196     29.314392
     -1.736737     14.443652     14.443652     28.887304
     -1.726727     14.308368     14.308368     28.616735
     -1.716717     14.172831     14.172831     28.345662
     -1.706707     13.890470     13.890470     27.780940
     -1.696697     13.341359     13.341359     26.682718
     -1.686687     12.531726     12.531726     25.063452
     -1.676677     11.628433     11.628433     23.256865
     -1.666667     10.897510     10.897510     21.795021
     -1.656657     10.574508     10.574508     21.149016
     -1.646647     10.735860     10.735860     21.471719
     -1.636637     11.241816     11.241816     22.483631
     -1.626627     11.784631     11.784631     23.569263
