# EIG2DOS: Utility for SIESTA to obtain the electronic density of states
#  E. Artacho, Apr 1999, A. Garcia, Apr 2012
#  Nick R. Papior, Feb 2017
# ------------------------------------------
# Eigenvalues calculated from a non-polarized calculation
# Eigenvalues read from siesta.EIG
# Kpoint weights read from siesta.KP
# Using smearing parameter:   0.0500
# Using 1000 points in the energy range
# Selected bands: 1 to: 2981
# Emin, Emax in file for selected band(s):    -27.0583579    218.3192190
# Nbands, Nspin, Nk   =   2981     1     1
# E_F                 =    -4.2880 eV --> (shifted to ZERO)
# Broadening          =     0.0500 eV
#
#        E            N(up)  (=)   N(down)         Ntot
     -5.000000     46.287668     46.287668     92.575335
     -4.989990     49.276099     49.276099     98.552198
     -4.979980     50.682706     50.682706    101.365413
     -4.969970     50.454091     50.454091    100.908182
     -4.959960     48.752042     48.752042     97.504084
     -4.949950     45.895029     45.895029     91.790059
     -4.939940     42.293415     42.293415     84.586830
     -4.929930     38.409301     38.409301     76.818602
     -4.919920     34.749208     34.749208     69.498417
     -4.909910     31.870265     31.870265     63.740531
     -4.899900     30.360764     30.360764     60.721528
     -4.889890     30.754602     30.754602     61.509204
     -4.879880     33.366465     33.366465     66.732931
     -4.869870     38.089828     38.089828     76.179655
     -4.859860     44.257540     44.257540     88.515079
     -4.849850     50.679403     50.679403    101.358806
     -4.839840     55.909777     55.909777    111.819555
     -4.829830     58.677988     58.677988    117.355975
     -4.819820     58.305598     58.305598    116.611196
     -4.809810     54.916532     54.916532    109.833064
     -4.799800     49.343072     49.343072     98.686145
     -4.789790     42.786517     42.786517     85.573033
     -4.779780     36.406193     36.406193     72.812387
     -4.769770     31.016661     31.016661     62.033322
     -4.759760     26.982054     26.982054     53.964108
     -4.749750     24.282423     24.282423     48.564846
     -4.739740     22.661580     22.661580     45.323161
     -4.729730     21.769769     21.769769     43.539537
     -4.719720     21.257763     21.257763     42.515526
     -4.709710     20.821368     20.821368     41.642736
     -4.699700     20.217274     20.217274     40.434548
     -4.689690     19.275025     19.275025     38.550050
     -4.679680     17.922433     17.922433     35.844866
     -4.669670     16.226353     16.226353     32.452706
     -4.659660     14.432093     14.432093     28.864186
     -4.649650     12.972638     12.972638     25.945277
     -4.639640     12.421656     12.421656     24.843311
     -4.629630     13.380924     13.380924     26.761847
     -4.619620     16.315478     16.315478     32.630956
     -4.609610     21.372276     21.372276     42.744552
     -4.599600     28.238204     28.238204     56.476407
     -4.589590     36.103937     36.103937     72.207874
     -4.579580     43.786328     43.786328     87.572656
     -4.569570     50.011799     50.011799    100.023598
     -4.559560     53.787770     53.787770    107.575539
     -4.549550     54.727037     54.727037    109.454075
     -4.539540     53.185166     53.185166    106.370331
     -4.529530     50.138816     50.138816    100.277632
     -4.519520     46.844347     46.844347     93.688694
     -4.509510     44.412900     44.412900     88.825801
     -4.499499     43.470290     43.470290     86.940580
     -4.489489     44.023813     44.023813     88.047625
     -4.479479     45.561565     45.561565     91.123130
     -4.469469     47.312776     47.312776     94.625551
     -4.459459     48.544034     48.544034     97.088068
     -4.449449     48.774034     48.774034     97.548068
     -4.439439     47.846387     47.846387     95.692774
     -4.429429     45.873867     45.873867     91.747734
     -4.419419     43.121623     43.121623     86.243246
     -4.409409     39.906702     39.906702     79.813403
     -4.399399     36.555630     36.555630     73.111260
     -4.389389     33.406328     33.406328     66.812656
     -4.379379     30.804261     30.804261     61.608523
     -4.369369     29.052122     29.052122     58.104245
     -4.359359     28.319774     28.319774     56.639548
     -4.349349     28.568191     28.568191     57.136382
     -4.339339     29.548122     29.548122     59.096245
     -4.329329     30.893177     30.893177     61.786353
     -4.319319     32.268022     32.268022     64.536044
     -4.309309     33.498251     33.498251     66.996502
     -4.299299     34.620176     34.620176     69.240351
     -4.289289     35.832477     35.832477     71.664954
     -4.279279     37.375220     37.375220     74.750439
     -4.269269     39.384073     39.384073     78.768146
     -4.259259     41.770524     41.770524     83.541047
     -4.249249     44.174133     44.174133     88.348265
     -4.239239     46.021510     46.021510     92.043021
     -4.229229     46.696614     46.696614     93.393229
     -4.219219     45.774451     45.774451     91.548902
     -4.209209     43.219434     43.219434     86.438868
     -4.199199     39.442806     39.442806     78.885613
     -4.189189     35.173221     35.173221     70.346441
     -4.179179     31.193774     31.193774     62.387548
     -4.169169     28.073994     28.073994     56.147987
     -4.159159     26.025192     26.025192     52.050384
     -4.149149     24.934124     24.934124     49.868248
     -4.139139     24.533283     24.533283     49.066567
     -4.129129     24.603367     24.603367     49.206734
     -4.119119     25.100136     25.100136     50.200272
     -4.109109     26.143980     26.143980     52.287960
     -4.099099     27.879873     27.879873     55.759745
     -4.089089     30.281816     30.281816     60.563633
     -4.079079     33.013776     33.013776     66.027553
     -4.069069     35.444787     35.444787     70.889574
     -4.059059     36.842922     36.842922     73.685844
     -4.049049     36.670992     36.670992     73.341984
     -4.039039     34.836565     34.836565     69.673131
     -4.029029     31.762175     31.762175     63.524351
     -4.019019     28.238143     28.238143     56.476287
     -4.009009     25.140369     25.140369     50.280738
     -3.998999     23.160512     23.160512     46.321023
     -3.988989     22.667533     22.667533     45.335067
     -3.978979     23.725432     23.725432     47.450865
     -3.968969     26.201884     26.201884     52.403769
     -3.958959     29.874444     29.874444     59.748888
     -3.948949     34.481083     34.481083     68.962166
     -3.938939     39.726710     39.726710     79.453419
     -3.928929     45.292460     45.292460     90.584919
     -3.918919     50.877115     50.877115    101.754230
     -3.908909     56.252593     56.252593    112.505186
     -3.898899     61.283130     61.283130    122.566259
     -3.888889     65.870604     65.870604    131.741207
     -3.878879     69.839642     69.839642    139.679284
     -3.868869     72.829852     72.829852    145.659704
     -3.858859     74.279858     74.279858    148.559716
     -3.848849     73.551726     73.551726    147.103452
     -3.838839     70.169810     70.169810    140.339621
     -3.828829     64.075459     64.075459    128.150918
     -3.818819     55.772577     55.772577    111.545154
     -3.808809     46.279502     46.279502     92.559003
     -3.798799     36.890857     36.890857     73.781715
     -3.788789     28.839494     28.839494     57.678989
     -3.778779     22.986353     22.986353     45.972705
     -3.768769     19.641247     19.641247     39.282495
     -3.758759     18.554303     18.554303     37.108606
     -3.748749     19.055108     19.055108     38.110216
     -3.738739     20.280474     20.280474     40.560947
     -3.728729     21.424007     21.424007     42.848015
     -3.718719     21.949178     21.949178     43.898357
     -3.708709     21.720721     21.720721     43.441442
     -3.698699     21.024224     21.024224     42.048448
     -3.688689     20.463910     20.463910     40.927820
     -3.678679     20.756903     20.756903     41.513806
     -3.668669     22.475889     22.475889     44.951778
     -3.658659     25.819927     25.819927     51.639853
     -3.648649     30.498371     30.498371     60.996743
     -3.638639     35.781920     35.781920     71.563840
     -3.628629     40.710968     40.710968     81.421937
     -3.618619     44.381921     44.381921     88.763842
     -3.608609     46.196616     46.196616     92.393233
     -3.598599     45.983391     45.983391     91.966782
     -3.588589     43.967195     43.967195     87.934390
     -3.578579     40.635338     40.635338     81.270676
     -3.568569     36.573050     36.573050     73.146101
     -3.558559     32.323664     32.323664     64.647329
     -3.548549     28.292577     28.292577     56.585155
     -3.538539     24.695429     24.695429     49.390859
     -3.528529     21.553982     21.553982     43.107964
     -3.518519     18.746531     18.746531     37.493061
     -3.508509     16.104667     16.104667     32.209334
     -3.498498     13.521799     13.521799     27.043598
     -3.488488     11.025772     11.025772     22.051543
     -3.478478      8.783717      8.783717     17.567433
     -3.468468      7.041938      7.041938     14.083877
     -3.458458      6.032316      6.032316     12.064633
     -3.448448      5.883347      5.883347     11.766693
     -3.438438      6.563064      6.563064     13.126127
     -3.428428      7.867782      7.867782     15.735565
     -3.418418      9.462635      9.462635     18.925270
     -3.408408     10.971638     10.971638     21.943276
     -3.398398     12.098551     12.098551     24.197102
     -3.388388     12.738891     12.738891     25.477782
     -3.378378     13.034772     13.034772     26.069544
     -3.368368     13.341667     13.341667     26.683335
     -3.358358     14.115118     14.115118     28.230236
     -3.348348     15.761864     15.761864     31.523727
     -3.338338     18.509633     18.509633     37.019267
     -3.328328     22.329025     22.329025     44.658050
     -3.318318     26.910659     26.910659     53.821318
     -3.308308     31.687874     31.687874     63.375749
     -3.298298     35.906166     35.906166     71.812331
     -3.288288     38.753375     38.753375     77.506750
     -3.278278     39.550232     39.550232     79.100464
     -3.268268     37.956275     37.956275     75.912550
     -3.258258     34.105775     34.105775     68.211549
     -3.248248     28.595730     28.595730     57.191460
     -3.238238     22.313028     22.313028     44.626056
     -3.228228     16.171186     16.171186     32.342372
     -3.218218     10.871086     10.871086     21.742172
     -3.208208      6.776984      6.776984     13.553969
     -3.198198      3.930830      3.930830      7.861660
     -3.188188      2.163187      2.163187      4.326374
     -3.178178      1.233155      1.233155      2.466311
     -3.168168      0.943799      0.943799      1.887598
     -3.158158      1.210393      1.210393      2.420787
     -3.148148      2.082113      2.082113      4.164226
     -3.138138      3.724331      3.724331      7.448662
     -3.128128      6.364882      6.364882     12.729764
     -3.118118     10.205914     10.205914     20.411827
     -3.108108     15.311859     15.311859     30.623718
     -3.098098     21.502116     21.502116     43.004233
     -3.088088     28.293057     28.293057     56.586113
     -3.078078     34.932705     34.932705     69.865410
     -3.068068     40.543904     40.543904     81.087808
     -3.058058     44.344214     44.344214     88.688428
     -3.048048     45.866402     45.866402     91.732804
     -3.038038     45.090552     45.090552     90.181105
     -3.028028     42.431985     42.431985     84.863969
     -3.018018     38.593921     38.593921     77.187842
     -3.008008     34.353547     34.353547     68.707094
     -2.997998     30.370627     30.370627     60.741254
     -2.987988     27.082598     27.082598     54.165196
     -2.977978     24.701416     24.701416     49.402832
     -2.967968     23.285080     23.285080     46.570160
     -2.957958     22.835240     22.835240     45.670479
     -2.947948     23.369802     23.369802     46.739604
     -2.937938     24.931874     24.931874     49.863747
     -2.927928     27.524904     27.524904     55.049808
     -2.917918     31.005367     31.005367     62.010734
     -2.907908     34.999844     34.999844     69.999689
     -2.897898     38.915600     38.915600     77.831200
     -2.887888     42.070634     42.070634     84.141268
     -2.877878     43.900631     43.900631     87.801261
     -2.867868     44.148338     44.148338     88.296677
     -2.857858     42.940577     42.940577     85.881153
     -2.847848     40.712041     40.712041     81.424082
     -2.837838     38.012537     38.012537     76.025074
     -2.827828     35.291607     35.291607     70.583215
     -2.817818     32.761409     32.761409     65.522818
     -2.807808     30.393714     30.393714     60.787428
     -2.797798     28.035797     28.035797     56.071594
     -2.787788     25.570729     25.570729     51.141457
     -2.777778     23.030568     23.030568     46.061135
     -2.767768     20.603759     20.603759     41.207518
     -2.757758     18.541775     18.541775     37.083550
     -2.747748     17.028732     17.028732     34.057464
     -2.737738     16.097590     16.097590     32.195180
     -2.727728     15.645199     15.645199     31.290399
     -2.717718     15.533981     15.533981     31.067961
     -2.707708     15.710122     15.710122     31.420244
     -2.697698     16.254795     16.254795     32.509591
     -2.687688     17.327142     17.327142     34.654284
     -2.677678     19.030440     19.030440     38.060880
     -2.667668     21.288668     21.288668     42.577336
     -2.657658     23.820583     23.820583     47.641167
     -2.647648     26.238966     26.238966     52.477932
     -2.637638     28.220955     28.220955     56.441910
     -2.627628     29.646691     29.646691     59.293383
     -2.617618     30.623056     30.623056     61.246112
     -2.607608     31.384916     31.384916     62.769833
     -2.597598     32.144006     32.144006     64.288012
     -2.587588     32.979402     32.979402     65.958804
     -2.577578     33.819936     33.819936     67.639872
     -2.567568     34.497927     34.497927     68.995854
     -2.557558     34.814597     34.814597     69.629193
     -2.547548     34.577147     34.577147     69.154293
     -2.537538     33.618073     33.618073     67.236145
     -2.527528     31.835103     31.835103     63.670206
     -2.517518     29.266947     29.266947     58.533894
     -2.507508     26.168650     26.168650     52.337300
     -2.497497     23.021235     23.021235     46.042469
     -2.487487     20.434403     20.434403     40.868807
     -2.477477     18.963693     18.963693     37.927386
     -2.467467     18.920115     18.920115     37.840229
     -2.457457     20.263267     20.263267     40.526533
     -2.447447     22.631739     22.631739     45.263478
     -2.437437     25.499484     25.499484     50.998967
     -2.427427     28.387070     28.387070     56.774140
     -2.417417     31.030153     31.030153     62.060306
     -2.407407     33.426547     33.426547     66.853094
     -2.397397     35.740485     35.740485     71.480970
     -2.387387     38.112355     38.112355     76.224710
     -2.377377     40.471169     40.471169     80.942338
     -2.367367     42.450669     42.450669     84.901338
     -2.357357     43.464355     43.464355     86.928710
     -2.347347     42.919373     42.919373     85.838747
     -2.337337     40.479120     40.479120     80.958239
     -2.327327     36.255389     36.255389     72.510777
     -2.317317     30.840560     30.840560     61.681121
     -2.307307     25.164841     25.164841     50.329683
     -2.297297     20.242228     20.242228     40.484456
     -2.287287     16.908932     16.908932     33.817864
     -2.277277     15.643695     15.643695     31.287390
     -2.267267     16.509495     16.509495     33.018991
     -2.257257     19.205125     19.205125     38.410251
     -2.247247     23.185940     23.185940     46.371880
     -2.237237     27.806723     27.806723     55.613446
     -2.227227     32.445827     32.445827     64.891654
     -2.217217     36.582299     36.582299     73.164598
     -2.207207     39.817682     39.817682     79.635364
     -2.197197     41.859957     41.859957     83.719914
     -2.187187     42.506728     42.506728     85.013457
     -2.177177     41.661590     41.661590     83.323179
     -2.167167     39.386513     39.386513     78.773027
     -2.157157     35.951900     35.951900     71.903800
     -2.147147     31.826914     31.826914     63.653827
     -2.137137     27.577903     27.577903     55.155806
     -2.127127     23.701403     23.701403     47.402807
     -2.117117     20.469912     20.469912     40.939824
     -2.107107     17.872806     17.872806     35.745612
     -2.097097     15.683886     15.683886     31.367771
     -2.087087     13.614660     13.614660     27.229319
     -2.077077     11.467694     11.467694     22.935389
     -2.067067      9.214563      9.214563     18.429126
     -2.057057      6.975547      6.975547     13.951095
     -2.047047      4.934191      4.934191      9.868382
     -2.037037      3.244843      3.244843      6.489685
     -2.027027      1.978253      1.978253      3.956506
     -2.017017      1.117455      1.117455      2.234910
     -2.007007      0.588370      0.588370      1.176741
     -1.996997      0.300327      0.300327      0.600654
     -1.986987      0.178587      0.178587      0.357174
     -1.976977      0.183301      0.183301      0.366603
     -1.966967      0.317726      0.317726      0.635452
     -1.956957      0.629727      0.629727      1.259455
     -1.946947      1.206795      1.206795      2.413589
     -1.936937      2.160528      2.160528      4.321055
     -1.926927      3.596397      3.596397      7.192793
     -1.916917      5.570611      5.570611     11.141222
     -1.906907      8.045930      8.045930     16.091860
     -1.896897     10.865715     10.865715     21.731429
     -1.886887     13.763443     13.763443     27.526886
     -1.876877     16.411830     16.411830     32.823660
     -1.866867     18.498419     18.498419     36.996838
     -1.856857     19.803399     19.803399     39.606797
     -1.846847     20.255459     20.255459     40.510918
     -1.836837     19.949084     19.949084     39.898169
     -1.826827     19.115584     19.115584     38.231168
     -1.816817     18.049986     18.049986     36.099972
     -1.806807     17.010780     17.010780     34.021560
     -1.796797     16.127670     16.127670     32.255339
     -1.786787     15.360761     15.360761     30.721522
     -1.776777     14.538486     14.538486     29.076972
     -1.766767     13.462681     13.462681     26.925363
     -1.756757     12.030630     12.030630     24.061260
     -1.746747     10.313114     10.313114     20.626227
     -1.736737      8.552933      8.552933     17.105866
     -1.726727      7.091449      7.091449     14.182897
     -1.716717      6.262227      6.262227     12.524453
     -1.706707      6.294939      6.294939     12.589879
     -1.696697      7.256054      7.256054     14.512107
     -1.686687      9.033404      9.033404     18.066808
     -1.676677     11.360543     11.360543     22.721086
     -1.666667     13.871849     13.871849     27.743697
     -1.656657     16.174551     16.174551     32.349101
     -1.646647     17.919395     17.919395     35.838790
     -1.636637     18.853852     18.853852     37.707705
     -1.626627     18.852589     18.852589     37.705178
