# EIG2DOS: Utility for SIESTA to obtain the electronic density of states
#  E. Artacho, Apr 1999, A. Garcia, Apr 2012
#  Nick R. Papior, Feb 2017
# ------------------------------------------
# Eigenvalues calculated from a non-polarized calculation
# Eigenvalues read from siesta.EIG
# Kpoint weights read from siesta.KP
# Using smearing parameter:   0.0500
# Using 1000 points in the energy range
# Selected bands: 1 to: 2981
# Emin, Emax in file for selected band(s):    -27.0380304    218.3091840
# Nbands, Nspin, Nk   =   2981     1     1
# E_F                 =    -4.3037 eV --> (shifted to ZERO)
# Broadening          =     0.0500 eV
#
#        E            N(up)  (=)   N(down)         Ntot
     -5.000000     45.901255     45.901255     91.802510
     -4.989990     49.261347     49.261347     98.522693
     -4.979980     51.006018     51.006018    102.012036
     -4.969970     51.022523     51.022523    102.045045
     -4.959960     49.449463     49.449463     98.898925
     -4.949950     46.618128     46.618128     93.236256
     -4.939940     42.972022     42.972022     85.944044
     -4.929930     39.006688     39.006688     78.013376
     -4.919920     35.249169     35.249169     70.498338
     -4.909910     32.262500     32.262500     64.525000
     -4.899900     30.633756     30.633756     61.267512
     -4.889890     30.899041     30.899041     61.798081
     -4.879880     33.385889     33.385889     66.771778
     -4.869870     38.010924     38.010924     76.021847
     -4.859860     44.131986     44.131986     88.263973
     -4.849850     50.573084     50.573084    101.146169
     -4.839840     55.882276     55.882276    111.764551
     -4.829830     58.761611     58.761611    117.523222
     -4.819820     58.494467     58.494467    116.988934
     -4.809810     55.171096     55.171096    110.342192
     -4.799800     49.607124     49.607124     99.214249
     -4.789790     43.007808     43.007808     86.015617
     -4.779780     36.551661     36.551661     73.103323
     -4.769770     31.078018     31.078018     62.156037
     -4.759760     26.972988     26.972988     53.945977
     -4.749750     24.231253     24.231253     48.462507
     -4.739740     22.602651     22.602651     45.205303
     -4.729730     21.735218     21.735218     43.470437
     -4.719720     21.270614     21.270614     42.541229
     -4.709710     20.891118     20.891118     41.782236
     -4.699700     20.338887     20.338887     40.677775
     -4.689690     19.430829     19.430829     38.861658
     -4.679680     18.084846     18.084846     36.169691
     -4.669670     16.359355     16.359355     32.718711
     -4.659660     14.491342     14.491342     28.982684
     -4.649650     12.906928     12.906928     25.813855
     -4.639640     12.179930     12.179930     24.359860
     -4.629630     12.927589     12.927589     25.855177
     -4.619620     15.651971     15.651971     31.303942
     -4.609610     20.556478     20.556478     41.112957
     -4.599600     27.389025     27.389025     54.778049
     -4.589590     35.380736     35.380736     70.761473
     -4.579580     43.343434     43.343434     86.686868
     -4.569570     49.943009     49.943009     99.886018
     -4.559560     54.085324     54.085324    108.170647
     -4.549550     55.276231     55.276231    110.552462
     -4.539540     53.799671     53.799671    107.599343
     -4.529530     50.622065     50.622065    101.244131
     -4.519520     47.050667     47.050667     94.101333
     -4.509510     44.284251     44.284251     88.568502
     -4.499499     43.037021     43.037021     86.074042
     -4.489489     43.372744     43.372744     86.745488
     -4.479479     44.785670     44.785670     89.571340
     -4.469469     46.462271     46.462271     92.924543
     -4.459459     47.599523     47.599523     95.199045
     -4.449449     47.657665     47.657665     95.315330
     -4.439439     46.474368     46.474368     92.948736
     -4.429429     44.233394     44.233394     88.466787
     -4.419419     41.335500     41.335500     82.670999
     -4.409409     38.243887     38.243887     76.487774
     -4.399399     35.366250     35.366250     70.732500
     -4.389389     32.999867     32.999867     65.999734
     -4.379379     31.326469     31.326469     62.652939
     -4.369369     30.423075     30.423075     60.846151
     -4.359359     30.264227     30.264227     60.528454
     -4.349349     30.719005     30.719005     61.438010
     -4.339339     31.567354     31.567354     63.134708
     -4.329329     32.555057     32.555057     65.110114
     -4.319319     33.478558     33.478558     66.957116
     -4.309309     34.263190     34.263190     68.526381
     -4.299299     34.993821     34.993821     69.987641
     -4.289289     35.877848     35.877848     71.755696
     -4.279279     37.150101     37.150101     74.300201
     -4.269269     38.950153     38.950153     77.900307
     -4.259259     41.211739     41.211739     82.423477
     -4.249249     43.607243     43.607243     87.214486
     -4.239239     45.586497     45.586497     91.172994
     -4.229229     46.525313     46.525313     93.050625
     -4.219219     45.949084     45.949084     91.898168
     -4.209209     43.741216     43.741216     87.482432
     -4.199199     40.228165     40.228165     80.456331
     -4.189189     36.081523     36.081523     72.163046
     -4.179179     32.073908     32.073908     64.147816
     -4.169169     28.808242     28.808242     57.616485
     -4.159159     26.552571     26.552571     53.105142
     -4.149149     25.247962     25.247962     50.495924
     -4.139139     24.660691     24.660691     49.321382
     -4.129129     24.580643     24.580643     49.161285
     -4.119119     24.956699     24.956699     49.913397
     -4.109109     25.900736     25.900736     51.801473
     -4.099099     27.559726     27.559726     55.119452
     -4.089089     29.923508     29.923508     59.847015
     -4.079079     32.678153     32.678153     65.356307
     -4.069069     35.206389     35.206389     70.412777
     -4.059059     36.768246     36.768246     73.536492
     -4.049049     36.793408     36.793408     73.586815
     -4.039039     35.140912     35.140912     70.281824
     -4.029029     32.187254     32.187254     64.374509
     -4.019019     28.695556     28.695556     57.391111
     -4.009009     25.539994     25.539994     51.079987
     -3.998999     23.431376     23.431376     46.862752
     -3.988989     22.767816     22.767816     45.535632
     -3.978979     23.642328     23.642328     47.284656
     -3.968969     25.946090     25.946090     51.892180
     -3.958959     29.473363     29.473363     58.946726
     -3.948949     33.971744     33.971744     67.943487
     -3.938939     39.147503     39.147503     78.295006
     -3.928929     44.674053     44.674053     89.348106
     -3.918919     50.236033     50.236033    100.472067
     -3.908909     55.592550     55.592550    111.185100
     -3.898899     60.606662     60.606662    121.213323
     -3.888889     65.197368     65.197368    130.394735
     -3.878879     69.221672     69.221672    138.443343
     -3.868869     72.352761     72.352761    144.705521
     -3.858859     74.044573     74.044573    148.089146
     -3.848849     73.641487     73.641487    147.282974
     -3.838839     70.616069     70.616069    141.232138
     -3.828829     64.838395     64.838395    129.676790
     -3.818819     56.745670     56.745670    113.491339
     -3.808809     47.316558     47.316558     94.633115
     -3.798799     37.844368     37.844368     75.688737
     -3.788789     29.595984     29.595984     59.191968
     -3.778779     23.487922     23.487922     46.975844
     -3.768769     19.889597     19.889597     39.779193
     -3.758759     18.599830     18.599830     37.199660
     -3.748749     18.976871     18.976871     37.953742
     -3.738739     20.163015     20.163015     40.326030
     -3.728729     21.335908     21.335908     42.671816
     -3.718719     21.927117     21.927117     43.854234
     -3.708709     21.762047     21.762047     43.524095
     -3.698699     21.090063     21.090063     42.180126
     -3.688689     20.492889     20.492889     40.985777
     -3.678679     20.686636     20.686636     41.373273
     -3.668669     22.266173     22.266173     44.532346
     -3.658659     25.469721     25.469721     50.939441
     -3.648649     30.049763     30.049763     60.099525
     -3.638639     35.308905     35.308905     70.617809
     -3.628629     40.297396     40.297396     80.594791
     -3.618619     44.097881     44.097881     88.195762
     -3.608609     46.082683     46.082683     92.165365
     -3.598599     46.047154     46.047154     92.094308
     -3.588589     44.189773     44.189773     88.379546
     -3.578579     40.981661     40.981661     81.963323
     -3.568569     37.000694     37.000694     74.001389
     -3.558559     32.788915     32.788915     65.577829
     -3.548549     28.755266     28.755266     57.510531
     -3.538539     25.123771     25.123771     50.247542
     -3.528529     21.928454     21.928454     43.856909
     -3.518519     19.060622     19.060622     38.121245
     -3.508509     16.361548     16.361548     32.723097
     -3.498498     13.728459     13.728459     27.456918
     -3.488488     11.187648     11.187648     22.375296
     -3.478478      8.902235      8.902235     17.804469
     -3.468468      7.115437      7.115437     14.230874
     -3.458458      6.059159      6.059159     12.118317
     -3.448448      5.865435      5.865435     11.730869
     -3.438438      6.508231      6.508231     13.016461
     -3.428428      7.790003      7.790003     15.580007
     -3.418418      9.379481      9.379481     18.758962
     -3.408408     10.899207     10.899207     21.798415
     -3.398398     12.045299     12.045299     24.090597
     -3.388388     12.700781     12.700781     25.401563
     -3.378378     12.994073     12.994073     25.988147
     -3.368368     13.270288     13.270288     26.540575
     -3.358358     13.981425     13.981425     27.962849
     -3.348348     15.538873     15.538873     31.077745
     -3.338338     18.182874     18.182874     36.365748
     -3.328328     21.903490     21.903490     43.806979
     -3.318318     26.416345     26.416345     52.832691
     -3.308308     31.181827     31.181827     62.363654
     -3.298298     35.467194     35.467194     70.934389
     -3.288288     38.466576     38.466576     76.933151
     -3.278278     39.483343     39.483343     78.966687
     -3.268268     38.136292     38.136292     76.272584
     -3.258258     34.507037     34.507037     69.014073
     -3.248248     29.146549     29.146549     58.293098
     -3.238238     22.918645     22.918645     45.837290
     -3.228228     16.742493     16.742493     33.484986
     -3.218218     11.346613     11.346613     22.693226
     -3.208208      7.130722      7.130722     14.261445
     -3.198198      4.166330      4.166330      8.332661
     -3.188188      2.299861      2.299861      4.599723
     -3.178178      1.291418      1.291418      2.582837
     -3.168168      0.932842      0.932842      1.865684
     -3.158158      1.118810      1.118810      2.237620
     -3.148148      1.869551      1.869551      3.739102
     -3.138138      3.312579      3.312579      6.625158
     -3.128128      5.629132      5.629132     11.258265
     -3.118118      8.970892      8.970892     17.941785
     -3.108108     13.362045     13.362045     26.724090
     -3.098098     18.617843     18.617843     37.235687
     -3.088088     24.320360     24.320360     48.640720
     -3.078078     29.880199     29.880199     59.760398
     -3.068068     34.676124     34.676124     69.352247
     -3.058058     38.219265     38.219265     76.438531
     -3.048048     40.265528     40.265528     80.531057
     -3.038038     40.822734     40.822734     81.645468
     -3.028028     40.061337     40.061337     80.122674
     -3.018018     38.199096     38.199096     76.398192
     -3.008008     35.444017     35.444017     70.888033
     -2.997998     32.031562     32.031562     64.063124
     -2.987988     28.315675     28.315675     56.631351
     -2.977978     24.826434     24.826434     49.652869
     -2.967968     22.224642     22.224642     44.449283
     -2.957958     21.149939     21.149939     42.299877
     -2.947948     22.024890     22.024890     44.049779
     -2.937938     24.901373     24.901373     49.802747
     -2.927928     29.411348     29.411348     58.822696
     -2.917918     34.836098     34.836098     69.672195
     -2.907908     40.266288     40.266288     80.532576
     -2.897898     44.804401     44.804401     89.608802
     -2.887888     47.758770     47.758770     95.517540
     -2.877878     48.784891     48.784891     97.569782
     -2.867868     47.939886     47.939886     95.879772
     -2.857858     45.632396     45.632396     91.264792
     -2.847848     42.476853     42.476853     84.953705
     -2.837838     39.094552     39.094552     78.189104
     -2.827828     35.930069     35.930069     71.860139
     -2.817818     33.152479     33.152479     66.304957
     -2.807808     30.678611     30.678611     61.357223
     -2.797798     28.301008     28.301008     56.602017
     -2.787788     25.853191     25.853191     51.706382
     -2.777778     23.327460     23.327460     46.654920
     -2.767768     20.887725     20.887725     41.775450
     -2.757758     18.778935     18.778935     37.557871
     -2.747748     17.193168     17.193168     34.386336
     -2.737738     16.176143     16.176143     32.352285
     -2.727728     15.631385     15.631385     31.262771
     -2.717718     15.416787     15.416787     30.833573
     -2.707708     15.467729     15.467729     30.935457
     -2.697698     15.861345     15.861345     31.722690
     -2.687688     16.772554     16.772554     33.545109
     -2.677678     18.343372     18.343372     36.686744
     -2.667668     20.547415     20.547415     41.094831
     -2.657658     23.140737     23.140737     46.281475
     -2.647648     25.739011     25.739011     51.478022
     -2.637638     27.980697     27.980697     55.961395
     -2.627628     29.679211     29.679211     59.358423
     -2.617618     30.874062     30.874062     61.748123
     -2.607608     31.758026     31.758026     63.516052
     -2.597598     32.537109     32.537109     65.074218
     -2.587588     33.314599     33.314599     66.629198
     -2.577578     34.057744     34.057744     68.115489
     -2.567568     34.637399     34.637399     69.274799
     -2.557558     34.886049     34.886049     69.772098
     -2.547548     34.631662     34.631662     69.263325
     -2.537538     33.713329     33.713329     67.426658
     -2.527528     32.016751     32.016751     64.033502
     -2.517518     29.549498     29.549498     59.098995
     -2.507508     26.524386     26.524386     53.048772
     -2.497497     23.384658     23.384658     46.769316
     -2.487487     20.722593     20.722593     41.445186
     -2.477477     19.104527     19.104527     38.209055
     -2.467467     18.876162     18.876162     37.752325
     -2.457457     20.041519     20.041519     40.083038
     -2.447447     22.276297     22.276297     44.552594
     -2.437437     25.071969     25.071969     50.143939
     -2.427427     27.944446     27.944446     55.888892
     -2.417417     30.610003     30.610003     61.220006
     -2.407407     33.045676     33.045676     66.091351
     -2.397397     35.405814     35.405814     70.811627
     -2.387387     37.836767     37.836767     75.673534
     -2.377377     40.284429     40.284429     80.568858
     -2.367367     42.398113     42.398113     84.796227
     -2.357357     43.592486     43.592486     87.184972
     -2.347347     43.254532     43.254532     86.509064
     -2.337337     41.009494     41.009494     82.018989
     -2.327327     36.925553     36.925553     73.851105
     -2.317317     31.561881     31.561881     63.123763
     -2.307307     25.837546     25.837546     51.675092
     -2.297297     20.779771     20.779771     41.559541
     -2.287287     17.255287     17.255287     34.510574
     -2.277277     15.778696     15.778696     31.557391
     -2.267267     16.443321     16.443321     32.886641
     -2.257257     18.967235     18.967235     37.934470
     -2.247247     22.814686     22.814686     45.629371
     -2.237237     27.343942     27.343942     54.687884
     -2.227227     31.937173     31.937173     63.874347
     -2.217217     36.080401     36.080401     72.160803
     -2.207207     39.382998     39.382998     78.765996
     -2.197197     41.554846     41.554846     83.109691
     -2.187187     42.382024     42.382024     84.764049
     -2.177177     41.740144     41.740144     83.480289
     -2.167167     39.651767     39.651767     79.303533
     -2.157157     36.348883     36.348883     72.697767
     -2.147147     32.277845     32.277845     64.555690
     -2.137137     28.007189     28.007189     56.014378
     -2.127127     24.059490     24.059490     48.118979
     -2.117117     20.745405     20.745405     41.490809
     -2.107107     18.087972     18.087972     36.175943
     -2.097097     15.877009     15.877009     31.754019
     -2.087087     13.818934     13.818934     27.637869
     -2.077077     11.696876     11.696876     23.393752
     -2.067067      9.460671      9.460671     18.921341
     -2.057057      7.216915      7.216915     14.433829
     -2.047047      5.147511      5.147511     10.295023
     -2.037037      3.414610      3.414610      6.829220
     -2.027027      2.100249      2.100249      4.200497
     -2.017017      1.196823      1.196823      2.393647
     -2.007007      0.635062      0.635062      1.270125
     -1.996997      0.324685      0.324685      0.649369
     -1.986987      0.188511      0.188511      0.377023
     -1.976977      0.183089      0.183089      0.366178
     -1.966967      0.307972      0.307972      0.615943
     -1.956957      0.607755      0.607755      1.215510
     -1.946947      1.167467      1.167467      2.334933
     -1.936937      2.097602      2.097602      4.195205
     -1.926927      3.504588      3.504588      7.009176
     -1.916917      5.448098      5.448098     10.896195
     -1.906907      7.896560      7.896560     15.793120
     -1.896897     10.699932     10.699932     21.399865
     -1.886887     13.597288     13.597288     27.194576
     -1.876877     16.264095     16.264095     32.528190
     -1.866867     18.386746     18.386746     36.773493
     -1.856857     19.740363     19.740363     39.480727
     -1.846847     20.245596     20.245596     40.491193
     -1.836837     19.987654     19.987654     39.975308
     -1.826827     19.189728     19.189728     38.379455
     -1.816817     18.142432     18.142432     36.284863
     -1.806807     17.105111     17.105111     34.210223
     -1.796797     16.212809     16.212809     32.425618
     -1.786787     15.431742     15.431742     30.863484
     -1.776777     14.591421     14.591421     29.182842
     -1.766767     13.483639     13.483639     26.967279
     -1.756757     11.979892     11.979892     23.959784
     -1.746747     10.107602     10.107602     20.215204
     -1.736737      8.051688      8.051688     16.103376
     -1.726727      6.092948      6.092948     12.185897
     -1.716717      4.526736      4.526736      9.053472
     -1.706707      3.604533      3.604533      7.209066
     -1.696697      3.512719      3.512719      7.025438
     -1.686687      4.370714      4.370714      8.741427
     -1.676677      6.217808      6.217808     12.435616
     -1.666667      8.972388      8.972388     17.944776
     -1.656657     12.378735     12.378735     24.757471
     -1.646647     15.983486     15.983486     31.966973
     -1.636637     19.185258     19.185258     38.370516
     -1.626627     21.369914     21.369914     42.739829
