# EIG2DOS: Utility for SIESTA to obtain the electronic density of states
#  E. Artacho, Apr 1999, A. Garcia, Apr 2012
#  Nick R. Papior, Feb 2017
# ------------------------------------------
# Eigenvalues calculated from a non-polarized calculation
# Eigenvalues read from siesta.EIG
# Kpoint weights read from siesta.KP
# Using smearing parameter:   0.0500
# Using 1000 points in the energy range
# Selected bands: 1 to: 2981
# Emin, Emax in file for selected band(s):    -27.0348396    218.3227230
# Nbands, Nspin, Nk   =   2981     1     1
# E_F                 =    -4.2877 eV --> (shifted to ZERO)
# Broadening          =     0.0500 eV
#
#        E            N(up)  (=)   N(down)         Ntot
     -5.000000     44.506479     44.506479     89.012959
     -4.989990     46.012952     46.012952     92.025904
     -4.979980     46.615720     46.615720     93.231440
     -4.969970     46.302396     46.302396     92.604792
     -4.959960     45.075831     45.075831     90.151663
     -4.949950     42.994531     42.994531     85.989061
     -4.939940     40.219631     40.219631     80.439263
     -4.929930     37.047930     37.047930     74.095860
     -4.919920     33.921394     33.921394     67.842787
     -4.909910     31.407803     31.407803     62.815607
     -4.899900     30.140230     30.140230     60.280461
     -4.889890     30.696814     30.696814     61.393628
     -4.879880     33.417704     33.417704     66.835407
     -4.869870     38.201405     38.201405     76.402810
     -4.859860     44.375179     44.375179     88.750357
     -4.849850     50.746502     50.746502    101.493004
     -4.839840     55.881025     55.881025    111.762049
     -4.829830     58.534448     58.534448    117.068897
     -4.819820     58.061913     58.061913    116.123826
     -4.809810     54.615593     54.615593    109.231186
     -4.799800     49.040585     49.040585     98.081170
     -4.789790     42.532765     42.532765     85.065530
     -4.779780     36.232458     36.232458     72.464917
     -4.769770     30.930048     30.930048     61.860095
     -4.759760     26.968154     26.968154     53.936307
     -4.749750     24.312865     24.312865     48.625729
     -4.739740     22.703407     22.703407     45.406813
     -4.729730     21.794370     21.794370     43.588741
     -4.719720     21.247630     21.247630     42.495260
     -4.709710     20.773168     20.773168     41.546335
     -4.699700     20.140424     20.140424     40.280847
     -4.689690     19.186347     19.186347     38.372694
     -4.679680     17.839095     17.839095     35.678190
     -4.669670     16.160170     16.160170     32.320340
     -4.659660     14.387786     14.387786     28.775572
     -4.649650     12.950963     12.950963     25.901925
     -4.639640     12.426092     12.426092     24.852184
     -4.629630     13.424562     13.424562     26.849124
     -4.619620     16.423548     16.423548     32.847097
     -4.609610     21.576459     21.576459     43.152917
     -4.599600     28.562134     28.562134     57.124267
     -4.589590     36.544739     36.544739     73.089477
     -4.579580     44.301774     44.301774     88.603549
     -4.569570     50.522790     50.522790    101.045581
     -4.559560     54.199204     54.199204    108.398407
     -4.549550     54.959644     54.959644    109.919287
     -4.539540     53.203393     53.203393    106.406785
     -4.529530     49.961285     49.961285     99.922569
     -4.519520     46.533410     46.533410     93.066819
     -4.509510     44.051668     44.051668     88.103337
     -4.499499     43.141003     43.141003     86.282006
     -4.489489     43.797448     43.797448     87.594896
     -4.479479     45.498723     45.498723     90.997446
     -4.469469     47.467207     47.467207     94.934414
     -4.459459     48.958175     48.958175     97.916350
     -4.449449     49.461672     49.461672     98.923345
     -4.439439     48.767924     48.767924     97.535848
     -4.429429     46.918804     46.918804     93.837608
     -4.419419     44.114763     44.114763     88.229526
     -4.409409     40.645756     40.645756     81.291511
     -4.399399     36.871195     36.871195     73.742391
     -4.389389     33.219866     33.219866     66.439732
     -4.379379     30.156619     30.156619     60.313238
     -4.369369     28.088325     28.088325     56.176651
     -4.359359     27.238000     27.238000     54.476000
     -4.349349     27.557897     27.557897     55.115793
     -4.339339     28.744003     28.744003     57.488005
     -4.329329     30.358800     30.358800     60.717600
     -4.319319     32.005844     32.005844     64.011688
     -4.309309     33.472029     33.472029     66.944057
     -4.299299     34.775742     34.775742     69.551483
     -4.289289     36.109935     36.109935     72.219870
     -4.279279     37.713412     37.713412     75.426825
     -4.269269     39.722097     39.722097     79.444193
     -4.259259     42.050515     42.050515     84.101030
     -4.249249     44.346733     44.346733     88.693467
     -4.239239     46.052813     46.052813     92.105626
     -4.229229     46.574258     46.574258     93.148515
     -4.219219     45.510632     45.510632     91.021264
     -4.209209     42.849366     42.849366     85.698731
     -4.199199     39.018284     39.018284     78.036568
     -4.189189     34.752390     34.752390     69.504781
     -4.179179     30.829579     30.829579     61.659157
     -4.169169     27.804489     27.804489     55.608977
     -4.159159     25.868546     25.868546     51.737092
     -4.149149     24.889707     24.889707     49.779413
     -4.139139     24.588189     24.588189     49.176378
     -4.129129     24.741512     24.741512     49.483023
     -4.119119     25.309503     25.309503     50.619005
     -4.109109     26.417756     26.417756     52.835512
     -4.099099     28.209994     28.209994     56.419987
     -4.089089     30.648089     30.648089     61.296179
     -4.079079     33.375801     33.375801     66.751602
     -4.069069     35.744029     35.744029     71.488057
     -4.059059     37.017296     37.017296     74.034592
     -4.049049     36.676616     36.676616     73.353232
     -4.039039     34.665985     34.665985     69.331970
     -4.029029     31.449438     31.449438     62.898875
     -4.019019     27.848177     27.848177     55.696354
     -4.009009     24.748484     24.748484     49.496968
     -3.998999     22.831977     22.831977     45.663954
     -3.988989     22.445118     22.445118     44.890236
     -3.978979     23.626959     23.626959     47.253918
     -3.968969     26.224707     26.224707     52.449414
     -3.958959     30.002139     30.002139     60.004277
     -3.948949     34.689275     34.689275     69.378550
     -3.938939     39.987544     39.987544     79.975087
     -3.928929     45.578521     45.578521     91.157043
     -3.918919     51.165091     51.165091    102.330182
     -3.908909     56.525586     56.525586    113.051173
     -3.898899     61.529994     61.529994    123.059987
     -3.888889     66.081865     66.081865    132.163729
     -3.878879     70.002046     70.002046    140.004092
     -3.868869     72.923479     72.923479    145.846957
     -3.858859     74.281242     74.281242    148.562483
     -3.848849     73.443126     73.443126    146.886253
     -3.838839     69.950530     69.950530    139.901060
     -3.828829     63.768866     63.768866    127.537733
     -3.818819     55.424159     55.424159    110.848317
     -3.808809     45.945913     45.945913     91.891826
     -3.798799     36.624489     36.624489     73.248977
     -3.788789     28.674761     28.674761     57.349523
     -3.778779     22.932242     22.932242     45.864484
     -3.768769     19.681457     19.681457     39.362914
     -3.758759     18.653720     18.653720     37.307441
     -3.748749     19.170203     19.170203     38.340407
     -3.738739     20.370959     20.370959     40.741918
     -3.728729     21.463136     21.463136     42.926273
     -3.718719     21.930236     21.930236     43.860471
     -3.708709     21.657955     21.657955     43.315910
     -3.698699     20.947842     20.947842     41.895685
     -3.688689     20.410448     20.410448     40.820895
     -3.678679     20.757707     20.757707     41.515414
     -3.668669     22.547185     22.547185     45.094370
     -3.658659     25.957597     25.957597     51.915194
     -3.648649     30.679129     30.679129     61.358258
     -3.638639     35.970318     35.970318     71.940637
     -3.628629     40.869522     40.869522     81.739044
     -3.618619     44.480652     44.480652     88.961303
     -3.608609     46.219132     46.219132     92.438263
     -3.598599     45.928564     45.928564     91.857128
     -3.588589     43.847251     43.847251     87.694501
     -3.578579     40.471746     40.471746     80.943493
     -3.568569     36.391220     36.391220     72.782440
     -3.558559     32.147096     32.147096     64.294191
     -3.548549     28.137504     28.137504     56.275008
     -3.538539     24.567613     24.567613     49.135227
     -3.528529     21.449196     21.449196     42.898392
     -3.518519     18.654853     18.654853     37.309705
     -3.508509     16.016787     16.016787     32.033573
     -3.498498     13.434439     13.434439     26.868878
     -3.488488     10.943881     10.943881     21.887763
     -3.478478      8.718841      8.718841     17.437681
     -3.468468      7.007869      7.007869     14.015738
     -3.458458      6.039844      6.039844     12.079687
     -3.448448      5.935689      5.935689     11.871378
     -3.438438      6.653106      6.653106     13.306212
     -3.428428      7.978037      7.978037     15.956074
     -3.418418      9.568621      9.568621     19.137242
     -3.408408     11.048528     11.048528     22.097055
     -3.398398     12.129437     12.129437     24.258875
     -3.388388     12.721786     12.721786     25.443572
     -3.378378     12.985488     12.985488     25.970975
     -3.368368     13.291344     13.291344     26.582688
     -3.358358     14.103209     14.103209     28.206418
     -3.348348     15.826568     15.826568     31.653136
     -3.338338     18.677623     18.677623     37.355247
     -3.328328     22.605869     22.605869     45.211738
     -3.318318     27.273828     27.273828     54.547656
     -3.308308     32.085475     32.085475     64.170950
     -3.298298     36.264794     36.264794     72.529587
     -3.288288     38.995791     38.995791     77.991582
     -3.278278     39.618345     39.618345     79.236690
     -3.268268     37.830394     37.830394     75.660788
     -3.258258     33.811128     33.811128     67.622255
     -3.248248     28.192838     28.192838     56.385675
     -3.238238     21.876533     21.876533     43.753065
     -3.228228     15.767007     15.767007     31.534013
     -3.218218     10.541197     10.541197     21.082394
     -3.208208      6.535803      6.535803     13.071605
     -3.198198      3.771061      3.771061      7.542122
     -3.188188      2.065565      2.065565      4.131131
     -3.178178      1.174681      1.174681      2.349361
     -3.168168      0.901272      0.901272      1.802543
     -3.158158      1.158230      1.158230      2.316460
     -3.148148      1.984453      1.984453      3.968906
     -3.138138      3.521919      3.521919      7.043838
     -3.128128      5.958569      5.958569     11.917138
     -3.118118      9.442348      9.442348     18.884695
     -3.108108     13.982618     13.982618     27.965236
     -3.098098     19.371798     19.371798     38.743596
     -3.088088     25.168108     25.168108     50.336215
     -3.078078     30.765512     30.765512     61.531024
     -3.068068     35.538035     35.538035     71.076070
     -3.058058     39.001645     39.001645     78.003289
     -3.048048     40.918996     40.918996     81.837991
     -3.038038     41.300662     41.300662     82.601325
     -3.028028     40.319141     40.319141     80.638283
     -3.018018     38.206441     38.206441     76.412882
     -3.008008     35.210050     35.210050     70.420100
     -2.997998     31.629484     31.629484     63.258969
     -2.987988     27.886016     27.886016     55.772032
     -2.977978     24.545881     24.545881     49.091762
     -2.967968     22.246386     22.246386     44.492772
     -2.957958     21.540412     21.540412     43.080825
     -2.947948     22.728029     22.728029     45.456058
     -2.937938     25.750337     25.750337     51.500674
     -2.927928     30.184693     30.184693     60.369386
     -2.917918     35.333543     35.333543     70.667087
     -2.907908     40.370639     40.370639     80.741278
     -2.897898     44.505502     44.505502     89.011004
     -2.887888     47.136227     47.136227     94.272453
     -2.877878     47.965687     47.965687     95.931373
     -2.867868     47.054057     47.054057     94.108114
     -2.857858     44.783192     44.783192     89.566383
     -2.847848     41.728999     41.728999     83.457999
     -2.837838     38.475080     38.475080     76.950160
     -2.827828     35.434888     35.434888     70.869777
     -2.817818     32.755698     32.755698     65.511397
     -2.807808     30.344643     30.344643     60.689287
     -2.797798     27.998653     27.998653     55.997305
     -2.787788     25.567681     25.567681     51.135362
     -2.777778     23.064925     23.064925     46.129849
     -2.767768     20.669347     20.669347     41.338695
     -2.757758     18.628106     18.628106     37.256211
     -2.747748     17.123968     17.123968     34.247936
     -2.737738     16.191367     16.191367     32.382734
     -2.727728     15.732107     15.732107     31.464214
     -2.717718     15.616609     15.616609     31.233217
     -2.707708     15.799380     15.799380     31.598760
     -2.697698     16.365856     16.365856     32.731713
     -2.687688     17.471845     17.471845     34.943690
     -2.677678     19.209828     19.209828     38.419655
     -2.667668     21.490351     21.490351     42.980703
     -2.657658     24.023557     24.023557     48.047114
     -2.647648     26.424079     26.424079     52.848158
     -2.637638     28.381247     28.381247     56.762495
     -2.627628     29.791195     29.791195     59.582390
     -2.617618     30.771364     30.771364     61.542728
     -2.607608     31.555582     31.555582     63.111163
     -2.597598     32.343582     32.343582     64.687165
     -2.587588     33.197913     33.197913     66.395827
     -2.577578     34.033764     34.033764     68.067529
     -2.567568     34.676541     34.676541     69.353083
     -2.557558     34.926828     34.926828     69.853656
     -2.547548     34.595736     34.595736     69.191472
     -2.537538     33.524402     33.524402     67.048805
     -2.527528     31.625819     31.625819     63.251638
     -2.517518     28.960705     28.960705     57.921409
     -2.507508     25.808067     25.808067     51.616134
     -2.497497     22.665887     22.665887     45.331775
     -2.487487     20.145439     20.145439     40.290879
     -2.477477     18.785937     18.785937     37.571875
     -2.467467     18.869525     18.869525     37.739050
     -2.457457     20.325009     20.325009     40.650017
     -2.447447     22.768859     22.768859     45.537718
     -2.437437     25.667406     25.667406     51.334812
     -2.427427     28.547377     28.547377     57.094754
     -2.417417     31.158769     31.158769     62.317538
     -2.407407     33.515001     33.515001     67.030002
     -2.397397     35.792011     35.792011     71.584022
     -2.387387     38.135589     38.135589     76.271178
     -2.377377     40.473555     40.473555     80.947111
     -2.367367     42.432964     42.432964     84.865928
     -2.357357     43.417902     43.417902     86.835803
     -2.347347     42.828080     42.828080     85.656159
     -2.337337     40.326641     40.326641     80.653282
     -2.327327     36.034811     36.034811     72.069622
     -2.317317     30.561333     30.561333     61.122666
     -2.307307     24.852503     24.852503     49.705007
     -2.297297     19.930660     19.930660     39.861320
     -2.287287     16.629437     16.629437     33.258874
     -2.277277     15.416812     15.416812     30.833624
     -2.267267     16.343171     16.343171     32.686342
     -2.257257     19.098738     19.098738     38.197476
     -2.247247     23.136542     23.136542     46.273083
     -2.237237     27.813317     27.813317     55.626634
     -2.227227     32.509250     32.509250     65.018501
     -2.217217     36.701036     36.701036     73.402071
     -2.207207     39.982289     39.982289     79.964578
     -2.197197     42.049779     42.049779     84.099557
     -2.187187     42.691721     42.691721     85.383442
     -2.177177     41.809558     41.809558     83.619115
     -2.167167     39.473018     39.473018     78.946036
     -2.157157     35.968181     35.968181     71.936362
     -2.147147     31.781739     31.781739     63.563478
     -2.137137     27.492337     27.492337     54.984675
     -2.127127     23.599270     23.599270     47.198539
     -2.117117     20.368918     20.368918     40.737835
     -2.107107     17.780453     17.780453     35.560906
     -2.097097     15.599159     15.599159     31.198318
     -2.087087     13.533205     13.533205     27.066410
     -2.077077     11.386837     11.386837     22.773673
     -2.067067      9.135546      9.135546     18.271093
     -2.057057      6.902646      6.902646     13.805293
     -2.047047      4.872174      4.872174      9.744348
     -2.037037      3.196692      3.196692      6.393385
     -2.027027      1.944273      1.944273      3.888546
     -2.017017      1.095773      1.095773      2.191547
     -2.007007      0.576187      0.576187      1.152374
     -1.996997      0.295212      0.295212      0.590424
     -1.986987      0.179486      0.179486      0.358972
     -1.976977      0.191237      0.191237      0.382475
     -1.966967      0.336237      0.336237      0.672475
     -1.956957      0.664904      0.664904      1.329808
     -1.946947      1.266479      1.266479      2.532958
     -1.936937      2.252205      2.252205      4.504411
     -1.926927      3.723749      3.723749      7.447499
     -1.916917      5.729648      5.729648     11.459295
     -1.906907      8.222568      8.222568     16.445136
     -1.896897     11.036867     11.036867     22.073734
     -1.886887     13.902497     13.902497     27.804994
     -1.876877     16.497179     16.497179     32.994358
     -1.866867     18.521716     18.521716     37.043432
     -1.856857     19.773778     19.773778     39.547556
     -1.846847     20.197529     20.197529     40.395057
     -1.836837     19.895105     19.895105     39.790209
     -1.826827     19.094494     19.094494     38.188989
     -1.816817     18.076970     18.076970     36.153940
     -1.806807     17.080880     17.080880     34.161760
     -1.796797     16.215776     16.215776     32.431552
     -1.786787     15.428109     15.428109     30.856218
     -1.776777     14.542747     14.542747     29.085495
     -1.766767     13.366049     13.366049     26.732098
     -1.756757     11.800002     11.800002     23.600003
     -1.746747      9.910128      9.910128     19.820257
     -1.736737      7.918633      7.918633     15.837266
     -1.726727      6.137577      6.137577     12.275155
     -1.716717      4.883855      4.883855      9.767710
     -1.706707      4.413023      4.413023      8.826046
     -1.696697      4.882807      4.882807      9.765614
     -1.686687      6.333554      6.333554     12.667107
     -1.676677      8.669718      8.669718     17.339436
     -1.666667     11.642409     11.642409     23.284817
     -1.656657     14.851835     14.851835     29.703671
     -1.646647     17.792732     17.792732     35.585465
     -1.636637     19.949859     19.949859     39.899718
     -1.626627     20.923706     20.923706     41.847412
