# EIG2DOS: Utility for SIESTA to obtain the electronic density of states
#  E. Artacho, Apr 1999, A. Garcia, Apr 2012
#  Nick R. Papior, Feb 2017
# ------------------------------------------
# Eigenvalues calculated from a non-polarized calculation
# Eigenvalues read from siesta.EIG
# Kpoint weights read from siesta.KP
# Using smearing parameter:   0.0500
# Using 1000 points in the energy range
# Selected bands: 1 to: 2981
# Emin, Emax in file for selected band(s):    -27.0782293    218.3222330
# Nbands, Nspin, Nk   =   2981     1     1
# E_F                 =    -4.2879 eV --> (shifted to ZERO)
# Broadening          =     0.0500 eV
#
#        E            N(up)  (=)   N(down)         Ntot
     -5.000000     39.207174     39.207174     78.414349
     -4.989990     40.879774     40.879774     81.759548
     -4.979980     42.029398     42.029398     84.058795
     -4.969970     42.397141     42.397141     84.794282
     -4.959960     41.832935     41.832935     83.665871
     -4.949950     40.339093     40.339093     80.678185
     -4.939940     38.081469     38.081469     76.162939
     -4.929930     35.382806     35.382806     70.765611
     -4.919920     32.708743     32.708743     65.417486
     -4.909910     30.641382     30.641382     61.282765
     -4.899900     29.817897     29.817897     59.635793
     -4.889890     30.807212     30.807212     61.614424
     -4.879880     33.921436     33.921436     67.842871
     -4.869870     39.011152     39.011152     78.022304
     -4.859860     45.346621     45.346621     90.693243
     -4.849850     51.692287     51.692287    103.384575
     -4.839840     56.610317     56.610317    113.220633
     -4.829830     58.905216     58.905216    117.810432
     -4.819820     58.022338     58.022338    116.044677
     -4.809810     54.213679     54.213679    108.427357
     -4.799800     48.397071     48.397071     96.794142
     -4.789790     41.791704     41.791704     83.583409
     -4.779780     35.513452     35.513452     71.026904
     -4.769770     30.300984     30.300984     60.601968
     -4.759760     26.443101     26.443101     52.886201
     -4.749750     23.867454     23.867454     47.734908
     -4.739740     22.296351     22.296351     44.592703
     -4.729730     21.387064     21.387064     42.774127
     -4.719720     20.818283     20.818283     41.636565
     -4.709710     20.324009     20.324009     40.648018
     -4.699700     19.697112     19.697112     39.394224
     -4.689690     18.790402     18.790402     37.580805
     -4.679680     17.537142     17.537142     35.074284
     -4.669670     15.995580     15.995580     31.991161
     -4.659660     14.398522     14.398522     28.797043
     -4.649650     13.172410     13.172410     26.344820
     -4.639640     12.892569     12.892569     25.785138
     -4.629630     14.161936     14.161936     28.323871
     -4.619620     17.430039     17.430039     34.860078
     -4.609610     22.797782     22.797782     45.595563
     -4.599600     29.875551     29.875551     59.751102
     -4.589590     37.767986     37.767986     75.535971
     -4.579580     45.233607     45.233607     90.467213
     -4.569570     51.005269     51.005269    102.010538
     -4.559560     54.177492     54.177492    108.354984
     -4.549550     54.513440     54.513440    109.026880
     -4.539540     52.538054     52.538054    105.076108
     -4.529530     49.368064     49.368064     98.736127
     -4.519520     46.342337     46.342337     92.684673
     -4.509510     44.596878     44.596878     89.193755
     -4.499499     44.738306     44.738306     89.476612
     -4.489489     46.712227     46.712227     93.424455
     -4.479479     49.877542     49.877542     99.755085
     -4.469469     53.229307     53.229307    106.458614
     -4.459459     55.684834     55.684834    111.369668
     -4.449449     56.355395     56.355395    112.710790
     -4.439439     54.748718     54.748718    109.497436
     -4.429429     50.869840     50.869840    101.739680
     -4.419419     45.207378     45.207378     90.414757
     -4.409409     38.613377     38.613377     77.226754
     -4.399399     32.107158     32.107158     64.214315
     -4.389389     26.650278     26.650278     53.300555
     -4.379379     22.944666     22.944666     45.889331
     -4.369369     21.299497     21.299497     42.598993
     -4.359359     21.597615     21.597615     43.195230
     -4.349349     23.370436     23.370436     46.740873
     -4.339339     25.961352     25.961352     51.922704
     -4.329329     28.727809     28.727809     57.455617
     -4.319319     31.215664     31.215664     62.431329
     -4.309309     33.249336     33.249336     66.498672
     -4.299299     34.916265     34.916265     69.832530
     -4.289289     36.465376     36.465376     72.930752
     -4.279279     38.163930     38.163930     76.327860
     -4.269269     40.158236     40.158236     80.316472
     -4.259259     42.373667     42.373667     84.747334
     -4.249249     44.483483     44.483483     88.966967
     -4.239239     45.971798     45.971798     91.943597
     -4.229229     46.294996     46.294996     92.589991
     -4.219219     45.099000     45.099000     90.198000
     -4.209209     42.400150     42.400150     84.800300
     -4.199199     38.629536     38.629536     77.259072
     -4.189189     34.498887     34.498887     68.997775
     -4.179179     30.743375     30.743375     61.486750
     -4.169169     27.868768     27.868768     55.737537
     -4.159159     26.026837     26.026837     52.053673
     -4.149149     25.067357     25.067357     50.134714
     -4.139139     24.718877     24.718877     49.437754
     -4.129129     24.789733     24.789733     49.579466
     -4.119119     25.280801     25.280801     50.561601
     -4.109109     26.352051     26.352051     52.704103
     -4.099099     28.159674     28.159674     56.319348
     -4.089089     30.650060     30.650060     61.300119
     -4.079079     33.431483     33.431483     66.862967
     -4.069069     35.819000     35.819000     71.638001
     -4.059059     37.062021     37.062021     74.124043
     -4.049049     36.656811     36.656811     73.313622
     -4.039039     34.584253     34.584253     69.168505
     -4.029029     31.344586     31.344586     62.689172
     -4.019019     27.772714     27.772714     55.545428
     -4.009009     24.738735     24.738735     49.477470
     -3.998999     22.889429     22.889429     45.778859
     -3.988989     22.539338     22.539338     45.078676
     -3.978979     23.716098     23.716098     47.432196
     -3.968969     26.279450     26.279450     52.558900
     -3.958959     30.019406     30.019406     60.038812
     -3.948949     34.691114     34.691114     69.382229
     -3.938939     40.010465     40.010465     80.020930
     -3.928929     45.661789     45.661789     91.323578
     -3.918919     51.342320     51.342320    102.684639
     -3.908909     56.817822     56.817822    113.635643
     -3.898899     61.936588     61.936588    123.873177
     -3.888889     66.569610     66.569610    133.139221
     -3.878879     70.499119     70.499119    140.998237
     -3.868869     73.326703     73.326703    146.653406
     -3.858859     74.480015     74.480015    148.960029
     -3.848849     73.353746     73.353746    146.707491
     -3.838839     69.547053     69.547053    139.094105
     -3.828829     63.096436     63.096436    126.192872
     -3.818819     54.588425     54.588425    109.176851
     -3.808809     45.083112     45.083112     90.166225
     -3.798799     35.864489     35.864489     71.728977
     -3.788789     28.110297     28.110297     56.220595
     -3.778779     22.602631     22.602631     45.205261
     -3.768769     19.572294     19.572294     39.144588
     -3.758759     18.709175     18.709175     37.418350
     -3.748749     19.312725     19.312725     38.625450
     -3.738739     20.523465     20.523465     41.046931
     -3.728729     21.569402     21.569402     43.138805
     -3.718719     21.969476     21.969476     43.938953
     -3.708709     21.649872     21.649872     43.299744
     -3.698699     20.945603     20.945603     41.891206
     -3.688689     20.481878     20.481878     40.963756
     -3.678679     20.959183     20.959183     41.918367
     -3.668669     22.898808     22.898808     45.797615
     -3.658659     26.429775     26.429775     52.859549
     -3.648649     31.197576     31.197576     62.395152
     -3.638639     36.438801     36.438801     72.877602
     -3.628629     41.200965     41.200965     82.401929
     -3.618619     44.622749     44.622749     89.245497
     -3.608609     46.163820     46.163820     92.327640
     -3.598599     45.703962     45.703962     91.407923
     -3.588589     43.499856     43.499856     86.999711
     -3.578579     40.049747     40.049747     80.099494
     -3.568569     35.935575     35.935575     71.871149
     -3.558559     31.689941     31.689941     63.379883
     -3.548549     27.703233     27.703233     55.406467
     -3.538539     24.172947     24.172947     48.345894
     -3.528529     21.102328     21.102328     42.204656
     -3.518519     18.356101     18.356101     36.712201
     -3.508509     15.762245     15.762245     31.524490
     -3.498498     13.221396     13.221396     26.442791
     -3.488488     10.775039     10.775039     21.550078
     -3.478478      8.602965      8.602965     17.205931
     -3.468468      6.956492      6.956492     13.912984
     -3.458458      6.061383      6.061383     12.122767
     -3.448448      6.029114      6.029114     12.058228
     -3.438438      6.803381      6.803381     13.606762
     -3.428428      8.155537      8.155537     16.311074
     -3.418418      9.734110      9.734110     19.468221
     -3.408408     11.163595     11.163595     22.327190
     -3.398398     12.169695     12.169695     24.339390
     -3.388388     12.688163     12.688163     25.376327
     -3.378378     12.909138     12.909138     25.818276
     -3.368368     13.230059     13.230059     26.460118
     -3.358358     14.130083     14.130083     28.260167
     -3.348348     16.013107     16.013107     32.026215
     -3.338338     19.073554     19.073554     38.147108
     -3.328328     23.218487     23.218487     46.436974
     -3.318318     28.052246     28.052246     56.104492
     -3.308308     32.918102     32.918102     65.836204
     -3.298298     36.997612     36.997612     73.995225
     -3.288288     39.471564     39.471564     78.943127
     -3.278278     39.725112     39.725112     79.450225
     -3.268268     37.539194     37.539194     75.078388
     -3.258258     33.185049     33.185049     66.370097
     -3.248248     27.362825     27.362825     54.725650
     -3.238238     20.995849     20.995849     41.991698
     -3.228228     14.965469     14.965469     29.930939
     -3.218218      9.897254      9.897254     19.794507
     -3.208208      6.072753      6.072753     12.145506
     -3.198198      3.471865      3.471865      6.943729
     -3.188188      1.895293      1.895293      3.790585
     -3.178178      1.101762      1.101762      2.203524
     -3.168168      0.914671      0.914671      1.829343
     -3.158158      1.282816      1.282816      2.565632
     -3.148148      2.298134      2.298134      4.596267
     -3.138138      4.174502      4.174502      8.349003
     -3.128128      7.184687      7.184687     14.369373
     -3.118118     11.552322     11.552322     23.104644
     -3.108108     17.311845     17.311845     34.623689
     -3.098098     24.178415     24.178415     48.356830
     -3.088088     31.493763     31.493763     62.987525
     -3.078078     38.307830     38.307830     76.615660
     -3.068068     43.606480     43.606480     87.212961
     -3.058058     46.617895     46.617895     93.235790
     -3.048048     47.069085     47.069085     94.138170
     -3.038038     45.266592     45.266592     90.533185
     -3.028028     41.954273     41.954273     83.908546
     -3.018018     38.015412     38.015412     76.030823
     -3.008008     34.166109     34.166109     68.332218
     -2.997998     30.782302     30.782302     61.564603
     -2.987988     27.920781     27.920781     55.841562
     -2.977978     25.489772     25.489772     50.979544
     -2.967968     23.457214     23.457214     46.914429
     -2.957958     21.982499     21.982499     43.964998
     -2.947948     21.408135     21.408135     42.816270
     -2.937938     22.119028     22.119028     44.238056
     -2.927928     24.337145     24.337145     48.674290
     -2.917918     27.947775     27.947775     55.895549
     -2.907908     32.442291     32.442291     64.884582
     -2.897898     37.015376     37.015376     74.030751
     -2.887888     40.789230     40.789230     81.578459
     -2.877878     43.080087     43.080087     86.160173
     -2.867868     43.599719     43.599719     87.199438
     -2.857858     42.509578     42.509578     85.019157
     -2.847848     40.308681     40.308681     80.617363
     -2.837838     37.609615     37.609615     75.219230
     -2.827828     34.904989     34.904989     69.809978
     -2.817818     32.425677     32.425677     64.851354
     -2.807808     30.142777     30.142777     60.285553
     -2.797798     27.892455     27.892455     55.784911
     -2.787788     25.544015     25.544015     51.088030
     -2.777778     23.116763     23.116763     46.233527
     -2.767768     20.787459     20.787459     41.574917
     -2.757758     18.796511     18.796511     37.593022
     -2.747748     17.319962     17.319962     34.639923
     -2.737738     16.391212     16.391212     32.782423
     -2.727728     15.921083     15.921083     31.842166
     -2.717718     15.798374     15.798374     31.596748
     -2.707708     15.997745     15.997745     31.995490
     -2.697698     16.614700     16.614700     33.229399
     -2.687688     17.795616     17.795616     35.591232
     -2.677678     19.604163     19.604163     39.208326
     -2.667668     21.914699     21.914699     43.829397
     -2.657658     24.412557     24.412557     48.825114
     -2.647648     26.713926     26.713926     53.427853
     -2.637638     28.537682     28.537682     57.075364
     -2.627628     29.823891     29.823891     59.647781
     -2.617618     30.727157     30.727157     61.454314
     -2.607608     31.495365     31.495365     62.990731
     -2.597598     32.316323     32.316323     64.632646
     -2.587588     33.224520     33.224520     66.449040
     -2.577578     34.105163     34.105163     68.210326
     -2.567568     34.761593     34.761593     69.523186
     -2.557558     34.983110     34.983110     69.966219
     -2.547548     34.579848     34.579848     69.159695
     -2.537538     33.402911     33.402911     66.805822
     -2.527528     31.387919     31.387919     62.775838
     -2.517518     28.629228     28.629228     57.258456
     -2.507508     25.441662     25.441662     50.883324
     -2.497497     22.346821     22.346821     44.693642
     -2.487487     19.954550     19.954550     39.909100
     -2.477477     18.774094     18.774094     37.548188
     -2.467467     19.038125     19.038125     38.076249
     -2.457457     20.624501     20.624501     41.249001
     -2.447447     23.116032     23.116032     46.232063
     -2.437437     25.973704     25.973704     51.947407
     -2.427427     28.746111     28.746111     57.492222
     -2.417417     31.220751     31.220751     62.441502
     -2.407407     33.448536     33.448536     66.897071
     -2.397397     35.630453     35.630453     71.260906
     -2.387387     37.919855     37.919855     75.839710
     -2.377377     40.236764     40.236764     80.473528
     -2.367367     42.191535     42.191535     84.383070
     -2.357357     43.170487     43.170487     86.340973
     -2.347347     42.561613     42.561613     85.123227
     -2.337337     40.026938     40.026938     80.053876
     -2.327327     35.697306     35.697306     71.394613
     -2.317317     30.197045     30.197045     60.394090
     -2.307307     24.486471     24.486471     48.972943
     -2.297297     19.594218     19.594218     39.188436
     -2.287287     16.351012     16.351012     32.702023
     -2.277277     15.216007     15.216007     30.432015
     -2.267267     16.229938     16.229938     32.459876
     -2.257257     19.075803     19.075803     38.151607
     -2.247247     23.201619     23.201619     46.403237
     -2.237237     27.958724     27.958724     55.917449
     -2.227227     32.719244     32.719244     65.438487
     -2.217217     36.949462     36.949462     73.898924
     -2.207207     40.233662     40.233662     80.467324
     -2.197197     42.265311     42.265311     84.530623
     -2.187187     42.839103     42.839103     85.678206
     -2.177177     41.872799     41.872799     83.745598
     -2.167167     39.457800     39.457800     78.915600
     -2.157157     35.899508     35.899508     71.799016
     -2.147147     31.693940     31.693940     63.387880
     -2.137137     27.415181     27.415181     54.830362
     -2.127127     23.546280     23.546280     47.092560
     -2.117117     20.333362     20.333362     40.666724
     -2.107107     17.740855     17.740855     35.481710
     -2.097097     15.531356     15.531356     31.062712
     -2.087087     13.422678     13.422678     26.845356
     -2.077077     11.235307     11.235307     22.470613
     -2.067067      8.959390      8.959390     17.918780
     -2.057057      6.725193      6.725193     13.450386
     -2.047047      4.714609      4.714609      9.429219
     -2.037037      3.071913      3.071913      6.143825
     -2.027027      1.855472      1.855472      3.710945
     -2.017017      1.038859      1.038859      2.077719
     -2.007007      0.543796      0.543796      1.087592
     -1.996997      0.280385      0.280385      0.560771
     -1.986987      0.178153      0.178153      0.356305
     -1.976977      0.203562      0.203562      0.407125
     -1.966967      0.367168      0.367168      0.734336
     -1.956957      0.723866      0.723866      1.447732
     -1.946947      1.365669      1.365669      2.731337
     -1.936937      2.402804      2.402804      4.805609
     -1.926927      3.930167      3.930167      7.860335
     -1.916917      5.983425      5.983425     11.966849
     -1.906907      8.499041      8.499041     16.998082
     -1.896897     11.297762     11.297762     22.595524
     -1.886887     14.105460     14.105460     28.210919
     -1.876877     16.609615     16.609615     33.219229
     -1.866867     18.533310     18.533310     37.066620
     -1.856857     19.701884     19.701884     39.403769
     -1.846847     20.082613     20.082613     40.165226
     -1.836837     19.787894     19.787894     39.575789
     -1.826827     19.040019     19.040019     38.080038
     -1.816817     18.102113     18.102113     36.204226
     -1.806807     17.191656     17.191656     34.383312
     -1.796797     16.408865     16.408865     32.817730
     -1.786787     15.717922     15.717922     31.435845
     -1.776777     14.999708     14.999708     29.999417
     -1.766767     14.154108     14.154108     28.308215
     -1.756757     13.194024     13.194024     26.388048
     -1.746747     12.270913     12.270913     24.541826
     -1.736737     11.609865     11.609865     23.219730
     -1.726727     11.388182     11.388182     22.776364
     -1.716717     11.628612     11.628612     23.257223
     -1.706707     12.172600     12.172600     24.345200
     -1.696697     12.753152     12.753152     25.506304
     -1.686687     13.128278     13.128278     26.256555
     -1.676677     13.199184     13.199184     26.398368
     -1.666667     13.044705     13.044705     26.089411
     -1.656657     12.851884     12.851884     25.703768
     -1.646647     12.784158     12.784158     25.568316
     -1.636637     12.866271     12.866271     25.732541
     -1.626627     12.955489     12.955489     25.910977
