# EIG2DOS: Utility for SIESTA to obtain the electronic density of states
#  E. Artacho, Apr 1999, A. Garcia, Apr 2012
#  Nick R. Papior, Feb 2017
# ------------------------------------------
# Eigenvalues calculated from a non-polarized calculation
# Eigenvalues read from siesta.EIG
# Kpoint weights read from siesta.KP
# Using smearing parameter:   0.0500
# Using 1000 points in the energy range
# Selected bands: 1 to: 2981
# Emin, Emax in file for selected band(s):    -27.3164150    218.3970270
# Nbands, Nspin, Nk   =   2981     1     1
# E_F                 =    -4.1949 eV --> (shifted to ZERO)
# Broadening          =     0.0500 eV
#
#        E            N(up)  (=)   N(down)         Ntot
     -5.000000     35.134961     35.134961     70.269923
     -4.989990     39.960964     39.960964     79.921927
     -4.979980     43.935139     43.935139     87.870278
     -4.969970     46.334946     46.334946     92.669893
     -4.959960     46.723556     46.723556     93.447112
     -4.949950     45.096497     45.096497     90.192994
     -4.939940     41.886217     41.886217     83.772434
     -4.929930     37.847070     37.847070     75.694140
     -4.919920     33.887704     33.887704     67.775408
     -4.909910     30.909404     30.909404     61.818809
     -4.899900     29.666479     29.666479     59.332958
     -4.889890     30.632836     30.632836     61.265672
     -4.879880     33.869368     33.869368     67.738736
     -4.869870     38.930581     38.930581     77.861163
     -4.859860     44.881881     44.881881     89.763761
     -4.849850     50.479413     50.479413    100.958826
     -4.839840     54.490586     54.490586    108.981173
     -4.829830     56.049270     56.049270    112.098540
     -4.819820     54.903330     54.903330    109.806660
     -4.809810     51.452653     51.452653    102.905306
     -4.799800     46.571886     46.571886     93.143773
     -4.789790     41.307266     41.307266     82.614533
     -4.779780     36.578091     36.578091     73.156181
     -4.769770     32.984895     32.984895     65.969790
     -4.759760     30.755857     30.755857     61.511714
     -4.749750     29.797976     29.797976     59.595952
     -4.739740     29.793719     29.793719     59.587439
     -4.729730     30.297991     30.297991     60.595983
     -4.719720     30.820732     30.820732     61.641464
     -4.709710     30.901870     30.901870     61.803740
     -4.699700     30.187892     30.187892     60.375784
     -4.689690     28.508574     28.508574     57.017149
     -4.679680     25.939640     25.939640     51.879279
     -4.669670     22.830493     22.830493     45.660986
     -4.659660     19.778532     19.778532     39.557064
     -4.649650     17.540898     17.540898     35.081796
     -4.639640     16.887225     16.887225     33.774450
     -4.629630     18.411055     18.411055     36.822110
     -4.619620     22.335056     22.335056     44.670112
     -4.609610     28.365882     28.365882     56.731764
     -4.599600     35.667701     35.667701     71.335401
     -4.589590     43.007789     43.007789     86.015578
     -4.579580     49.069575     49.069575     98.139150
     -4.569570     52.844713     52.844713    105.689426
     -4.559560     53.954311     53.954311    107.908622
     -4.549550     52.758134     52.758134    105.516269
     -4.539540     50.196919     50.196919    100.393838
     -4.529530     47.432170     47.432170     94.864341
     -4.519520     45.433841     45.433841     90.867682
     -4.509510     44.676923     44.676923     89.353846
     -4.499499     45.047549     45.047549     90.095098
     -4.489489     45.966011     45.966011     91.932023
     -4.479479     46.652282     46.652282     93.304564
     -4.469469     46.418424     46.418424     92.836848
     -4.459459     44.880474     44.880474     89.760947
     -4.449449     42.030413     42.030413     84.060826
     -4.439439     38.173930     38.173930     76.347860
     -4.429429     33.792683     33.792683     67.585367
     -4.419419     29.406859     29.406859     58.813718
     -4.409409     25.489046     25.489046     50.978093
     -4.399399     22.432259     22.432259     44.864519
     -4.389389     20.537060     20.537060     41.074119
     -4.379379     19.981417     19.981417     39.962834
     -4.369369     20.770452     20.770452     41.540905
     -4.359359     22.701780     22.701780     45.403560
     -4.349349     25.391678     25.391678     50.783356
     -4.339339     28.377051     28.377051     56.754102
     -4.329329     31.259420     31.259420     62.518840
     -4.319319     33.825419     33.825419     67.650839
     -4.309309     36.085363     36.085363     72.170726
     -4.299299     38.210868     38.210868     76.421737
     -4.289289     40.398666     40.398666     80.797332
     -4.279279     42.717295     42.717295     85.434590
     -4.269269     44.999223     44.999223     89.998445
     -4.259259     46.827649     46.827649     93.655298
     -4.249249     47.639251     47.639251     95.278501
     -4.239239     46.922425     46.922425     93.844850
     -4.229229     44.443282     44.443282     88.886565
     -4.219219     40.401588     40.401588     80.803176
     -4.209209     35.432707     35.432707     70.865414
     -4.199199     30.435127     30.435127     60.870254
     -4.189189     26.287540     26.287540     52.575081
     -4.179179     23.576491     23.576491     47.152982
     -4.169169     22.451129     22.451129     44.902258
     -4.159159     22.659071     22.659071     45.318143
     -4.149149     23.732269     23.732269     47.464537
     -4.139139     25.226530     25.226530     50.453060
     -4.129129     26.899577     26.899577     53.799154
     -4.119119     28.744728     28.744728     57.489456
     -4.109109     30.867487     30.867487     61.734974
     -4.099099     33.273869     33.273869     66.547738
     -4.089089     35.695246     35.695246     71.390492
     -4.079079     37.568853     37.568853     75.137705
     -4.069069     38.215574     38.215574     76.431148
     -4.059059     37.141914     37.141914     74.283828
     -4.049049     34.310291     34.310291     68.620582
     -4.039039     30.229034     30.229034     60.458068
     -4.029029     25.810963     25.810963     51.621927
     -4.019019     22.074877     22.074877     44.149753
     -4.009009     19.837979     19.837979     39.675958
     -3.998999     19.530267     19.530267     39.060534
     -3.988989     21.177940     21.177940     42.355881
     -3.978979     24.513215     24.513215     49.026430
     -3.968969     29.124492     29.124492     58.248984
     -3.958959     34.576144     34.576144     69.152288
     -3.948949     40.474822     40.474822     80.949645
     -3.938939     46.498327     46.498327     92.996653
     -3.928929     52.408621     52.408621    104.817241
     -3.918919     58.049240     58.049240    116.098480
     -3.908909     63.309198     63.309198    126.618396
     -3.898899     68.045708     68.045708    136.091415
     -3.888889     71.993173     71.993173    143.986346
     -3.878879     74.715863     74.715863    149.431725
     -3.868869     75.656311     75.656311    151.312622
     -3.858859     74.287048     74.287048    148.574096
     -3.848849     70.315680     70.315680    140.631361
     -3.838839     63.857920     63.857920    127.715839
     -3.828829     55.499999     55.499999    110.999998
     -3.818819     46.215581     46.215581     92.431163
     -3.808809     37.159256     37.159256     74.318512
     -3.798799     29.402925     29.402925     58.805851
     -3.788789     23.696913     23.696913     47.393826
     -3.778779     20.323379     20.323379     40.646758
     -3.768769     19.076056     19.076056     38.152112
     -3.758759     19.362207     19.362207     38.724415
     -3.748749     20.392051     20.392051     40.784102
     -3.738739     21.403600     21.403600     42.807199
     -3.728729     21.867159     21.867159     43.734319
     -3.718719     21.620803     21.620803     43.241606
     -3.708709     20.903071     20.903071     41.806141
     -3.698699     20.270406     20.270406     40.540813
     -3.688689     20.413837     20.413837     40.827674
     -3.678679     21.919609     21.919609     43.839217
     -3.668669     25.044075     25.044075     50.088149
     -3.658659     29.580955     29.580955     59.161910
     -3.648649     34.877175     34.877175     69.754350
     -3.638639     40.001788     40.001788     80.003576
     -3.628629     44.009949     44.009949     88.019897
     -3.618619     46.202694     46.202694     92.405387
     -3.608609     46.288762     46.288762     92.577524
     -3.598599     44.405003     44.405003     88.810006
     -3.588589     41.015854     41.015854     82.031709
     -3.578579     36.751826     36.751826     73.503652
     -3.568569     32.246345     32.246345     64.492691
     -3.558559     28.005685     28.005685     56.011371
     -3.548549     24.326137     24.326137     48.652275
     -3.538539     21.268003     21.268003     42.536006
     -3.528529     18.695294     18.695294     37.390587
     -3.518519     16.375823     16.375823     32.751646
     -3.508509     14.109276     14.109276     28.218552
     -3.498498     11.831558     11.831558     23.663116
     -3.488488      9.651927      9.651927     19.303855
     -3.478478      7.812927      7.812927     15.625855
     -3.468468      6.599251      6.599251     13.198501
     -3.458458      6.238003      6.238003     12.476006
     -3.448448      6.825573      6.825573     13.651146
     -3.438438      8.298477      8.298477     16.596954
     -3.428428     10.450727     10.450727     20.901454
     -3.418418     12.990891     12.990891     25.981783
     -3.408408     15.623029     15.623029     31.246057
     -3.398398     18.126498     18.126498     36.252997
     -3.388388     20.407663     20.407663     40.815327
     -3.378378     22.507967     22.507967     45.015934
     -3.368368     24.572140     24.572140     49.144279
     -3.358358     26.792657     26.792657     53.585315
     -3.348348     29.343319     29.343319     58.686637
     -3.338338     32.304456     32.304456     64.608913
     -3.328328     35.583191     35.583191     71.166381
     -3.318318     38.851961     38.851961     77.703922
     -3.308308     41.551340     41.551340     83.102681
     -3.298298     42.999158     42.999158     85.998315
     -3.288288     42.601984     42.601984     85.203969
     -3.278278     40.097206     40.097206     80.194412
     -3.268268     35.711795     35.711795     71.423591
     -3.258258     30.146068     30.146068     60.292136
     -3.248248     24.372240     24.372240     48.744480
     -3.238238     19.329603     19.329603     38.659205
     -3.228228     15.644592     15.644592     31.289185
     -3.218218     13.482962     13.482962     26.965925
     -3.208208     12.574625     12.574625     25.149250
     -3.198198     12.380808     12.380808     24.761616
     -3.188188     12.328300     12.328300     24.656600
     -3.178178     12.025051     12.025051     24.050102
     -3.168168     11.389482     11.389482     22.778965
     -3.158158     10.661754     10.661754     21.323507
     -3.148148     10.305603     10.305603     20.611207
     -3.138138     10.840187     10.840187     21.680375
     -3.128128     12.654226     12.654226     25.308453
     -3.118118     15.852405     15.852405     31.704810
     -3.108108     20.175104     20.175104     40.350207
     -3.098098     25.020650     25.020650     50.041300
     -3.088088     29.578173     29.578173     59.156345
     -3.078078     33.043012     33.043012     66.086024
     -3.068068     34.845188     34.845188     69.690375
     -3.058058     34.800966     34.800966     69.601932
     -3.048048     33.122191     33.122191     66.244382
     -3.038038     30.284532     30.284532     60.569064
     -3.028028     26.827778     26.827778     53.655556
     -3.018018     23.192059     23.192059     46.384118
     -3.008008     19.662478     19.662478     39.324955
     -2.997998     16.423515     16.423515     32.847030
     -2.987988     13.662346     13.662346     27.324693
     -2.977978     11.643961     11.643961     23.287922
     -2.967968     10.710999     10.710999     21.421998
     -2.957958     11.208214     11.208214     22.416428
     -2.947948     13.365091     13.365091     26.730183
     -2.937938     17.180670     17.180670     34.361341
     -2.927928     22.350507     22.350507     44.701015
     -2.917918     28.266855     28.266855     56.533711
     -2.907908     34.109171     34.109171     68.218342
     -2.897898     39.017247     39.017247     78.034493
     -2.887888     42.304867     42.304867     84.609734
     -2.877878     43.642573     43.642573     87.285145
     -2.867868     43.134652     43.134652     86.269305
     -2.857858     41.249627     41.249627     82.499254
     -2.847848     38.625665     38.625665     77.251331
     -2.837838     35.832733     35.832733     71.665466
     -2.827828     33.196960     33.196960     66.393920
     -2.817818     30.762175     30.762175     61.524350
     -2.807808     28.392225     28.392225     56.784451
     -2.797798     25.944900     25.944900     51.889799
     -2.787788     23.415611     23.415611     46.831222
     -2.777778     20.974803     20.974803     41.949607
     -2.767768     18.890583     18.890583     37.781165
     -2.757758     17.396166     17.396166     34.792331
     -2.747748     16.589535     16.589535     33.179070
     -2.737738     16.424306     16.424306     32.848613
     -2.727728     16.785427     16.785427     33.570853
     -2.717718     17.584541     17.584541     35.169083
     -2.707708     18.798453     18.798453     37.596907
     -2.697698     20.419852     20.419852     40.839705
     -2.687688     22.361100     22.361100     44.722201
     -2.677678     24.396155     24.396155     48.792310
     -2.667668     26.205862     26.205862     52.411724
     -2.657658     27.517685     27.517685     55.035370
     -2.647648     28.255610     28.255610     56.511219
     -2.637638     28.597518     28.597518     57.195037
     -2.627628     28.893050     28.893050     57.786101
     -2.617618     29.485738     29.485738     58.971475
     -2.607608     30.542763     30.542763     61.085526
     -2.597598     31.982612     31.982612     63.965225
     -2.587588     33.520457     33.520457     67.040913
     -2.577578     34.780440     34.780440     69.560881
     -2.567568     35.403873     35.403873     70.807745
     -2.557558     35.116732     35.116732     70.233465
     -2.547548     33.768503     33.768503     67.537007
     -2.537538     31.371624     31.371624     62.743247
     -2.527528     28.146266     28.146266     56.292533
     -2.517518     24.538307     24.538307     49.076614
     -2.507508     21.168020     21.168020     42.336041
     -2.497497     18.696315     18.696315     37.392631
     -2.487487     17.643486     17.643486     35.286971
     -2.477477     18.229146     18.229146     36.458292
     -2.467467     20.301185     20.301185     40.602370
     -2.457457     23.388375     23.388375     46.776749
     -2.447447     26.862318     26.862318     53.724636
     -2.437437     30.149476     30.149476     60.298953
     -2.427427     32.910064     32.910064     65.820128
     -2.417417     35.108716     35.108716     70.217432
     -2.407407     36.942873     36.942873     73.885746
     -2.397397     38.656255     38.656255     77.312509
     -2.387387     40.322367     40.322367     80.644734
     -2.377377     41.708349     41.708349     83.416697
     -2.367367     42.302540     42.302540     84.605081
     -2.357357     41.512860     41.512860     83.025721
     -2.347347     38.951240     38.951240     77.902479
     -2.337337     34.665203     34.665203     69.330406
     -2.327327     29.199544     29.199544     58.399087
     -2.317317     23.460014     23.460014     46.920029
     -2.307307     18.451317     18.451317     36.902634
     -2.297297     15.011175     15.011175     30.022349
     -2.287287     13.638792     13.638792     27.277583
     -2.277277     14.448860     14.448860     28.897720
     -2.267267     17.221825     17.221825     34.443650
     -2.257257     21.498347     21.498347     42.996693
     -2.247247     26.677266     26.677266     53.354531
     -2.237237     32.099323     32.099323     64.198645
     -2.227227     37.115111     37.115111     74.230222
     -2.217217     41.141757     41.141757     82.283515
     -2.207207     43.713781     43.713781     87.427562
     -2.197197     44.532922     44.532922     89.065844
     -2.187187     43.516982     43.516982     87.033963
     -2.177177     40.835860     40.835860     81.671719
     -2.167167     36.909020     36.909020     73.818039
     -2.157157     32.336867     32.336867     64.673734
     -2.147147     27.761460     27.761460     55.522920
     -2.137137     23.693828     23.693828     47.387656
     -2.127127     20.378818     20.378818     40.757636
     -2.117117     17.763767     17.763767     35.527533
     -2.107107     15.588705     15.588705     31.177411
     -2.097097     13.551609     13.551609     27.103217
     -2.087087     11.465013     11.465013     22.930026
     -2.077077      9.333791      9.333791     18.667583
     -2.067067      7.334735      7.334735     14.669469
     -2.057057      5.729602      5.729602     11.459204
     -2.047047      4.763425      4.763425      9.526850
     -2.037037      4.585834      4.585834      9.171669
     -2.027027      5.206446      5.206446     10.412892
     -2.017017      6.479979      6.479979     12.959959
     -2.007007      8.119817      8.119817     16.239633
     -1.996997      9.747378      9.747378     19.494756
     -1.986987     10.981291     10.981291     21.962583
     -1.976977     11.550151     11.550151     23.100301
     -1.966967     11.389390     11.389390     22.778781
     -1.956957     10.677114     10.677114     21.354228
     -1.946947      9.785004      9.785004     19.570008
     -1.936937      9.158098      9.158098     18.316196
     -1.926927      9.169075      9.169075     18.338149
     -1.916917     10.001670     10.001670     20.003340
     -1.906907     11.602226     11.602226     23.204451
     -1.896897     13.709034     13.709034     27.418067
     -1.886887     15.940484     15.940484     31.880969
     -1.876877     17.906172     17.906172     35.812344
     -1.866867     19.304677     19.304677     38.609354
     -1.856857     19.984578     19.984578     39.969156
     -1.846847     19.961374     19.961374     39.922748
     -1.836837     19.392851     19.392851     38.785702
     -1.826827     18.518525     18.518525     37.037051
     -1.816817     17.573799     17.573799     35.147598
     -1.806807     16.702292     16.702292     33.404583
     -1.796797     15.902443     15.902443     31.804886
     -1.786787     15.039621     15.039621     30.079242
     -1.776777     13.925257     13.925257     27.850514
     -1.766767     12.425477     12.425477     24.850954
     -1.756757     10.541959     10.541959     21.083918
     -1.746747      8.424277      8.424277     16.848555
     -1.736737      6.314797      6.314797     12.629594
     -1.726727      4.464469      4.464469      8.928938
     -1.716717      3.066524      3.066524      6.133048
     -1.706707      2.233887      2.233887      4.467774
     -1.696697      2.013908      2.013908      4.027817
     -1.686687      2.412590      2.412590      4.825180
     -1.676677      3.400756      3.400756      6.801513
     -1.666667      4.893220      4.893220      9.786440
     -1.656657      6.716611      6.716611     13.433222
     -1.646647      8.597486      8.597486     17.194972
     -1.636637     10.198762     10.198762     20.397523
     -1.626627     11.208585     11.208585     22.417170
