# EIG2DOS: Utility for SIESTA to obtain the electronic density of states
#  E. Artacho, Apr 1999, A. Garcia, Apr 2012
#  Nick R. Papior, Feb 2017
# ------------------------------------------
# Eigenvalues calculated from a non-polarized calculation
# Eigenvalues read from siesta.EIG
# Kpoint weights read from siesta.KP
# Using smearing parameter:   0.0500
# Using 1000 points in the energy range
# Selected bands: 1 to: 2981
# Emin, Emax in file for selected band(s):    -27.2969459    218.3686900
# Nbands, Nspin, Nk   =   2981     1     1
# E_F                 =    -4.2330 eV --> (shifted to ZERO)
# Broadening          =     0.0500 eV
#
#        E            N(up)  (=)   N(down)         Ntot
     -5.000000     35.327586     35.327586     70.655173
     -4.989990     39.289502     39.289502     78.579003
     -4.979980     42.434754     42.434754     84.869508
     -4.969970     44.269081     44.269081     88.538161
     -4.959960     44.498557     44.498557     88.997113
     -4.949950     43.125060     43.125060     86.250120
     -4.939940     40.457565     40.457565     80.915130
     -4.929930     37.052348     37.052348     74.104697
     -4.919920     33.619713     33.619713     67.239426
     -4.909910     30.926670     30.926670     61.853340
     -4.899900     29.695456     29.695456     59.390912
     -4.889890     30.476657     30.476657     60.953313
     -4.879880     33.489605     33.489605     66.979209
     -4.869870     38.470254     38.470254     76.940509
     -4.859860     44.612207     44.612207     89.224415
     -4.849850     50.683433     50.683433    101.366866
     -4.839840     55.331028     55.331028    110.662057
     -4.829830     57.481814     57.481814    114.963627
     -4.819820     56.674951     56.674951    113.349902
     -4.809810     53.178502     53.178502    106.357004
     -4.799800     47.843432     47.843432     95.686863
     -4.789790     41.775903     41.775903     83.551806
     -4.779780     35.984782     35.984782     71.969565
     -4.769770     31.146678     31.146678     62.293356
     -4.759760     27.547682     27.547682     55.095364
     -4.749750     25.169078     25.169078     50.338156
     -4.739740     23.833761     23.833761     47.667522
     -4.729730     23.331991     23.331991     46.663982
     -4.719720     23.479490     23.479490     46.958980
     -4.709710     24.103609     24.103609     48.207218
     -4.699700     24.990568     24.990568     49.981136
     -4.689690     25.849367     25.849367     51.698734
     -4.679680     26.344043     26.344043     52.688086
     -4.669670     26.209074     26.209074     52.418147
     -4.659660     25.406552     25.406552     50.813104
     -4.649650     24.241207     24.241207     48.482413
     -4.639640     23.350761     23.350761     46.701521
     -4.629630     23.539033     23.539033     47.078066
     -4.619620     25.492880     25.492880     50.985760
     -4.609610     29.485405     29.485405     58.970811
     -4.599600     35.189075     35.189075     70.378150
     -4.589590     41.692824     41.692824     83.385648
     -4.579580     47.743824     47.743824     95.487648
     -4.569570     52.141569     52.141569    104.283137
     -4.559560     54.138468     54.138468    108.276935
     -4.549550     53.686393     53.686393    107.372786
     -4.539540     51.427446     51.427446    102.854893
     -4.529530     48.435101     48.435101     96.870203
     -4.519520     45.815966     45.815966     91.631932
     -4.509510     44.332876     44.332876     88.665752
     -4.499499     44.187791     44.187791     88.375582
     -4.489489     45.025825     45.025825     90.051651
     -4.479479     46.129485     46.129485     92.258969
     -4.469469     46.705091     46.705091     93.410182
     -4.459459     46.145264     46.145264     92.290528
     -4.449449     44.182386     44.182386     88.364772
     -4.439439     40.907729     40.907729     81.815459
     -4.429429     36.688754     36.688754     73.377508
     -4.419419     32.046584     32.046584     64.093168
     -4.409409     27.547207     27.547207     55.094414
     -4.399399     23.725496     23.725496     47.450991
     -4.389389     21.027791     21.027791     42.055582
     -4.379379     19.751053     19.751053     39.502106
     -4.369369     19.978159     19.978159     39.956317
     -4.359359     21.539125     21.539125     43.078250
     -4.349349     24.037614     24.037614     48.075228
     -4.339339     26.957515     26.957515     53.915030
     -4.329329     29.819799     29.819799     59.639598
     -4.319319     32.326296     32.326296     64.652591
     -4.309309     34.428223     34.428223     68.856446
     -4.299299     36.291848     36.291848     72.583695
     -4.289289     38.178481     38.178481     76.356962
     -4.279279     40.286842     40.286842     80.573684
     -4.269269     42.614500     42.614500     85.228999
     -4.259259     44.888781     44.888781     89.777562
     -4.249249     46.602696     46.602696     93.205393
     -4.239239     47.163985     47.163985     94.327970
     -4.229229     46.120470     46.120470     92.240940
     -4.219219     43.375948     43.375948     86.751897
     -4.209209     39.291482     39.291482     78.582963
     -4.199199     34.605326     34.605326     69.210652
     -4.189189     30.191866     30.191866     60.383731
     -4.179179     26.766448     26.766448     53.532897
     -4.169169     24.673150     24.673150     49.346300
     -4.159159     23.846761     23.846761     47.693523
     -4.149149     23.948640     23.948640     47.897280
     -4.139139     24.592700     24.592700     49.185400
     -4.129129     25.543403     25.543403     51.086805
     -4.119119     26.790346     26.790346     53.580691
     -4.109109     28.467229     28.467229     56.934458
     -4.099099     30.659967     30.659967     61.319935
     -4.089089     33.210059     33.210059     66.420117
     -4.079079     35.634760     35.634760     71.269520
     -4.069069     37.236137     37.236137     74.472274
     -4.059059     37.370289     37.370289     74.740579
     -4.049049     35.749036     35.749036     71.498071
     -4.039039     32.614217     32.614217     65.228434
     -4.029029     28.688127     28.688127     57.376255
     -4.019019     24.926208     24.926208     49.852416
     -4.009009     22.201628     22.201628     44.403256
     -3.998999     21.071886     21.071886     42.143772
     -3.988989     21.710884     21.710884     43.421768
     -3.978979     23.988692     23.988692     47.977384
     -3.968969     27.612795     27.612795     55.225590
     -3.958959     32.243874     32.243874     64.487749
     -3.948949     37.550565     37.550565     75.101130
     -3.938939     43.223219     43.223219     86.446438
     -3.928929     48.984843     48.984843     97.969686
     -3.918919     54.612769     54.612769    109.225538
     -3.908909     59.948318     59.948318    119.896635
     -3.898899     64.862083     64.862083    129.724165
     -3.888889     69.171828     69.171828    138.343657
     -3.878879     72.555423     72.555423    145.110845
     -3.868869     74.525039     74.525039    149.050078
     -3.858859     74.509071     74.509071    149.018141
     -3.848849     72.033587     72.033587    144.067174
     -3.838839     66.937151     66.937151    133.874301
     -3.828829     59.524404     59.524404    119.048807
     -3.818819     50.581219     50.581219    101.162438
     -3.808809     41.229431     41.229431     82.458861
     -3.798799     32.665146     32.665146     65.330292
     -3.788789     25.869900     25.869900     51.739801
     -3.778779     21.389398     21.389398     42.778795
     -3.768769     19.242936     19.242936     38.485872
     -3.758759     18.977644     18.977644     37.955287
     -3.748749     19.838048     19.838048     39.676095
     -3.738739     20.996322     20.996322     41.992645
     -3.728729     21.782291     21.782291     43.564582
     -3.718719     21.858797     21.858797     43.717593
     -3.708709     21.301686     21.301686     42.603372
     -3.698699     20.562577     20.562577     41.125155
     -3.688689     20.317544     20.317544     40.635087
     -3.678679     21.235439     21.235439     42.470877
     -3.668669     23.730099     23.730099     47.460198
     -3.658659     27.778450     27.778450     55.556900
     -3.648649     32.876560     32.876560     65.753120
     -3.638639     38.161164     38.161164     76.322329
     -3.628629     42.657777     42.657777     85.315554
     -3.618619     45.560381     45.560381     91.120761
     -3.608609     46.435597     46.435597     92.871194
     -3.598599     45.285953     45.285953     90.571907
     -3.588589     42.476433     42.476433     84.952866
     -3.578579     38.581880     38.581880     77.163759
     -3.568569     34.222540     34.222540     68.445080
     -3.558559     29.929946     29.929946     59.859891
     -3.548549     26.057356     26.057356     52.114713
     -3.538539     22.739788     22.739788     45.479576
     -3.528529     19.911754     19.911754     39.823508
     -3.518519     17.384891     17.384891     34.769782
     -3.508509     14.964398     14.964398     29.928796
     -3.498498     12.558727     12.558727     25.117455
     -3.488488     10.234879     10.234879     20.469759
     -3.478478      8.198034      8.198034     16.396068
     -3.468468      6.711159      6.711159     13.422318
     -3.458458      5.993074      5.993074     11.986149
     -3.448448      6.132959      6.132959     12.265919
     -3.438438      7.045407      7.045407     14.090814
     -3.428428      8.477516      8.477516     16.955032
     -3.418418     10.071543     10.071543     20.143087
     -3.408408     11.475570     11.475570     22.951139
     -3.398398     12.475266     12.475266     24.950532
     -3.388388     13.100476     13.100476     26.200951
     -3.378378     13.657818     13.657818     27.315636
     -3.368368     14.663804     14.663804     29.327608
     -3.358358     16.691946     16.691946     33.383892
     -3.348348     20.179926     20.179926     40.359851
     -3.338338     25.253314     25.253314     50.506627
     -3.328328     31.613171     31.613171     63.226343
     -3.318318     38.520470     38.520470     77.040939
     -3.308308     44.898102     44.898102     89.796204
     -3.298298     49.552773     49.552773     99.105546
     -3.288288     51.481468     51.481468    102.962935
     -3.278278     50.176827     50.176827    100.353654
     -3.268268     45.815223     45.815223     91.630446
     -3.258258     39.236104     39.236104     78.472208
     -3.248248     31.703588     31.703588     63.407176
     -3.238238     24.538401     24.538401     49.076801
     -3.228228     18.761790     18.761790     37.523580
     -3.218218     14.874497     14.874497     29.748995
     -3.208208     12.823717     12.823717     25.647434
     -3.198198     12.135703     12.135703     24.271406
     -3.188188     12.145622     12.145622     24.291245
     -3.178178     12.244549     12.244549     24.489097
     -3.168168     12.073814     12.073814     24.147628
     -3.158158     11.618734     11.618734     23.237468
     -3.148148     11.183412     11.183412     22.366824
     -3.138138     11.261710     11.261710     22.523421
     -3.128128     12.347476     12.347476     24.694952
     -3.118118     14.741287     14.741287     29.482575
     -3.108108     18.410089     18.410089     36.820178
     -3.098098     22.943923     22.943923     45.887845
     -3.088088     27.631799     27.631799     55.263598
     -3.078078     31.644579     31.644579     63.289159
     -3.068068     34.270520     34.270520     68.541039
     -3.058058     35.117214     35.117214     70.234429
     -3.048048     34.197172     34.197172     68.394344
     -3.038038     31.863511     31.863511     63.727021
     -3.028028     28.636173     28.636173     57.272347
     -3.018018     25.013250     25.013250     50.026500
     -3.008008     21.360284     21.360284     42.720569
     -2.997998     17.914393     17.914393     35.828786
     -2.987988     14.868930     14.868930     29.737860
     -2.977978     12.464638     12.464638     24.929276
     -2.967968     11.023307     11.023307     22.046614
     -2.957958     10.902211     10.902211     21.804422
     -2.947948     12.389410     12.389410     24.778819
     -2.937938     15.581528     15.581528     31.163056
     -2.927928     20.288234     20.288234     40.576468
     -2.917918     26.001208     26.001208     52.002417
     -2.907908     31.953044     31.953044     63.906089
     -2.897898     37.268406     37.268406     74.536811
     -2.887888     41.174979     41.174979     82.349959
     -2.877878     43.207474     43.207474     86.414947
     -2.867868     43.325473     43.325473     86.650946
     -2.857858     41.890627     41.890627     83.781255
     -2.847848     39.505660     39.505660     79.011320
     -2.837838     36.781108     36.781108     73.562216
     -2.827828     34.131381     34.131381     68.262762
     -2.817818     31.687633     31.687633     63.375266
     -2.807808     29.355582     29.355582     58.711164
     -2.797798     26.972642     26.972642     53.945283
     -2.787788     24.470863     24.470863     48.941727
     -2.777778     21.956697     21.956697     43.913393
     -2.767768     19.672151     19.672151     39.344302
     -2.757758     17.872955     17.872955     35.745910
     -2.747748     16.705958     16.705958     33.411916
     -2.737738     16.162723     16.162723     32.325446
     -2.727728     16.132555     16.132555     32.265111
     -2.717718     16.510202     16.510202     33.020403
     -2.707708     17.275951     17.275951     34.551902
     -2.697698     18.485791     18.485791     36.971581
     -2.687688     20.175386     20.175386     40.350771
     -2.677678     22.249075     22.249075     44.498150
     -2.667668     24.444268     24.444268     48.888536
     -2.657658     26.414496     26.414496     52.828992
     -2.647648     27.890729     27.890729     55.781458
     -2.637638     28.819951     28.819951     57.639901
     -2.627628     29.388560     29.388560     58.777120
     -2.617618     29.912354     29.912354     59.824709
     -2.607608     30.661447     30.661447     61.322893
     -2.597598     31.724591     31.724591     63.449182
     -2.587588     32.979899     32.979899     65.959797
     -2.577578     34.162167     34.162167     68.324334
     -2.567568     34.962911     34.962911     69.925823
     -2.557558     35.104724     35.104724     70.209448
     -2.547548     34.380047     34.380047     68.760094
     -2.537538     32.684664     32.684664     65.369328
     -2.527528     30.071028     30.071028     60.142057
     -2.517518     26.805143     26.805143     53.610286
     -2.507508     23.376270     23.376270     46.752540
     -2.497497     20.416856     20.416856     40.833712
     -2.487487     18.538203     18.538203     37.076405
     -2.477477     18.140997     18.140997     36.281995
     -2.467467     19.282777     19.282777     38.565554
     -2.457457     21.664108     21.664108     43.328216
     -2.447447     24.744426     24.744426     49.488851
     -2.437437     27.942128     27.942128     55.884256
     -2.427427     30.835926     30.835926     61.671853
     -2.417417     33.281379     33.281379     66.562758
     -2.407407     35.390987     35.390987     70.781973
     -2.397397     37.385792     37.385792     74.771584
     -2.387387     39.386848     39.386848     78.773695
     -2.377377     41.249131     41.249131     82.498262
     -2.367367     42.529556     42.529556     85.059111
     -2.357357     42.623230     42.623230     85.246459
     -2.347347     41.019450     41.019450     82.038900
     -2.337337     37.561906     37.561906     75.123812
     -2.327327     32.587046     32.587046     65.174091
     -2.317317     26.872512     26.872512     53.745024
     -2.307307     21.422178     21.422178     42.844357
     -2.297297     17.188290     17.188290     34.376580
     -2.287287     14.843411     14.843411     29.686821
     -2.277277     14.668994     14.668994     29.337988
     -2.267267     16.563047     16.563047     33.126093
     -2.257257     20.126545     20.126545     40.253090
     -2.247247     24.779976     24.779976     49.559953
     -2.237237     29.874814     29.874814     59.749628
     -2.227227     34.781509     34.781509     69.563017
     -2.217217     38.947868     38.947868     77.895737
     -2.207207     41.931613     41.931613     83.863225
     -2.197197     43.420247     43.420247     86.840494
     -2.187187     43.255005     43.255005     86.510010
     -2.177177     41.465666     41.465666     82.931332
     -2.167167     38.300427     38.300427     76.600853
     -2.157157     34.215246     34.215246     68.430492
     -2.147147     29.791743     29.791743     59.583486
     -2.137137     25.589162     25.589162     51.178324
     -2.127127     21.984205     21.984205     43.968409
     -2.117117     19.075856     19.075856     38.151711
     -2.107107     16.706676     16.706676     33.413353
     -2.097097     14.589378     14.589378     29.178755
     -2.087087     12.469436     12.469436     24.938871
     -2.077077     10.240269     10.240269     20.480538
     -2.067067      7.963712      7.963712     15.927424
     -2.057057      5.806533      5.806533     11.613067
     -2.047047      3.944444      3.944444      7.888887
     -2.037037      2.487885      2.487885      4.975771
     -2.027027      1.457062      1.457062      2.914123
     -2.017017      0.801471      0.801471      1.602942
     -2.007007      0.441440      0.441440      0.882881
     -1.996997      0.309892      0.309892      0.619783
     -1.986987      0.383195      0.383195      0.766390
     -1.976977      0.699165      0.699165      1.398331
     -1.966967      1.362100      1.362100      2.724200
     -1.956957      2.530666      2.530666      5.061332
     -1.946947      4.381037      4.381037      8.762073
     -1.936937      7.042112      7.042112     14.084225
     -1.926927     10.514621     10.514621     21.029242
     -1.916917     14.604949     14.604949     29.209897
     -1.906907     18.913324     18.913324     37.826648
     -1.896897     22.901296     22.901296     45.802591
     -1.886887     26.026508     26.026508     52.053017
     -1.876877     27.894213     27.894213     55.788426
     -1.866867     28.362023     28.362023     56.724045
     -1.856857     27.558542     27.558542     55.117084
     -1.846847     25.820675     25.820675     51.641349
     -1.836837     23.586932     23.586932     47.173865
     -1.826827     21.286662     21.286662     42.573325
     -1.816817     19.247748     19.247748     38.495496
     -1.806807     17.632181     17.632181     35.264362
     -1.796797     16.410751     16.410751     32.821503
     -1.786787     15.392157     15.392157     30.784314
     -1.776777     14.309258     14.309258     28.618515
     -1.766767     12.935883     12.935883     25.871765
     -1.756757     11.183955     11.183955     22.367911
     -1.746747      9.136082      9.136082     18.272164
     -1.736737      7.003686      7.003686     14.007373
     -1.726727      5.041271      5.041271     10.082543
     -1.716717      3.465653      3.465653      6.931306
     -1.706707      2.415765      2.415765      4.831530
     -1.696697      1.957141      1.957141      3.914281
     -1.686687      2.107965      2.107965      4.215930
     -1.676677      2.855802      2.855802      5.711603
     -1.666667      4.146986      4.146986      8.293971
     -1.656657      5.854602      5.854602     11.709204
     -1.646647      7.752043      7.752043     15.504087
     -1.636637      9.524660      9.524660     19.049321
     -1.626627     10.836315     10.836315     21.672630
