# EIG2DOS: Utility for SIESTA to obtain the electronic density of states
#  E. Artacho, Apr 1999, A. Garcia, Apr 2012
#  Nick R. Papior, Feb 2017
# ------------------------------------------
# Eigenvalues calculated from a non-polarized calculation
# Eigenvalues read from siesta.EIG
# Kpoint weights read from siesta.KP
# Using smearing parameter:   0.0500
# Using 1000 points in the energy range
# Selected bands: 1 to: 2981
# Emin, Emax in file for selected band(s):    -27.0390964    218.3176330
# Nbands, Nspin, Nk   =   2981     1     1
# E_F                 =    -4.2911 eV --> (shifted to ZERO)
# Broadening          =     0.0500 eV
#
#        E            N(up)  (=)   N(down)         Ntot
     -5.000000     44.432710     44.432710     88.865419
     -4.989990     46.645395     46.645395     93.290791
     -4.979980     47.812315     47.812315     95.624630
     -4.969970     47.889199     47.889199     95.778398
     -4.959960     46.878255     46.878255     93.756509
     -4.949950     44.852192     44.852192     89.704384
     -4.939940     41.991184     41.991184     83.982368
     -4.929930     38.612342     38.612342     77.224685
     -4.919920     35.178073     35.178073     70.356147
     -4.909910     32.276212     32.276212     64.552424
     -4.899900     30.561861     30.561861     61.123722
     -4.889890     30.644498     30.644498     61.288996
     -4.879880     32.914133     32.914133     65.828267
     -4.869870     37.340001     37.340001     74.680002
     -4.859860     43.327864     43.327864     86.655728
     -4.849850     49.742949     49.742949     99.485898
     -4.839840     55.156362     55.156362    110.312724
     -4.829830     58.261628     58.261628    116.523256
     -4.819820     58.298278     58.298278    116.596556
     -4.809810     55.289850     55.289850    110.579700
     -4.799800     49.986728     49.986728     99.973456
     -4.789790     43.553764     43.553764     87.107528
     -4.779780     37.163950     37.163950     74.327901
     -4.769770     31.679380     31.679380     63.358760
     -4.759760     27.520706     27.520706     55.041413
     -4.749750     24.713139     24.713139     49.426278
     -4.739740     23.024725     23.024725     46.049451
     -4.729730     22.108878     22.108878     44.217756
     -4.719720     21.603520     21.603520     43.207039
     -4.709710     21.182783     21.182783     42.365565
     -4.699700     20.580722     20.580722     41.161444
     -4.689690     19.610082     19.610082     39.220164
     -4.679680     18.191013     18.191013     36.382026
     -4.669670     16.390246     16.390246     32.780492
     -4.659660     14.455495     14.455495     28.910991
     -4.649650     12.820470     12.820470     25.640941
     -4.639640     12.058826     12.058826     24.117653
     -4.629630     12.778970     12.778970     25.557940
     -4.619620     15.469360     15.469360     30.938719
     -4.609610     20.322591     20.322591     40.645183
     -4.599600     27.086726     27.086726     54.173452
     -4.589590     35.008565     35.008565     70.017131
     -4.579580     42.928717     42.928717     85.857434
     -4.569570     49.545084     49.545084     99.090167
     -4.559560     53.785148     53.785148    107.570296
     -4.549550     55.155363     55.155363    110.310725
     -4.539540     53.917362     53.917362    107.834723
     -4.529530     51.000163     51.000163    102.000327
     -4.519520     47.671625     47.671625     95.343250
     -4.509510     45.101400     45.101400     90.202800
     -4.499499     43.992997     43.992997     87.985993
     -4.489489     44.422518     44.422518     88.845036
     -4.479479     45.921375     45.921375     91.842750
     -4.469469     47.733424     47.733424     95.466848
     -4.459459     49.114940     49.114940     98.229879
     -4.449449     49.552273     49.552273     99.104546
     -4.439439     48.835071     48.835071     97.670142
     -4.429429     47.004494     47.004494     94.008989
     -4.419419     44.251813     44.251813     88.503625
     -4.409409     40.845032     40.845032     81.690063
     -4.399399     37.113766     37.113766     74.227531
     -4.389389     33.461197     33.461197     66.922395
     -4.379379     30.342552     30.342552     60.685104
     -4.369369     28.175168     28.175168     56.350336
     -4.359359     27.206412     27.206412     54.412823
     -4.349349     27.413675     27.413675     54.827349
     -4.339339     28.506097     28.506097     57.012194
     -4.329329     30.041860     30.041860     60.083719
     -4.319319     31.607742     31.607742     63.215484
     -4.309309     32.974535     32.974535     65.949070
     -4.299299     34.159693     34.159693     68.319386
     -4.289289     35.378139     35.378139     70.756277
     -4.279279     36.909407     36.909407     73.818813
     -4.269269     38.933903     38.933903     77.867806
     -4.259259     41.395245     41.395245     82.790490
     -4.249249     43.940639     43.940639     87.881277
     -4.239239     45.977430     45.977430     91.954860
     -4.229229     46.850353     46.850353     93.700706
     -4.219219     46.088525     46.088525     92.177050
     -4.209209     43.618960     43.618960     87.237920
     -4.199199     39.836351     39.836351     79.672702
     -4.189189     35.479224     35.479224     70.958447
     -4.179179     31.363589     31.363589     62.727178
     -4.169169     28.103528     28.103528     56.207055
     -4.159159     25.951271     25.951271     51.902542
     -4.149149     24.817425     24.817425     49.634850
     -4.139139     24.434359     24.434359     48.868718
     -4.129129     24.560404     24.560404     49.120807
     -4.119119     25.116502     25.116502     50.233004
     -4.109109     26.190655     26.190655     52.381310
     -4.099099     27.912602     27.912602     55.825205
     -4.089089     30.266065     30.266065     60.532131
     -4.079079     32.945281     32.945281     65.890563
     -4.069069     35.353862     35.353862     70.707724
     -4.059059     36.778599     36.778599     73.557197
     -4.049049     36.673065     36.673065     73.346130
     -4.039039     34.911923     34.911923     69.823845
     -4.029029     31.879982     31.879982     63.759963
     -4.019019     28.346828     28.346828     56.693656
     -4.009009     25.195604     25.195604     50.391208
     -3.998999     23.146946     23.146946     46.293892
     -3.988989     22.602171     22.602171     45.204343
     -3.978979     23.643026     23.643026     47.286053
     -3.968969     26.133426     26.133426     52.266851
     -3.958959     29.831766     29.831766     59.663531
     -3.948949     34.453864     34.453864     68.907728
     -3.938939     39.689176     39.689176     79.378352
     -3.928929     45.212756     45.212756     90.425513
     -3.918919     50.724704     50.724704    101.449409
     -3.908909     56.004270     56.004270    112.008540
     -3.898899     60.930787     60.930787    121.861574
     -3.888889     65.431389     65.431389    130.862777
     -3.878879     69.364082     69.364082    138.728163
     -3.868869     72.400698     72.400698    144.801396
     -3.858859     73.996876     73.996876    147.993753
     -3.848849     73.504516     73.504516    147.009032
     -3.838839     70.407932     70.407932    140.815864
     -3.828829     64.588178     64.588178    129.176355
     -3.818819     56.487347     56.487347    112.974693
     -3.808809     47.080520     47.080520     94.161041
     -3.798799     37.650703     37.650703     75.301406
     -3.788789     29.452250     29.452250     58.904501
     -3.778779     23.391423     23.391423     46.782847
     -3.768769     19.831944     19.831944     39.663888
     -3.758759     18.571139     18.571139     37.142277
     -3.748749     18.967984     18.967984     37.935967
     -3.738739     20.165700     20.165700     40.331400
     -3.728729     21.342060     21.342060     42.684120
     -3.718719     21.928187     21.928187     43.856373
     -3.708709     21.749490     21.749490     43.498979
     -3.698699     21.056919     21.056919     42.113837
     -3.688689     20.436081     20.436081     40.872163
     -3.678679     20.609215     20.609215     41.218430
     -3.668669     22.178481     22.178481     44.356962
     -3.658659     25.388429     25.388429     50.776858
     -3.648649     29.994174     29.994174     59.988347
     -3.638639     35.295055     35.295055     70.590110
     -3.628629     40.331951     40.331951     80.663902
     -3.618619     44.174590     44.174590     88.349180
     -3.608609     46.183450     46.183450     92.366900
     -3.598599     46.147708     46.147708     92.295417
     -3.588589     44.267579     44.267579     88.535158
     -3.578579     41.022666     41.022666     82.045331
     -3.568569     37.002325     37.002325     74.004650
     -3.558559     32.758818     32.758818     65.517636
     -3.548549     28.707183     28.707183     57.414366
     -3.538539     25.072701     25.072701     50.145402
     -3.528529     21.886745     21.886745     43.773491
     -3.518519     19.035642     19.035642     38.071284
     -3.508509     16.354845     16.354845     32.709689
     -3.498498     13.736080     13.736080     27.472161
     -3.488488     11.201350     11.201350     22.402701
     -3.478478      8.911355      8.911355     17.822709
     -3.468468      7.109227      7.109227     14.218454
     -3.458458      6.029391      6.029391     12.058782
     -3.448448      5.809022      5.809022     11.618044
     -3.438438      6.429378      6.429378     12.858756
     -3.428428      7.701022      7.701022     15.402045
     -3.418418      9.299311      9.299311     18.598621
     -3.408408     10.849244     10.849244     21.698489
     -3.398398     12.043314     12.043314     24.086629
     -3.388388     12.754794     12.754794     25.509588
     -3.378378     13.098275     13.098275     26.196550
     -3.368368     13.404379     13.404379     26.808759
     -3.358358     14.113617     14.113617     28.227235
     -3.348348     15.632153     15.632153     31.264306
     -3.338338     18.203843     18.203843     36.407686
     -3.328328     21.832452     21.832452     43.664904
     -3.318318     26.255959     26.255959     52.511918
     -3.308308     30.960391     30.960391     61.920783
     -3.298298     35.233327     35.233327     70.466653
     -3.288288     38.275367     38.275367     76.550735
     -3.278278     39.378738     39.378738     78.757475
     -3.268268     38.137205     38.137205     76.274409
     -3.258258     34.603386     34.603386     69.206771
     -3.248248     29.306330     29.306330     58.612660
     -3.238238     23.101717     23.101717     46.203434
     -3.228228     16.914204     16.914204     33.828407
     -3.218218     11.485934     11.485934     22.971867
     -3.208208      7.231489      7.231489     14.462977
     -3.198198      4.233739      4.233739      8.467478
     -3.188188      2.345758      2.345758      4.691516
     -3.178178      1.331126      1.331126      2.662252
     -3.168168      0.984431      0.984431      1.968862
     -3.158158      1.203946      1.203946      2.407891
     -3.148148      2.013864      2.013864      4.027727
     -3.138138      3.543175      3.543175      7.086349
     -3.128128      5.967555      5.967555     11.935109
     -3.118118      9.421840      9.421840     18.843679
     -3.108108     13.901135     13.901135     27.802269
     -3.098098     19.184446     19.184446     38.368891
     -3.088088     24.821950     24.821950     49.643901
     -3.078078     30.211324     30.211324     60.422649
     -3.068068     34.748453     34.748453     69.496907
     -3.058058     37.992374     37.992374     75.984748
     -3.048048     39.765251     39.765251     79.530502
     -3.038038     40.137700     40.137700     80.275401
     -3.028028     39.317499     39.317499     78.634997
     -3.018018     37.522089     37.522089     75.044178
     -3.008008     34.924609     34.924609     69.849218
     -2.997998     31.707383     31.707383     63.414765
     -2.987988     28.174278     28.174278     56.348557
     -2.977978     24.825064     24.825064     49.650128
     -2.967968     22.315682     22.315682     44.631364
     -2.957958     21.300439     21.300439     42.600879
     -2.947948     22.223076     22.223076     44.446152
     -2.937938     25.149879     25.149879     50.299758
     -2.927928     29.712903     29.712903     59.425805
     -2.917918     35.180290     35.180290     70.360579
     -2.907908     40.624814     40.624814     81.249629
     -2.897898     45.137550     45.137550     90.275100
     -2.887888     48.029829     48.029829     96.059659
     -2.877878     48.974838     48.974838     97.949676
     -2.867868     48.054423     48.054423     96.108846
     -2.857858     45.697400     45.697400     91.394800
     -2.847848     42.524329     42.524329     85.048658
     -2.837838     39.145994     39.145994     78.291988
     -2.827828     35.985238     35.985238     71.970476
     -2.817818     33.188820     33.188820     66.377640
     -2.807808     30.661343     30.661343     61.322686
     -2.797798     28.199005     28.199005     56.398011
     -2.787788     25.653388     25.653388     51.306776
     -2.777778     23.041623     23.041623     46.083246
     -2.767768     20.549393     20.549393     41.098787
     -2.757758     18.433005     18.433005     36.866009
     -2.747748     16.883553     16.883553     33.767106
     -2.737738     15.936855     15.936855     31.873711
     -2.727728     15.483566     15.483566     30.967132
     -2.717718     15.370571     15.370571     30.741141
     -2.707708     15.525408     15.525408     31.050816
     -2.697698     16.018294     16.018294     32.036588
     -2.687688     17.014693     17.014693     34.029386
     -2.677678     18.643102     18.643102     37.286205
     -2.667668     20.862087     20.862087     41.724174
     -2.657658     23.417223     23.417223     46.834445
     -2.647648     25.924800     25.924800     51.849599
     -2.637638     28.037819     28.037819     56.075639
     -2.627628     29.595013     29.595013     59.190026
     -2.617618     30.664106     30.664106     61.328213
     -2.607608     31.460413     31.460413     62.920825
     -2.597598     32.201429     32.201429     64.402858
     -2.587588     32.990127     32.990127     65.980253
     -2.577578     33.784094     33.784094     67.568188
     -2.567568     34.438691     34.438691     68.877382
     -2.557558     34.768499     34.768499     69.536998
     -2.547548     34.584564     34.584564     69.169129
     -2.537538     33.713455     33.713455     67.426910
     -2.527528     32.035389     32.035389     64.070777
     -2.517518     29.560196     29.560196     59.120391
     -2.507508     26.509135     26.509135     53.018269
     -2.497497     23.337127     23.337127     46.674253
     -2.487487     20.648512     20.648512     41.297024
     -2.477477     19.020152     19.020152     38.040304
     -2.467467     18.805588     18.805588     37.611176
     -2.457457     20.013030     20.013030     40.026061
     -2.447447     22.317765     22.317765     44.635530
     -2.437437     25.205761     25.205761     50.411523
     -2.427427     28.182752     28.182752     56.365504
     -2.417417     30.951238     30.951238     61.902476
     -2.407407     33.471957     33.471957     66.943914
     -2.397397     35.881494     35.881494     71.762988
     -2.387387     38.309137     38.309137     76.618274
     -2.377377     40.689011     40.689011     81.378023
     -2.367367     42.670443     42.670443     85.340886
     -2.357357     43.685017     43.685017     87.370035
     -2.347347     43.152950     43.152950     86.305900
     -2.337337     40.740754     40.740754     81.481509
     -2.327327     36.552703     36.552703     73.105406
     -2.317317     31.166977     31.166977     62.333954
     -2.307307     25.499714     25.499714     50.999427
     -2.297297     20.557001     20.557001     41.114003
     -2.287287     17.175461     17.175461     34.350921
     -2.277277     15.840358     15.840358     31.680717
     -2.267267     16.623116     16.623116     33.246233
     -2.257257     19.229825     19.229825     38.459650
     -2.247247     23.121683     23.121683     46.243365
     -2.237237     27.659619     27.659619     55.319238
     -2.227227     32.230159     32.230159     64.460317
     -2.217217     36.322424     36.322424     72.644847
     -2.207207     39.547433     39.547433     79.094865
     -2.197197     41.618063     41.618063     83.236126
     -2.187187     42.328604     42.328604     84.657208
     -2.177177     41.569843     41.569843     83.139686
     -2.167167     39.383938     39.383938     78.767876
     -2.157157     36.020593     36.020593     72.041185
     -2.147147     31.935060     31.935060     63.870121
     -2.137137     27.692191     27.692191     55.384382
     -2.127127     23.799777     23.799777     47.599555
     -2.117117     20.548654     20.548654     41.097307
     -2.107107     17.944594     17.944594     35.889188
     -2.097097     15.768277     15.768277     31.536555
     -2.087087     13.726407     13.726407     27.452814
     -2.077077     11.609007     11.609007     23.218013
     -2.067067      9.374585      9.374585     18.749170
     -2.057057      7.136016      7.136016     14.272032
     -2.047047      5.077283      5.077283     10.154566
     -2.037037      3.359066      3.359066      6.718133
     -2.027027      2.060330      2.060330      4.120660
     -2.017017      1.170652      1.170652      2.341305
     -2.007007      0.619138      0.619138      1.238276
     -1.996997      0.315034      0.315034      0.630067
     -1.986987      0.181233      0.181233      0.362466
     -1.976977      0.174218      0.174218      0.348435
     -1.966967      0.292951      0.292951      0.585902
     -1.956957      0.581034      0.581034      1.162067
     -1.946947      1.122829      1.122829      2.245657
     -1.936937      2.029737      2.029737      4.059474
     -1.926927      3.411927      3.411927      6.823854
     -1.916917      5.336066      5.336066     10.672132
     -1.906907      7.779454      7.779454     15.558908
     -1.896897     10.599403     10.599403     21.198805
     -1.886887     13.536505     13.536505     27.073010
     -1.876877     16.258942     16.258942     32.517883
     -1.866867     18.437625     18.437625     36.875250
     -1.856857     19.828829     19.828829     39.657657
     -1.846847     20.338275     20.338275     40.676551
     -1.836837     20.046627     20.046627     40.093254
     -1.826827     19.185543     19.185543     38.371087
     -1.816817     18.064821     18.064821     36.129643
     -1.806807     16.967477     16.967477     33.934954
     -1.796797     16.048942     16.048942     32.097883
     -1.786787     15.286001     15.286001     30.572002
     -1.776777     14.506122     14.506122     29.012244
     -1.766767     13.489044     13.489044     26.978088
     -1.756757     12.092120     12.092120     24.184239
     -1.746747     10.337404     10.337404     20.674808
     -1.736737      8.422405      8.422405     16.844810
     -1.726727      6.660464      6.660464     13.320929
     -1.716717      5.389669      5.389669     10.779338
     -1.706707      4.891684      4.891684      9.783368
     -1.696697      5.339726      5.339726     10.679452
     -1.686687      6.770784      6.770784     13.541568
     -1.676677      9.069943      9.069943     18.139886
     -1.666667     11.965280     11.965280     23.930560
     -1.656657     15.045911     15.045911     30.091822
     -1.646647     17.817878     17.817878     35.635757
     -1.636637     19.798600     19.798600     39.597201
     -1.626627     20.629684     20.629684     41.259368
