# EIG2DOS: Utility for SIESTA to obtain the electronic density of states
#  E. Artacho, Apr 1999, A. Garcia, Apr 2012
#  Nick R. Papior, Feb 2017
# ------------------------------------------
# Eigenvalues calculated from a non-polarized calculation
# Eigenvalues read from siesta.EIG
# Kpoint weights read from siesta.KP
# Using smearing parameter:   0.0500
# Using 1000 points in the energy range
# Selected bands: 1 to: 2981
# Emin, Emax in file for selected band(s):    -27.2845878    218.4047280
# Nbands, Nspin, Nk   =   2981     1     1
# E_F                 =    -4.1871 eV --> (shifted to ZERO)
# Broadening          =     0.0500 eV
#
#        E            N(up)  (=)   N(down)         Ntot
     -5.000000     30.701640     30.701640     61.403279
     -4.989990     36.045398     36.045398     72.090797
     -4.979980     41.262717     41.262717     82.525434
     -4.969970     45.443602     45.443602     90.887203
     -4.959960     47.779118     47.779118     95.558236
     -4.949950     47.831085     47.831085     95.662169
     -4.939940     45.683912     45.683912     91.367823
     -4.929930     41.929817     41.929817     83.859635
     -4.919920     37.515741     37.515741     75.031481
     -4.909910     33.524390     33.524390     67.048780
     -4.899900     30.954079     30.954079     61.908159
     -4.889890     30.526117     30.526117     61.052235
     -4.879880     32.526954     32.526954     65.053909
     -4.869870     36.705271     36.705271     73.410542
     -4.859860     42.270679     42.270679     84.541359
     -4.849850     48.039460     48.039460     96.078920
     -4.839840     52.723261     52.723261    105.446522
     -4.829830     55.281798     55.281798    110.563596
     -4.819820     55.211028     55.211028    110.422055
     -4.809810     52.653013     52.653013    105.306025
     -4.799800     48.290354     48.290354     96.580708
     -4.789790     43.083830     43.083830     86.167660
     -4.779780     37.973032     37.973032     75.946064
     -4.769770     33.656086     33.656086     67.312171
     -4.759760     30.505778     30.505778     61.011556
     -4.749750     28.605111     28.605111     57.210221
     -4.739740     27.837200     27.837200     55.674400
     -4.729730     27.962496     27.962496     55.924991
     -4.719720     28.652199     28.652199     57.304399
     -4.709710     29.494031     29.494031     58.988062
     -4.699700     30.016092     30.016092     60.032184
     -4.689690     29.768301     29.768301     59.536602
     -4.679680     28.460989     28.460989     56.921979
     -4.669670     26.111245     26.111245     52.222489
     -4.659660     23.123246     23.123246     46.246493
     -4.649650     20.247753     20.247753     40.495507
     -4.639640     18.415976     18.415976     36.831952
     -4.629630     18.492191     18.492191     36.984382
     -4.619620     21.014056     21.014056     42.028111
     -4.609610     25.991086     25.991086     51.982172
     -4.599600     32.824084     32.824084     65.648168
     -4.589590     40.393053     40.393053     80.786107
     -4.579580     47.323761     47.323761     94.647522
     -4.569570     52.376461     52.376461    104.752922
     -4.559560     54.829197     54.829197    109.658393
     -4.549550     54.701116     54.701116    109.402231
     -4.539540     52.711582     52.711582    105.423165
     -4.529530     49.983057     49.983057     99.966114
     -4.519520     47.610767     47.610767     95.221534
     -4.509510     46.277803     46.277803     92.555606
     -4.499499     46.064530     46.064530     92.129061
     -4.489489     46.507434     46.507434     93.014869
     -4.479479     46.854468     46.854468     93.708936
     -4.469469     46.390871     46.390871     92.781742
     -4.459459     44.698484     44.698484     89.396968
     -4.449449     41.759995     41.759995     83.519989
     -4.439439     37.899377     37.899377     75.798754
     -4.429429     33.621578     33.621578     67.243156
     -4.419419     29.445015     29.445015     58.890030
     -4.409409     25.798528     25.798528     51.597056
     -4.399399     22.997675     22.997675     45.995350
     -4.389389     21.261767     21.261767     42.523534
     -4.379379     20.717855     20.717855     41.435710
     -4.369369     21.368315     21.368315     42.736629
     -4.359359     23.047742     23.047742     46.095485
     -4.349349     25.421703     25.421703     50.843407
     -4.339339     28.061851     28.061851     56.123701
     -4.329329     30.582039     30.582039     61.164078
     -4.319319     32.774849     32.774849     65.549697
     -4.309309     34.678196     34.678196     69.356391
     -4.299299     36.531602     36.531602     73.063204
     -4.289289     38.631551     38.631551     77.263103
     -4.279279     41.140327     41.140327     82.280654
     -4.269269     43.927259     43.927259     87.854517
     -4.259259     46.518947     46.518947     93.037894
     -4.249249     48.202569     48.202569     96.405139
     -4.239239     48.266185     48.266185     96.532370
     -4.229229     46.290754     46.290754     92.581509
     -4.219219     42.366462     42.366462     84.732924
     -4.209209     37.124443     37.124443     74.248886
     -4.199199     31.555671     31.555671     63.111341
     -4.189189     26.691090     26.691090     53.382180
     -4.179179     23.282593     23.282593     46.565186
     -4.169169     21.617042     21.617042     43.234083
     -4.159159     21.524587     21.524587     43.049173
     -4.149149     22.551411     22.551411     45.102822
     -4.139139     24.201280     24.201280     48.402559
     -4.129129     26.133198     26.133198     52.266395
     -4.119119     28.232195     28.232195     56.464389
     -4.109109     30.531001     30.531001     61.062002
     -4.099099     33.031106     33.031106     66.062211
     -4.089089     35.526330     35.526330     71.052661
     -4.079079     37.541793     37.541793     75.083586
     -4.069069     38.449325     38.449325     76.898650
     -4.059059     37.723684     37.723684     75.447369
     -4.049049     35.215138     35.215138     70.430276
     -4.039039     31.292269     31.292269     62.584538
     -4.029029     26.774053     26.774053     53.548105
     -4.019019     22.682803     22.682803     45.365605
     -4.009009     19.937838     19.937838     39.875676
     -3.998999     19.122960     19.122960     38.245921
     -3.988989     20.402563     20.402563     40.805125
     -3.978979     23.578460     23.578460     47.156920
     -3.968969     28.223712     28.223712     56.447423
     -3.958959     33.823340     33.823340     67.646680
     -3.948949     39.881948     39.881948     79.763896
     -3.938939     45.992808     45.992808     91.985615
     -3.928929     51.876421     51.876421    103.752842
     -3.918919     57.386813     57.386813    114.773626
     -3.908909     62.471544     62.471544    124.943087
     -3.898899     67.079980     67.079980    134.159961
     -3.888889     71.046715     71.046715    142.093431
     -3.878879     74.009960     74.009960    148.019920
     -3.868869     75.427299     75.427299    150.854597
     -3.858859     74.711667     74.711667    149.423334
     -3.848849     71.447927     71.447927    142.895855
     -3.838839     65.602023     65.602023    131.204046
     -3.828829     57.629250     57.629250    115.258500
     -3.818819     48.428504     48.428504     96.857009
     -3.808809     39.152658     39.152658     78.305316
     -3.798799     30.939689     30.939689     61.879379
     -3.788789     24.652267     24.652267     49.304535
     -3.778779     20.701546     20.701546     41.403092
     -3.768769     18.996314     18.996314     37.992628
     -3.758759     19.019013     19.019013     38.038025
     -3.748749     19.998702     19.998702     39.997403
     -3.738739     21.132844     21.132844     42.265687
     -3.728729     21.803881     21.803881     43.607763
     -3.718719     21.740194     21.740194     43.480388
     -3.708709     21.082118     21.082118     42.164236
     -3.698699     20.331794     20.331794     40.663587
     -3.688689     20.190884     20.190884     40.381768
     -3.678679     21.321540     21.321540     42.643081
     -3.668669     24.097144     24.097144     48.194287
     -3.658659     28.427221     28.427221     56.854443
     -3.648649     33.729470     33.729470     67.458940
     -3.638639     39.073781     39.073781     78.147563
     -3.628629     43.452529     43.452529     86.905058
     -3.618619     46.073148     46.073148     92.146296
     -3.608609     46.559588     46.559588     93.119176
     -3.598599     44.997599     44.997599     89.995197
     -3.588589     41.835309     41.835309     83.670618
     -3.578579     37.707046     37.707046     75.414093
     -3.568569     33.255848     33.255848     66.511695
     -3.558559     28.999673     28.999673     57.999345
     -3.548549     25.252935     25.252935     50.505870
     -3.538539     22.102622     22.102622     44.205245
     -3.528529     19.440930     19.440930     38.881861
     -3.518519     17.052093     17.052093     34.104186
     -3.508509     14.730771     14.730771     29.461541
     -3.498498     12.387930     12.387930     24.775859
     -3.488488     10.100128     10.100128     20.200256
     -3.478478      8.084928      8.084928     16.169855
     -3.468468      6.620835      6.620835     13.241670
     -3.458458      5.950825      5.950825     11.901650
     -3.448448      6.205468      6.205468     12.410935
     -3.438438      7.365336      7.365336     14.730672
     -3.428428      9.267649      9.267649     18.535297
     -3.418418     11.653390     11.653390     23.306781
     -3.408408     14.242742     14.242742     28.485483
     -3.398398     16.815162     16.815162     33.630324
     -3.388388     19.263610     19.263610     38.527220
     -3.378378     21.601429     21.601429     43.202858
     -3.368368     23.924911     23.924911     47.849823
     -3.358358     26.357074     26.357074     52.714148
     -3.348348     28.999007     28.999007     57.998015
     -3.338338     31.893685     31.893685     63.787370
     -3.328328     34.986370     34.986370     69.972740
     -3.318318     38.072024     38.072024     76.144048
     -3.308308     40.754073     40.754073     81.508146
     -3.298298     42.468558     42.468558     84.937117
     -3.288288     42.614466     42.614466     85.228932
     -3.278278     40.768755     40.768755     81.537510
     -3.268268     36.894009     36.894009     73.788018
     -3.258258     31.425975     31.425975     62.851951
     -3.248248     25.182360     25.182360     50.364719
     -3.238238     19.129315     19.129315     38.258630
     -3.228228     14.112062     14.112062     28.224124
     -3.218218     10.657755     10.657755     21.315509
     -3.208208      8.903437      8.903437     17.806873
     -3.198198      8.638500      8.638500     17.277000
     -3.188188      9.419633      9.419633     18.839266
     -3.178178     10.719456     10.719456     21.438912
     -3.168168     12.081975     12.081975     24.163950
     -3.158158     13.256670     13.256670     26.513341
     -3.148148     14.271696     14.271696     28.543392
     -3.138138     15.407323     15.407323     30.814645
     -3.128128     17.059881     17.059881     34.119762
     -3.118118     19.536609     19.536609     39.073219
     -3.108108     22.864946     22.864946     45.729892
     -3.098098     26.706570     26.706570     53.413140
     -3.088088     30.426468     30.426468     60.852937
     -3.078078     33.296519     33.296519     66.593039
     -3.068068     34.746478     34.746478     69.492956
     -3.058058     34.549279     34.549279     69.098557
     -3.048048     32.859636     32.859636     65.719272
     -3.038038     30.100746     30.100746     60.201493
     -3.028028     26.771581     26.771581     53.543163
     -3.018018     23.281179     23.281179     46.562357
     -3.008008     19.887392     19.887392     39.774783
     -2.997998     16.747349     16.747349     33.494698
     -2.987988     14.022369     14.022369     28.044738
     -2.977978     11.959320     11.959320     23.918640
     -2.967968     10.897069     10.897069     21.794138
     -2.957958     11.193924     11.193924     22.387848
     -2.947948     13.108630     13.108630     26.217260
     -2.937938     16.680561     16.680561     33.361122
     -2.927928     21.650852     21.650852     43.301703
     -2.917918     27.455839     27.455839     54.911678
     -2.907908     33.309280     33.309280     66.618560
     -2.897898     38.365972     38.365972     76.731943
     -2.887888     41.927301     41.927301     83.854602
     -2.877878     43.621616     43.621616     87.243232
     -2.867868     43.488049     43.488049     86.976097
     -2.857858     41.922906     41.922906     83.845812
     -2.847848     39.505082     39.505082     79.010163
     -2.837838     36.774241     36.774241     73.548482
     -2.827828     34.060416     34.060416     68.120831
     -2.817818     31.438389     31.438389     62.876778
     -2.807808     28.815309     28.815309     57.630617
     -2.797798     26.090525     26.090525     52.181051
     -2.787788     23.292208     23.292208     46.584415
     -2.777778     20.615305     20.615305     41.230610
     -2.767768     18.347282     18.347282     36.694563
     -2.757758     16.734727     16.734727     33.469454
     -2.747748     15.876165     15.876165     31.752330
     -2.737738     15.705418     15.705418     31.410835
     -2.727728     16.068935     16.068935     32.137871
     -2.717718     16.837897     16.837897     33.675794
     -2.707708     17.973057     17.973057     35.946114
     -2.697698     19.494737     19.494737     38.989474
     -2.687688     21.381115     21.381115     42.762230
     -2.677678     23.476010     23.476010     46.952020
     -2.667668     25.488304     25.488304     50.976608
     -2.657658     27.103428     27.103428     54.206857
     -2.647648     28.144476     28.144476     56.288952
     -2.637638     28.677460     28.677460     57.354919
     -2.627628     28.986256     28.986256     57.972512
     -2.617618     29.427131     29.427131     58.854262
     -2.607608     30.249086     30.249086     60.498172
     -2.597598     31.480286     31.480286     62.960572
     -2.587588     32.927643     32.927643     65.855285
     -2.577578     34.262262     34.262262     68.524525
     -2.567568     35.124841     35.124841     70.249682
     -2.557558     35.203127     35.203127     70.406253
     -2.547548     34.280174     34.280174     68.560349
     -2.537538     32.279893     32.279893     64.559786
     -2.527528     29.322202     29.322202     58.644404
     -2.517518     25.763034     25.763034     51.526067
     -2.507508     22.173953     22.173953     44.347906
     -2.497497     19.234979     19.234979     38.469958
     -2.487487     17.560470     17.560470     35.120940
     -2.477477     17.519244     17.519244     35.038489
     -2.467467     19.121116     19.121116     38.242233
     -2.457457     22.018794     22.018794     44.037589
     -2.447447     25.629531     25.629531     51.259063
     -2.437437     29.333136     29.333136     58.666272
     -2.427427     32.669193     32.669193     65.338386
     -2.417417     35.451176     35.451176     70.902352
     -2.407407     37.745799     37.745799     75.491598
     -2.397397     39.725333     39.725333     79.450666
     -2.387387     41.464686     41.464686     82.929372
     -2.377377     42.791251     42.791251     85.582502
     -2.367367     43.278894     43.278894     86.557789
     -2.357357     42.407890     42.407890     84.815781
     -2.347347     39.822274     39.822274     79.644547
     -2.337337     35.556442     35.556442     71.112884
     -2.327327     30.113536     30.113536     60.227073
     -2.317317     24.355754     24.355754     48.711509
     -2.307307     19.263074     19.263074     38.526148
     -2.297297     15.672546     15.672546     31.345091
     -2.287287     14.098302     14.098302     28.196603
     -2.277277     14.673448     14.673448     29.346895
     -2.267267     17.194181     17.194181     34.388362
     -2.257257     21.216648     21.216648     42.433297
     -2.247247     26.161052     26.161052     52.322105
     -2.237237     31.397963     31.397963     62.795926
     -2.227227     36.311240     36.311240     72.622479
     -2.217217     40.343531     40.343531     80.687062
     -2.207207     43.035171     43.035171     86.070342
     -2.197197     44.067032     44.067032     88.134063
     -2.187187     43.311037     43.311037     86.622074
     -2.177177     40.877311     40.877311     81.754621
     -2.167167     37.129886     37.129886     74.259772
     -2.157157     32.637823     32.637823     65.275645
     -2.147147     28.048767     28.048767     56.097535
     -2.137137     23.914608     23.914608     47.829216
     -2.127127     20.538455     20.538455     41.076910
     -2.117117     17.916648     17.916648     35.833296
     -2.107107     15.807169     15.807169     31.614338
     -2.097097     13.889824     13.889824     27.779647
     -2.087087     11.936764     11.936764     23.873527
     -2.077077      9.914104      9.914104     19.828208
     -2.067067      7.980961      7.980961     15.961922
     -2.057057      6.406987      6.406987     12.813974
     -2.047047      5.459175      5.459175     10.918350
     -2.037037      5.303784      5.303784     10.607569
     -2.027027      5.946186      5.946186     11.892372
     -2.017017      7.213397      7.213397     14.426795
     -2.007007      8.779974      8.779974     17.559947
     -1.996997     10.238396     10.238396     20.476792
     -1.986987     11.206317     11.206317     22.412634
     -1.976977     11.443722     11.443722     22.887444
     -1.966967     10.937503     10.937503     21.875005
     -1.956957      9.915791      9.915791     19.831582
     -1.946947      8.781768      8.781768     17.563537
     -1.936937      7.991003      7.991003     15.982006
     -1.926927      7.917218      7.917218     15.834435
     -1.916917      8.749829      8.749829     17.499657
     -1.906907     10.449057     10.449057     20.898113
     -1.896897     12.763562     12.763562     25.527125
     -1.886887     15.299415     15.299415     30.598829
     -1.876877     17.619250     17.619250     35.238500
     -1.866867     19.346214     19.346214     38.692428
     -1.856857     20.248659     20.248659     40.497318
     -1.846847     20.287267     20.287267     40.574534
     -1.836837     19.613303     19.613303     39.226606
     -1.826827     18.514376     18.514376     37.028752
     -1.816817     17.316079     17.316079     34.632158
     -1.806807     16.266344     16.266344     32.532689
     -1.796797     15.446388     15.446388     30.892776
     -1.786787     14.751454     14.751454     29.502908
     -1.776777     13.956500     13.956500     27.913000
     -1.766767     12.837760     12.837760     25.675520
     -1.756757     11.289071     11.289071     22.578143
     -1.746747      9.375729      9.375729     18.751457
     -1.736737      7.306784      7.306784     14.613569
     -1.726727      5.352768      5.352768     10.705536
     -1.716717      3.759407      3.759407      7.518813
     -1.706707      2.697574      2.697574      5.395149
     -1.696697      2.257912      2.257912      4.515824
     -1.686687      2.469252      2.469252      4.938505
     -1.676677      3.310740      3.310740      6.621480
     -1.666667      4.700796      4.700796      9.401592
     -1.656657      6.471033      6.471033     12.942066
     -1.646647      8.353400      8.353400     16.706800
     -1.636637     10.010425     10.010425     20.020851
     -1.626627     11.117867     11.117867     22.235734
