# EIG2DOS: Utility for SIESTA to obtain the electronic density of states
#  E. Artacho, Apr 1999, A. Garcia, Apr 2012
#  Nick R. Papior, Feb 2017
# ------------------------------------------
# Eigenvalues calculated from a non-polarized calculation
# Eigenvalues read from siesta.EIG
# Kpoint weights read from siesta.KP
# Using smearing parameter:   0.0500
# Using 1000 points in the energy range
# Selected bands: 1 to: 2981
# Emin, Emax in file for selected band(s):    -27.0439475    218.3164480
# Nbands, Nspin, Nk   =   2981     1     1
# E_F                 =    -4.2973 eV --> (shifted to ZERO)
# Broadening          =     0.0500 eV
#
#        E            N(up)  (=)   N(down)         Ntot
     -5.000000     44.932386     44.932386     89.864773
     -4.989990     46.969638     46.969638     93.939277
     -4.979980     47.886928     47.886928     95.773857
     -4.969970     47.699026     47.699026     95.398051
     -4.959960     46.471170     46.471170     92.942340
     -4.949950     44.320673     44.320673     88.641345
     -4.939940     41.441220     41.441220     82.882441
     -4.929930     38.133833     38.133833     76.267666
     -4.919920     34.827459     34.827459     69.654918
     -4.909910     32.074346     32.074346     64.148692
     -4.899900     30.502996     30.502996     61.005992
     -4.889890     30.709039     30.709039     61.418078
     -4.879880     33.078640     33.078640     66.157280
     -4.869870     37.581153     37.581153     75.162307
     -4.859860     43.620900     43.620900     87.241801
     -4.849850     50.058073     50.058073    100.116146
     -4.839840     55.457595     55.457595    110.915190
     -4.829830     58.510887     58.510887    117.021773
     -4.819820     58.463720     58.463720    116.927441
     -4.809810     55.354175     55.354175    110.708350
     -4.799800     49.950636     49.950636     99.901271
     -4.789790     43.432765     43.432765     86.865530
     -4.779780     36.980851     36.980851     73.961702
     -4.769770     31.456898     31.456898     62.913796
     -4.759760     27.277475     27.277475     54.554949
     -4.749750     24.463393     24.463393     48.926787
     -4.739740     22.779837     22.779837     45.559674
     -4.729730     21.878868     21.878868     43.757737
     -4.719720     21.397896     21.397896     42.795792
     -4.709710     21.010851     21.010851     42.021702
     -4.699700     20.451394     20.451394     40.902789
     -4.689690     19.530796     19.530796     39.061593
     -4.679680     18.165672     18.165672     36.331344
     -4.669670     16.417015     16.417015     32.834031
     -4.659660     14.525935     14.525935     29.051869
     -4.649650     12.920987     12.920987     25.841974
     -4.639640     12.174051     12.174051     24.348101
     -4.629630     12.895407     12.895407     25.790815
     -4.619620     15.577557     15.577557     31.155114
     -4.609610     20.417091     20.417091     40.834182
     -4.599600     27.164407     27.164407     54.328814
     -4.589590     35.066649     35.066649     70.133298
     -4.579580     42.963428     42.963428     85.926857
     -4.569570     49.551138     49.551138     99.102277
     -4.559560     53.755655     53.755655    107.511311
     -4.549550     55.081788     55.081788    110.163577
     -4.539540     53.789766     53.789766    107.579532
     -4.529530     50.808336     50.808336    101.616672
     -4.519520     47.407350     47.407350     94.814701
     -4.509510     44.760768     44.760768     89.521535
     -4.499499     43.576243     43.576243     87.152485
     -4.489489     43.928886     43.928886     87.857772
     -4.479479     45.339288     45.339288     90.678577
     -4.469469     47.031501     47.031501     94.063001
     -4.459459     48.243885     48.243885     96.487771
     -4.449449     48.466533     48.466533     96.933067
     -4.439439     47.533148     47.533148     95.066297
     -4.429429     45.571214     45.571214     91.142427
     -4.419419     42.874845     42.874845     85.749690
     -4.409409     39.783184     39.783184     79.566368
     -4.399399     36.618384     36.618384     73.236768
     -4.389389     33.681973     33.681973     67.363947
     -4.379379     31.264202     31.264202     62.528404
     -4.369369     29.618537     29.618537     59.237074
     -4.359359     28.893215     28.893215     57.786431
     -4.349349     29.060991     29.060991     58.121981
     -4.339339     29.905896     29.905896     59.811793
     -4.329329     31.096118     31.096118     62.192235
     -4.319319     32.316967     32.316967     64.633934
     -4.309309     33.398548     33.398548     66.797097
     -4.299299     34.374892     34.374892     68.749784
     -4.289289     35.448257     35.448257     70.896514
     -4.279279     36.875563     36.875563     73.751126
     -4.269269     38.820838     38.820838     77.641676
     -4.259259     41.225830     41.225830     82.451659
     -4.249249     43.749270     43.749270     87.498541
     -4.239239     45.814467     45.814467     91.628933
     -4.229229     46.774311     46.774311     93.548622
     -4.219219     46.149099     46.149099     92.298198
     -4.209209     43.838999     43.838999     87.677999
     -4.199199     40.201674     40.201674     80.403347
     -4.189189     35.941063     35.941063     71.882125
     -4.179179     31.852188     31.852188     63.704377
     -4.169169     28.546663     28.546663     57.093326
     -4.159159     26.290542     26.290542     52.581085
     -4.149149     25.017607     25.017607     50.035214
     -4.139139     24.484913     24.484913     48.969825
     -4.129129     24.471389     24.471389     48.942777
     -4.119119     24.912455     24.912455     49.824911
     -4.109109     25.905380     25.905380     51.810761
     -4.099099     27.585875     27.585875     55.171751
     -4.089089     29.941267     29.941267     59.882533
     -4.079079     32.666108     32.666108     65.332215
     -4.069069     35.159087     35.159087     70.318175
     -4.059059     36.695653     36.695653     73.391306
     -4.049049     36.712598     36.712598     73.425196
     -4.039039     35.065448     35.065448     70.130895
     -4.029029     32.121275     32.121275     64.242550
     -4.019019     28.636220     28.636220     57.272439
     -4.009009     25.485815     25.485815     50.971629
     -3.998999     23.389713     23.389713     46.779427
     -3.988989     22.755513     22.755513     45.511027
     -3.978979     23.678575     23.678575     47.357150
     -3.968969     26.042101     26.042101     52.084201
     -3.958959     29.625425     29.625425     59.250849
     -3.948949     34.161568     34.161568     68.323137
     -3.938939     39.348997     39.348997     78.697995
     -3.928929     44.862178     44.862178     89.724357
     -3.918919     50.393209     50.393209    100.786418
     -3.908909     55.710430     55.710430    111.420860
     -3.898899     60.684000     60.684000    121.368000
     -3.888889     65.236443     65.236443    130.472886
     -3.878879     69.225846     69.225846    138.451691
     -3.868869     72.326467     72.326467    144.652934
     -3.858859     73.995122     73.995122    147.990245
     -3.848849     73.580532     73.580532    147.161064
     -3.838839     70.558502     70.558502    141.117004
     -3.828829     64.798146     64.798146    129.596291
     -3.818819     56.730259     56.730259    113.460518
     -3.808809     47.323602     47.323602     94.647203
     -3.798799     37.862339     37.862339     75.724679
     -3.788789     29.609129     29.609129     59.218258
     -3.778779     23.482959     23.482959     46.965917
     -3.768769     19.861083     19.861083     39.722165
     -3.758759     18.552045     18.552045     37.104090
     -3.748749     18.921776     18.921776     37.843552
     -3.738739     20.115385     20.115385     40.230770
     -3.728729     21.307566     21.307566     42.615132
     -3.718719     21.922279     21.922279     43.844559
     -3.708709     21.775362     21.775362     43.550724
     -3.698699     21.108096     21.108096     42.216192
     -3.688689     20.498790     20.498790     40.997580
     -3.678679     20.666628     20.666628     41.333256
     -3.668669     22.215607     22.215607     44.431215
     -3.658659     25.396187     25.396187     50.792375
     -3.648649     29.971522     29.971522     59.943044
     -3.638639     35.248775     35.248775     70.497549
     -3.628629     40.274421     40.274421     80.548842
     -3.618619     44.120407     44.120407     88.240815
     -3.608609     46.145882     46.145882     92.291763
     -3.598599     46.135774     46.135774     92.271549
     -3.588589     44.284335     44.284335     88.568669
     -3.578579     41.064991     41.064991     82.129983
     -3.568569     37.062276     37.062276     74.124552
     -3.558559     32.826204     32.826204     65.652408
     -3.548549     28.772596     28.772596     57.545191
     -3.538539     25.129930     25.129930     50.259860
     -3.528529     21.933730     21.933730     43.867459
     -3.518519     19.073767     19.073767     38.147534
     -3.508509     16.387176     16.387176     32.774352
     -3.498498     13.765555     13.765555     27.531110
     -3.488488     11.229756     11.229756     22.459512
     -3.478478      8.939311      8.939311     17.878623
     -3.468468      7.136773      7.136773     14.273546
     -3.458458      6.056505      6.056505     12.113010
     -3.448448      5.835613      5.835613     11.671227
     -3.438438      6.454713      6.454713     12.909425
     -3.428428      7.722957      7.722957     15.445914
     -3.418418      9.313837      9.313837     18.627674
     -3.408408     10.850716     10.850716     21.701432
     -3.398398     12.025421     12.025421     24.050843
     -3.388388     12.712091     12.712091     25.424182
     -3.378378     13.027939     13.027939     26.055879
     -3.368368     13.307804     13.307804     26.615607
     -3.358358     13.997343     13.997343     27.994685
     -3.348348     15.507571     15.507571     31.015141
     -3.338338     18.085298     18.085298     36.170596
     -3.328328     21.734046     21.734046     43.468091
     -3.318318     26.188180     26.188180     52.376360
     -3.308308     30.928066     30.928066     61.856132
     -3.298298     35.235738     35.235738     70.471475
     -3.288288     38.308113     38.308113     76.616227
     -3.278278     39.435904     39.435904     78.871809
     -3.268268     38.212559     38.212559     76.425118
     -3.258258     34.690378     34.690378     69.380756
     -3.248248     29.397743     29.397743     58.795486
     -3.238238     23.189938     23.189938     46.379876
     -3.228228     16.992368     16.992368     33.984735
     -3.218218     11.549304     11.549304     23.098607
     -3.208208      7.278184      7.278184     14.556369
     -3.198198      4.264335      4.264335      8.528670
     -3.188188      2.361911      2.361911      4.723822
     -3.178178      1.333770      1.333770      2.667540
     -3.168168      0.972140      0.972140      1.944280
     -3.158158      1.172017      1.172017      2.344035
     -3.148148      1.954847      1.954847      3.909695
     -3.138138      3.449856      3.449856      6.899712
     -3.128128      5.839473      5.839473     11.678945
     -3.118118      9.275552      9.275552     18.551104
     -3.108108     13.782241     13.782241     27.564481
     -3.098098     19.176070     19.176070     38.352139
     -3.088088     25.041549     25.041549     50.083097
     -3.078078     30.788030     30.788030     61.576060
     -3.068068     35.779324     35.779324     71.558647
     -3.058058     39.487882     39.487882     78.975764
     -3.048048     41.607317     41.607317     83.214634
     -3.038038     42.078446     42.078446     84.156892
     -3.028028     41.035627     41.035627     82.071254
     -3.018018     38.726831     38.726831     77.453662
     -3.008008     35.467303     35.467303     70.934605
     -2.997998     31.647119     31.647119     63.294237
     -2.987988     27.759135     27.759135     55.518271
     -2.977978     24.389356     24.389356     48.778712
     -2.967968     22.135876     22.135876     44.271751
     -2.957958     21.474639     21.474639     42.949277
     -2.947948     22.629368     22.629368     45.258736
     -2.937938     25.502337     25.502337     51.004673
     -2.927928     29.688572     29.688572     59.377145
     -2.917918     34.558008     34.558008     69.116016
     -2.907908     39.373300     39.373300     78.746600
     -2.897898     43.417771     43.417771     86.835542
     -2.887888     46.120155     46.120155     92.240311
     -2.877878     47.162645     47.162645     94.325291
     -2.867868     46.546250     46.546250     93.092501
     -2.857858     44.580548     44.580548     89.161096
     -2.847848     41.781581     41.781581     83.563162
     -2.837838     38.701162     38.701162     77.402324
     -2.827828     35.750935     35.750935     71.501870
     -2.817818     33.096764     33.096764     66.193527
     -2.807808     30.670178     30.670178     61.340355
     -2.797798     28.286142     28.286142     56.572285
     -2.787788     25.801814     25.801814     51.603628
     -2.777778     23.230684     23.230684     46.461367
     -2.767768     20.753314     20.753314     41.506628
     -2.757758     18.625620     18.625620     37.251241
     -2.747748     17.044721     17.044721     34.089441
     -2.737738     16.056128     16.056128     32.112256
     -2.727728     15.559212     15.559212     31.118424
     -2.717718     15.405203     15.405203     30.810405
     -2.707708     15.521491     15.521491     31.042981
     -2.697698     15.976584     15.976584     31.953168
     -2.687688     16.936511     16.936511     33.873022
     -2.677678     18.534632     18.534632     37.069264
     -2.667668     20.737343     20.737343     41.474685
     -2.657658     23.296939     23.296939     46.593878
     -2.647648     25.830975     25.830975     51.661950
     -2.637638     27.986457     27.986457     55.972913
     -2.627628     29.590846     29.590846     59.181691
     -2.617618     30.699941     30.699941     61.399882
     -2.607608     31.520962     31.520962     63.041924
     -2.597598     32.269169     32.269169     64.538337
     -2.587588     33.050325     33.050325     66.100649
     -2.577578     33.827633     33.827633     67.655266
     -2.567568     34.463033     34.463033     68.926065
     -2.557558     34.777656     34.777656     69.555311
     -2.547548     34.588191     34.588191     69.176381
     -2.537538     33.724390     33.724390     67.448780
     -2.527528     32.065397     32.065397     64.130794
     -2.517518     29.615049     29.615049     59.230098
     -2.507508     26.585289     26.585289     53.170577
     -2.497497     23.421885     23.421885     46.843770
     -2.487487     20.723831     20.723831     41.447661
     -2.477477     19.068312     19.068312     38.136625
     -2.467467     18.814126     18.814126     37.628252
     -2.457457     19.976902     19.976902     39.953804
     -2.447447     22.238262     22.238262     44.476525
     -2.437437     25.087271     25.087271     50.174541
     -2.427427     28.029442     28.029442     56.058884
     -2.417417     30.765813     30.765813     61.531626
     -2.407407     33.257638     33.257638     66.515277
     -2.397397     35.646606     35.646606     71.293213
     -2.387387     38.071809     38.071809     76.143617
     -2.377377     40.478590     40.478590     80.957180
     -2.367367     42.523165     42.523165     85.046330
     -2.357357     43.634163     43.634163     87.268325
     -2.347347     43.216920     43.216920     86.433841
     -2.337337     40.914312     40.914312     81.828624
     -2.327327     36.805679     36.805679     73.611357
     -2.317317     31.451461     31.451461     62.902923
     -2.307307     25.762871     25.762871     51.525741
     -2.297297     20.754461     20.754461     41.508923
     -2.287287     17.280639     17.280639     34.561278
     -2.277277     15.847362     15.847362     31.694725
     -2.267267     16.543572     16.543572     33.087145
     -2.257257     19.085848     19.085848     38.171696
     -2.247247     22.938064     22.938064     45.876129
     -2.237237     27.458178     27.458178     54.916356
     -2.227227     32.028103     32.028103     64.056207
     -2.217217     36.134557     36.134557     72.269113
     -2.207207     39.389818     39.389818     78.779637
     -2.197197     41.509716     41.509716     83.019432
     -2.187187     42.288817     42.288817     84.577635
     -2.177177     41.611625     41.611625     83.223251
     -2.167167     39.506956     39.506956     79.013911
     -2.157157     36.208040     36.208040     72.416080
     -2.147147     32.157155     32.157155     64.314310
     -2.137137     27.915428     27.915428     55.830856
     -2.127127     23.997781     23.997781     47.995561
     -2.117117     20.709493     20.709493     41.418986
     -2.107107     18.071375     18.071375     36.142750
     -2.097097     15.873477     15.873477     31.746954
     -2.087087     13.823552     13.823552     27.647104
     -2.077077     11.706086     11.706086     23.412172
     -2.067067      9.471872      9.471872     18.943745
     -2.057057      7.228163      7.228163     14.456326
     -2.047047      5.157443      5.157443     10.314886
     -2.037037      3.422470      3.422470      6.844941
     -2.027027      2.105845      2.105845      4.211689
     -2.017017      1.200341      1.200341      2.400682
     -2.007007      0.636778      0.636778      1.273556
     -1.996997      0.324624      0.324624      0.649249
     -1.986987      0.186065      0.186065      0.372130
     -1.976977      0.176575      0.176575      0.353149
     -1.966967      0.294206      0.294206      0.588412
     -1.956957      0.581846      0.581846      1.163691
     -1.946947      1.123232      1.123232      2.246464
     -1.936937      2.029039      2.029039      4.058079
     -1.926927      3.408472      3.408472      6.816944
     -1.916917      5.327066      5.327066     10.654132
     -1.906907      7.761227      7.761227     15.522454
     -1.896897     10.568325     10.568325     21.136651
     -1.886887     13.490725     13.490725     26.981450
     -1.876877     16.200375     16.200375     32.400750
     -1.866867     18.373267     18.373267     36.746534
     -1.856857     19.770315     19.770315     39.540630
     -1.846847     20.299241     20.299241     40.598482
     -1.836837     20.038521     20.038521     40.077043
     -1.826827     19.213547     19.213547     38.427095
     -1.816817     18.125679     18.125679     36.251359
     -1.806807     17.050229     17.050229     34.100459
     -1.796797     16.138191     16.138191     32.276381
     -1.786787     15.366264     15.366264     30.732527
     -1.776777     14.565515     14.565515     29.131030
     -1.766767     13.520993     13.520993     27.041987
     -1.756757     12.094607     12.094607     24.189215
     -1.746747     10.310091     10.310091     20.620182
     -1.736737      8.362704      8.362704     16.725408
     -1.726727      6.560209      6.560209     13.120419
     -1.716717      5.234343      5.234343     10.468687
     -1.706707      4.663878      4.663878      9.327756
     -1.696697      5.027186      5.027186     10.054372
     -1.686687      6.377077      6.377077     12.754154
     -1.676677      8.623228      8.623228     17.246456
     -1.666667     11.519670     11.519670     23.039340
     -1.656657     14.671978     14.671978     29.343957
     -1.646647     17.583821     17.583821     35.167641
     -1.636637     19.748935     19.748935     39.497871
     -1.626627     20.770554     20.770554     41.541107
