# EIG2DOS: Utility for SIESTA to obtain the electronic density of states
#  E. Artacho, Apr 1999, A. Garcia, Apr 2012
#  Nick R. Papior, Feb 2017
# ------------------------------------------
# Eigenvalues calculated from a non-polarized calculation
# Eigenvalues read from siesta.EIG
# Kpoint weights read from siesta.KP
# Using smearing parameter:   0.0500
# Using 1000 points in the energy range
# Selected bands: 1 to: 2981
# Emin, Emax in file for selected band(s):    -27.1530025    218.3483440
# Nbands, Nspin, Nk   =   2981     1     1
# E_F                 =    -4.2578 eV --> (shifted to ZERO)
# Broadening          =     0.0500 eV
#
#        E            N(up)  (=)   N(down)         Ntot
     -5.000000     34.675157     34.675157     69.350314
     -4.989990     38.222465     38.222465     76.444929
     -4.979980     41.116420     41.116420     82.232840
     -4.969970     42.934852     42.934852     85.869704
     -4.959960     43.395769     43.395769     86.791539
     -4.949950     42.439872     42.439872     84.879745
     -4.939940     40.261658     40.261658     80.523316
     -4.929930     37.287096     37.287096     74.574192
     -4.919920     34.116901     34.116901     68.233803
     -4.909910     31.454616     31.454616     62.909232
     -4.899900     30.019536     30.019536     60.039072
     -4.889890     30.425877     30.425877     60.851754
     -4.879880     33.017102     33.017102     66.034205
     -4.869870     37.686642     37.686642     75.373285
     -4.859860     43.768301     43.768301     87.536601
     -4.849850     50.094239     50.094239    100.188478
     -4.839840     55.262863     55.262863    110.525725
     -4.829830     58.050097     58.050097    116.100193
     -4.819820     57.800967     57.800967    115.601934
     -4.809810     54.624723     54.624723    109.249446
     -4.799800     49.306384     49.306384     98.612769
     -4.789790     42.989138     42.989138     85.978276
     -4.779780     36.786858     36.786858     73.573715
     -4.769770     31.493371     31.493371     62.986742
     -4.759760     27.474378     27.474378     54.948756
     -4.749750     24.723685     24.723685     49.447370
     -4.739740     23.002523     23.002523     46.005046
     -4.729730     21.979478     21.979478     43.958956
     -4.719720     21.325422     21.325422     42.650844
     -4.709710     20.757914     20.757914     41.515828
     -4.699700     20.054269     20.054269     40.108539
     -4.689690     19.060228     19.060228     38.120456
     -4.679680     17.714726     17.714726     35.429452
     -4.669670     16.093162     16.093162     32.186325
     -4.659660     14.449112     14.449112     28.898223
     -4.649650     13.221010     13.221010     26.442019
     -4.639640     12.975937     12.975937     25.951874
     -4.629630     14.285284     14.285284     28.570568
     -4.619620     17.555663     17.555663     35.111326
     -4.609610     22.862235     22.862235     45.724469
     -4.599600     29.844305     29.844305     59.688610
     -4.589590     37.718165     37.718165     75.436330
     -4.579580     45.432332     45.432332     90.864663
     -4.569570     51.936582     51.936582    103.873164
     -4.559560     56.478409     56.478409    112.956818
     -4.549550     58.812403     58.812403    117.624807
     -4.539540     59.234228     59.234228    118.468456
     -4.529530     58.424562     58.424562    116.849124
     -4.519520     57.171665     57.171665    114.343330
     -4.509510     56.089145     56.089145    112.178290
     -4.499499     55.435822     55.435822    110.871643
     -4.489489     55.089052     55.089052    110.178104
     -4.479479     54.655229     54.655229    109.310457
     -4.469469     53.653694     53.653694    107.307389
     -4.459459     51.697761     51.697761    103.395522
     -4.449449     48.614916     48.614916     97.229831
     -4.439439     44.483258     44.483258     88.966516
     -4.429429     39.596412     39.596412     79.192824
     -4.419419     34.390760     34.390760     68.781520
     -4.409409     29.368863     29.368863     58.737727
     -4.399399     25.034299     25.034299     50.068599
     -4.389389     21.831089     21.831089     43.662178
     -4.379379     20.074446     20.074446     40.148891
     -4.369369     19.876038     19.876038     39.752075
     -4.359359     21.093001     21.093001     42.186002
     -4.349349     23.340637     23.340637     46.681273
     -4.339339     26.088465     26.088465     52.176930
     -4.329329     28.816887     28.816887     57.633775
     -4.319319     31.174806     31.174806     62.349612
     -4.309309     33.072486     33.072486     66.144972
     -4.299299     34.672183     34.672183     69.344365
     -4.289289     36.282538     36.282538     72.565077
     -4.279279     38.197183     38.197183     76.394365
     -4.269269     40.532532     40.532532     81.065063
     -4.259259     43.119428     43.119428     86.238855
     -4.249249     45.494465     45.494465     90.988929
     -4.239239     47.015144     47.015144     94.030288
     -4.229229     47.079919     47.079919     94.159838
     -4.219219     45.377586     45.377586     90.755173
     -4.209209     42.053569     42.053569     84.107138
     -4.199199     37.700453     37.700453     75.400907
     -4.189189     33.161300     33.161300     66.322599
     -4.179179     29.233440     29.233440     58.466880
     -4.169169     26.414057     26.414057     52.828113
     -4.159159     24.801655     24.801655     49.603309
     -4.149149     24.179681     24.179681     48.359362
     -4.139139     24.216580     24.216580     48.433161
     -4.129129     24.669872     24.669872     49.339745
     -4.119119     25.493994     25.493994     50.987988
     -4.109109     26.805303     26.805303     53.610606
     -4.099099     28.726420     28.726420     57.452840
     -4.089089     31.192350     31.192350     62.384701
     -4.079079     33.829761     33.829761     67.659521
     -4.069069     35.997374     35.997374     71.994748
     -4.059059     36.997562     36.997562     73.995125
     -4.049049     36.370457     36.370457     72.740914
     -4.039039     34.122218     34.122218     68.244436
     -4.029029     30.764093     30.764093     61.528186
     -4.019019     27.140185     27.140185     54.280370
     -4.009009     24.136370     24.136370     48.272739
     -3.998999     22.417144     22.417144     44.834287
     -3.988989     22.301066     22.301066     44.602132
     -3.978979     23.791478     23.791478     47.582957
     -3.968969     26.694678     26.694678     53.389356
     -3.958959     30.734465     30.734465     61.468930
     -3.948949     35.612008     35.612008     71.224017
     -3.938939     41.020793     41.020793     82.041585
     -3.928929     46.657899     46.657899     93.315798
     -3.918919     52.256081     52.256081    104.512163
     -3.908909     57.619306     57.619306    115.238611
     -3.898899     62.619733     62.619733    125.239467
     -3.888889     67.131523     67.131523    134.263046
     -3.878879     70.925108     70.925108    141.850215
     -3.868869     73.588683     73.588683    147.177366
     -3.858859     74.548071     74.548071    149.096142
     -3.848849     73.213478     73.213478    146.426956
     -3.838839     69.212632     69.212632    138.425263
     -3.828829     62.612364     62.612364    125.224727
     -3.818819     54.019546     54.019546    108.039092
     -3.808809     44.498246     44.498246     88.996493
     -3.798799     35.321087     35.321087     70.642174
     -3.788789     27.645513     27.645513     55.291025
     -3.778779     22.232240     22.232240     44.464480
     -3.768769     19.295413     19.295413     38.590827
     -3.758759     18.515064     18.515064     37.030129
     -3.748749     19.186373     19.186373     38.372745
     -3.738739     20.448357     20.448357     40.896715
     -3.728729     21.527893     21.527893     43.055787
     -3.718719     21.942557     21.942557     43.885114
     -3.708709     21.618362     21.618362     43.236724
     -3.698699     20.893917     20.893917     41.787835
     -3.688689     20.403849     20.403849     40.807698
     -3.678679     20.863603     20.863603     41.727207
     -3.668669     22.811199     22.811199     45.622398
     -3.658659     26.387447     26.387447     52.774894
     -3.648649     31.237680     31.237680     62.475361
     -3.638639     36.583032     36.583032     73.166063
     -3.628629     41.443441     41.443441     82.886883
     -3.618619     44.927207     44.927207     89.854413
     -3.608609     46.472213     46.472213     92.944426
     -3.598599     45.953166     45.953166     91.906331
     -3.588589     43.639654     43.639654     87.279307
     -3.578579     40.055527     40.055527     80.111054
     -3.568569     35.812429     35.812429     71.624857
     -3.558559     31.468651     31.468651     62.937301
     -3.548549     27.430918     27.430918     54.861835
     -3.538539     23.901486     23.901486     47.802971
     -3.528529     20.877032     20.877032     41.754065
     -3.518519     18.206567     18.206567     36.413134
     -3.508509     15.697058     15.697058     31.394116
     -3.498498     13.227865     13.227865     26.455730
     -3.488488     10.823966     10.823966     21.647933
     -3.478478      8.656989      8.656989     17.313979
     -3.468468      6.979686      6.979686     13.959371
     -3.458458      6.027984      6.027984     12.055969
     -3.448448      5.930043      5.930043     11.860087
     -3.438438      6.649646      6.649646     13.299291
     -3.428428      7.977455      7.977455     15.954911
     -3.418418      9.575310      9.575310     19.150620
     -3.408408     11.069918     11.069918     22.139836
     -3.398398     12.175390     12.175390     24.350779
     -3.388388     12.803622     12.803622     25.607244
     -3.378378     13.114405     13.114405     26.228810
     -3.368368     13.476345     13.476345     26.952690
     -3.358358     14.349100     14.349100     28.698199
     -3.348348     16.132609     16.132609     32.265218
     -3.338338     19.036778     19.036778     38.073556
     -3.328328     23.003737     23.003737     46.007475
     -3.318318     27.686368     27.686368     55.372737
     -3.308308     32.476346     32.476346     64.952691
     -3.298298     36.585674     36.585674     73.171348
     -3.288288     39.193913     39.193913     78.387826
     -3.278278     39.652740     39.652740     79.305479
     -3.268268     37.693213     37.693213     75.386426
     -3.258258     33.546953     33.546953     67.093906
     -3.248248     27.910587     27.910587     55.821174
     -3.238238     21.754208     21.754208     43.508416
     -3.228228     16.053364     16.053364     32.106729
     -3.218218     11.555132     11.555132     23.110264
     -3.208208      8.654629      8.654629     17.309259
     -3.198198      7.391307      7.391307     14.782613
     -3.188188      7.524717      7.524717     15.049434
     -3.178178      8.643209      8.643209     17.286419
     -3.168168     10.282028     10.282028     20.564056
     -3.158158     12.045964     12.045964     24.091929
     -3.148148     13.725104     13.725104     27.450207
     -3.138138     15.369287     15.369287     30.738574
     -3.128128     17.275661     17.275661     34.551322
     -3.118118     19.865555     19.865555     39.731110
     -3.108108     23.477477     23.477477     46.954955
     -3.098098     28.154182     28.154182     56.308365
     -3.088088     33.520962     33.520962     67.041925
     -3.078078     38.823688     38.823688     77.647376
     -3.068068     43.128101     43.128101     86.256202
     -3.058058     45.607014     45.607014     91.214028
     -3.048048     45.796981     45.796981     91.593962
     -3.038038     43.717492     43.717492     87.434983
     -3.028028     39.812541     39.812541     79.625082
     -3.018018     34.761977     34.761977     69.523955
     -3.008008     29.267553     29.267553     58.535107
     -2.997998     23.912668     23.912668     47.825335
     -2.987988     19.134323     19.134323     38.268646
     -2.977978     15.275116     15.275116     30.550232
     -2.967968     12.646629     12.646629     25.293259
     -2.957958     11.546778     11.546778     23.093556
     -2.947948     12.212726     12.212726     24.425451
     -2.937938     14.729148     14.729148     29.458297
     -2.927928     18.933345     18.933345     37.866690
     -2.917918     24.363690     24.363690     48.727379
     -2.907908     30.289160     30.289160     60.578320
     -2.897898     35.834300     35.834300     71.668600
     -2.887888     40.177022     40.177022     80.354044
     -2.877878     42.758092     42.758092     85.516185
     -2.867868     43.422217     43.422217     86.844433
     -2.857858     42.428291     42.428291     84.856582
     -2.847848     40.318671     40.318671     80.637342
     -2.837838     37.700657     37.700657     75.401313
     -2.827828     35.034712     35.034712     70.069424
     -2.817818     32.519808     32.519808     65.039617
     -2.807808     30.116993     30.116993     60.233987
     -2.797798     27.682874     27.682874     55.365748
     -2.787788     25.131567     25.131567     50.263133
     -2.777778     22.535159     22.535159     45.070318
     -2.767768     20.112969     20.112969     40.225938
     -2.757758     18.126176     18.126176     36.252351
     -2.747748     16.748937     16.748937     33.497873
     -2.737738     15.997972     15.997972     31.995944
     -2.727728     15.762783     15.762783     31.525566
     -2.717718     15.911819     15.911819     31.823637
     -2.707708     16.398302     16.398302     32.796605
     -2.697698     17.288095     17.288095     34.576190
     -2.687688     18.684688     18.684688     37.369376
     -2.677678     20.600050     20.600050     41.200100
     -2.667668     22.864142     22.864142     45.728284
     -2.657658     25.146849     25.146849     50.293698
     -2.647648     27.092723     27.092723     54.185445
     -2.637638     28.490156     28.490156     56.980312
     -2.627628     29.368559     29.368559     58.737119
     -2.617618     29.962057     29.962057     59.924114
     -2.607608     30.565269     30.565269     61.130539
     -2.597598     31.373046     31.373046     62.746093
     -2.587588     32.394844     32.394844     64.789688
     -2.577578     33.472199     33.472199     66.944398
     -2.567568     34.357840     34.357840     68.715680
     -2.557558     34.791863     34.791863     69.583727
     -2.547548     34.544024     34.544024     69.088047
     -2.537538     33.441470     33.441470     66.882940
     -2.527528     31.417614     31.417614     62.835228
     -2.517518     28.585834     28.585834     57.171668
     -2.507508     25.294199     25.294199     50.588399
     -2.497497     22.101642     22.101642     44.203283
     -2.487487     19.650760     19.650760     39.301519
     -2.477477     18.474048     18.474048     36.948096
     -2.467467     18.815822     18.815822     37.631644
     -2.457457     20.552744     20.552744     41.105489
     -2.447447     23.252923     23.252923     46.505847
     -2.437437     26.350526     26.350526     52.701053
     -2.427427     29.359678     29.359678     58.719355
     -2.417417     32.031904     32.031904     64.063809
     -2.407407     34.385642     34.385642     68.771283
     -2.397397     36.595490     36.595490     73.190981
     -2.387387     38.796810     38.796810     77.593620
     -2.377377     40.905271     40.905271     81.810542
     -2.367367     42.548595     42.548595     85.097190
     -2.357357     43.157615     43.157615     86.315231
     -2.347347     42.187426     42.187426     84.374851
     -2.337337     39.372691     39.372691     78.745383
     -2.327327     34.899153     34.899153     69.798307
     -2.317317     29.410480     29.410480     58.820961
     -2.307307     23.847604     23.847604     47.695208
     -2.297297     19.192796     19.192796     38.385592
     -2.287287     16.222254     16.222254     32.444509
     -2.277277     15.348498     15.348498     30.696997
     -2.267267     16.581220     16.581220     33.162440
     -2.257257     19.587531     19.587531     39.175062
     -2.247247     23.809631     23.809631     47.619262
     -2.237237     28.597207     28.597207     57.194414
     -2.227227     33.320969     33.320969     66.641938
     -2.217217     37.445906     37.445906     74.891811
     -2.207207     40.559100     40.559100     81.118200
     -2.197197     42.366951     42.366951     84.733902
     -2.187187     42.691097     42.691097     85.382194
     -2.177177     41.487934     41.487934     82.975868
     -2.167167     38.889757     38.889757     77.779514
     -2.157157     35.232086     35.232086     70.464171
     -2.147147     31.019812     31.019812     62.039623
     -2.137137     26.812015     26.812015     53.624030
     -2.127127     23.059429     23.059429     46.118858
     -2.117117     19.971125     19.971125     39.942249
     -2.107107     17.482486     17.482486     34.964972
     -2.097097     15.342611     15.342611     30.685222
     -2.087087     13.271412     13.271412     26.542823
     -2.077077     11.101142     11.101142     22.202285
     -2.067067      8.835463      8.835463     17.670925
     -2.057057      6.613914      6.613914     13.227828
     -2.047047      4.621399      4.621399      9.242798
     -2.037037      3.000342      3.000342      6.000684
     -2.027027      1.805306      1.805306      3.610611
     -2.017017      1.006538      1.006538      2.013076
     -2.007007      0.523944      0.523944      1.047887
     -1.996997      0.267004      0.267004      0.534008
     -1.986987      0.164825      0.164825      0.329650
     -1.976977      0.182696      0.182696      0.365391
     -1.966967      0.328865      0.328865      0.657729
     -1.956957      0.655457      0.655457      1.310915
     -1.946947      1.253192      1.253192      2.506384
     -1.936937      2.235451      2.235451      4.470903
     -1.926927      3.707591      3.707591      7.415183
     -1.916917      5.723935      5.723935     11.447871
     -1.906907      8.245229      8.245229     16.490458
     -1.896897     11.116699     11.116699     22.233398
     -1.886887     14.084202     14.084202     28.168404
     -1.876877     16.851734     16.851734     33.703467
     -1.866867     19.164469     19.164469     38.328938
     -1.856857     20.887890     20.887890     41.775781
     -1.846847     22.051702     22.051702     44.103404
     -1.836837     22.836320     22.836320     45.672640
     -1.826827     23.496505     23.496505     46.993010
     -1.816817     24.239893     24.239893     48.479787
     -1.806807     25.104399     25.104399     50.208798
     -1.796797     25.894643     25.894643     51.789286
     -1.786787     26.224801     26.224801     52.449602
     -1.776777     25.667135     25.667135     51.334270
     -1.766767     23.944179     23.944179     47.888357
     -1.756757     21.069402     21.069402     42.138804
     -1.746747     17.364446     17.364446     34.728892
     -1.736737     13.348928     13.348928     26.697856
     -1.726727      9.566475      9.566475     19.132950
     -1.716717      6.434816      6.434816     12.869632
     -1.706707      4.179207      4.179207      8.358413
     -1.696697      2.853304      2.853304      5.706608
     -1.686687      2.407055      2.407055      4.814110
     -1.676677      2.748848      2.748848      5.497696
     -1.666667      3.767496      3.767496      7.534993
     -1.656657      5.312409      5.312409     10.624817
     -1.646647      7.159346      7.159346     14.318691
     -1.636637      9.000975      9.000975     18.001950
     -1.626627     10.490130     10.490130     20.980260
