# EIG2DOS: Utility for SIESTA to obtain the electronic density of states
#  E. Artacho, Apr 1999, A. Garcia, Apr 2012
#  Nick R. Papior, Feb 2017
# ------------------------------------------
# Eigenvalues calculated from a non-polarized calculation
# Eigenvalues read from siesta.EIG
# Kpoint weights read from siesta.KP
# Using smearing parameter:   0.0500
# Using 1000 points in the energy range
# Selected bands: 1 to: 2981
# Emin, Emax in file for selected band(s):    -27.0367162    218.3117230
# Nbands, Nspin, Nk   =   2981     1     1
# E_F                 =    -4.2973 eV --> (shifted to ZERO)
# Broadening          =     0.0500 eV
#
#        E            N(up)  (=)   N(down)         Ntot
     -5.000000     44.700225     44.700225     89.400449
     -4.989990     48.963403     48.963403     97.926806
     -4.979980     51.685802     51.685802    103.371603
     -4.969970     52.527921     52.527921    105.055843
     -4.959960     51.457077     51.457077    102.914154
     -4.949950     48.746120     48.746120     97.492240
     -4.939940     44.896901     44.896901     89.793803
     -4.929930     40.536450     40.536450     81.072899
     -4.919920     36.334845     36.334845     72.669689
     -4.909910     32.961851     32.961851     65.923702
     -4.899900     31.056491     31.056491     62.112982
     -4.889890     31.159315     31.159315     62.318631
     -4.879880     33.573902     33.573902     67.147805
     -4.869870     38.182653     38.182653     76.365305
     -4.859860     44.310507     44.310507     88.621015
     -4.849850     50.755651     50.755651    101.511301
     -4.839840     56.050149     56.050149    112.100299
     -4.829830     58.891116     58.891116    117.782232
     -4.819820     58.567257     58.567257    117.134513
     -4.809810     55.180875     55.180875    110.361749
     -4.799800     49.560801     49.560801     99.121602
     -4.789790     42.921439     42.921439     85.842878
     -4.779780     36.443906     36.443906     72.887812
     -4.769770     30.964510     30.964510     61.929021
     -4.759760     26.863641     26.863641     53.727283
     -4.749750     24.130457     24.130457     48.260915
     -4.739740     22.511031     22.511031     45.022062
     -4.729730     21.651653     21.651653     43.303307
     -4.719720     21.193878     21.193878     42.387756
     -4.709710     20.820991     20.820991     41.641981
     -4.699700     20.276694     20.276694     40.553388
     -4.689690     19.379405     19.379405     38.758809
     -4.679680     18.048123     18.048123     36.096246
     -4.669670     16.341988     16.341988     32.683977
     -4.659660     14.498673     14.498673     28.997347
     -4.649650     12.945078     12.945078     25.890155
     -4.639640     12.255210     12.255210     24.510420
     -4.629630     13.044353     13.044353     26.088705
     -4.619620     15.808803     15.808803     31.617605
     -4.609610     20.742066     20.742066     41.484131
     -4.599600     27.580305     27.580305     55.160609
     -4.589590     35.545795     35.545795     71.091589
     -4.579580     43.449660     43.449660     86.899320
     -4.569570     49.967923     49.967923     99.935846
     -4.559560     54.025224     54.025224    108.050448
     -4.549550     55.148176     55.148176    110.296353
     -4.539540     53.635442     53.635442    107.270885
     -4.529530     50.456805     50.456805    100.913609
     -4.519520     46.911300     46.911300     93.822601
     -4.509510     44.182077     44.182077     88.364155
     -4.499499     42.965748     42.965748     85.931497
     -4.489489     43.309875     43.309875     86.619749
     -4.479479     44.693653     44.693653     89.387306
     -4.469469     46.287341     46.287341     92.574681
     -4.459459     47.270098     47.270098     94.540196
     -4.449449     47.088593     47.088593     94.177185
     -4.439439     45.584796     45.584796     91.169593
     -4.429429     42.981478     42.981478     85.962956
     -4.419419     39.761923     39.761923     79.523847
     -4.409409     36.503460     36.503460     73.006920
     -4.399399     33.722209     33.722209     67.444417
     -4.389389     31.767166     31.767166     63.534331
     -4.379379     30.776421     30.776421     61.552842
     -4.369369     30.687737     30.687737     61.375474
     -4.359359     31.286090     31.286090     62.572180
     -4.349349     32.271718     32.271718     64.543436
     -4.339339     33.337131     33.337131     66.674261
     -4.329329     34.243024     34.243024     68.486048
     -4.319319     34.879226     34.879226     69.758452
     -4.309309     35.293403     35.293403     70.586805
     -4.299299     35.674444     35.674444     71.348888
     -4.289289     36.289693     36.289693     72.579387
     -4.279279     37.388642     37.388642     74.777284
     -4.269269     39.094667     39.094667     78.189334
     -4.259259     41.312685     41.312685     82.625371
     -4.249249     43.687794     43.687794     87.375588
     -4.239239     45.651576     45.651576     91.303152
     -4.229229     46.572393     46.572393     93.144786
     -4.219219     45.976825     45.976825     91.953649
     -4.209209     43.753731     43.753731     87.507462
     -4.199199     40.234413     40.234413     80.468826
     -4.189189     36.091111     36.091111     72.182222
     -4.179179     32.092022     32.092022     64.184044
     -4.169169     28.832599     28.832599     57.665198
     -4.159159     26.573994     26.573994     53.147988
     -4.149149     25.254120     25.254120     50.508240
     -4.139139     24.640997     24.640997     49.281995
     -4.129129     24.530096     24.530096     49.060193
     -4.119119     24.877355     24.877355     49.754711
     -4.109109     25.800754     25.800754     51.601507
     -4.099099     27.450816     27.450816     54.901631
     -4.089089     29.817954     29.817954     59.635908
     -4.079079     32.586418     32.586418     65.172836
     -4.069069     35.135899     35.135899     70.271797
     -4.059059     36.723355     36.723355     73.446711
     -4.049049     36.775977     36.775977     73.551955
     -4.039039     35.150742     35.150742     70.301483
     -4.029029     32.221885     32.221885     64.443770
     -4.019019     28.749611     28.749611     57.499222
     -4.009009     25.604809     25.604809     51.209617
     -3.998999     23.495739     23.495739     46.991477
     -3.988989     22.820088     22.820088     45.640177
     -3.978979     23.673341     23.673341     47.346681
     -3.968969     25.951627     25.951627     51.903255
     -3.958959     29.455224     29.455224     58.910447
     -3.948949     33.937150     33.937150     67.874300
     -3.938939     39.107430     39.107430     78.214860
     -3.928929     44.641253     44.641253     89.282506
     -3.918919     50.223075     50.223075    100.446150
     -3.908909     55.609649     55.609649    111.219297
     -3.898899     60.659069     60.659069    121.318137
     -3.888889     65.282739     65.282739    130.565479
     -3.878879     69.328647     69.328647    138.657295
     -3.868869     72.462112     72.462112    144.924224
     -3.858859     74.133417     74.133417    148.266835
     -3.848849     73.689517     73.689517    147.379035
     -3.838839     70.611510     70.611510    141.223021
     -3.828829     64.781287     64.781287    129.562573
     -3.818819     56.647214     56.647214    113.294428
     -3.808809     47.195048     47.195048     94.390097
     -3.798799     37.719563     37.719563     75.439125
     -3.788789     29.484117     29.484117     58.968235
     -3.778779     23.398864     23.398864     46.797729
     -3.768769     19.826488     19.826488     39.652976
     -3.758759     18.560568     18.560568     37.121136
     -3.748749     18.956422     18.956422     37.912845
     -3.738739     20.155674     20.155674     40.311348
     -3.728729     21.337048     21.337048     42.674097
     -3.718719     21.934316     21.934316     43.868633
     -3.708709     21.775577     21.775577     43.551154
     -3.698699     21.112642     21.112642     42.225283
     -3.688689     20.528550     20.528550     41.057099
     -3.678679     20.738735     20.738735     41.477470
     -3.668669     22.335002     22.335002     44.670004
     -3.658659     25.550697     25.550697     51.101395
     -3.648649     30.133267     30.133267     60.266535
     -3.638639     35.382313     35.382313     70.764626
     -3.628629     40.348752     40.348752     80.697503
     -3.618619     44.119636     44.119636     88.239273
     -3.608609     46.073715     46.073715     92.147431
     -3.598599     46.012177     46.012177     92.024354
     -3.588589     44.136710     44.136710     88.273421
     -3.578579     40.918599     40.918599     81.837198
     -3.568569     36.933950     36.933950     73.867900
     -3.558559     32.722748     32.722748     65.445496
     -3.548549     28.692645     28.692645     57.385291
     -3.538539     25.067179     25.067179     50.134359
     -3.528529     21.880082     21.880082     43.760163
     -3.518519     19.021994     19.021994     38.043987
     -3.508509     16.333065     16.333065     32.666130
     -3.498498     13.709280     13.709280     27.418559
     -3.488488     11.176013     11.176013     22.352026
     -3.478478      8.896030      8.896030     17.792060
     -3.468468      7.112712      7.112712     14.225425
     -3.458458      6.058426      6.058426     12.116852
     -3.448448      5.865718      5.865718     11.731437
     -3.438438      6.508964      6.508964     13.017928
     -3.428428      7.790878      7.790878     15.581757
     -3.418418      9.380338      9.380338     18.760676
     -3.408408     10.900004     10.900004     21.800009
     -3.398398     12.046167     12.046167     24.092334
     -3.388388     12.702149     12.702149     25.404298
     -3.378378     12.996835     12.996835     25.993671
     -3.368368     13.275975     13.275975     26.551951
     -3.358358     13.992279     13.992279     27.984559
     -3.348348     15.557665     15.557665     31.115330
     -3.338338     18.212287     18.212287     36.424574
     -3.328328     21.945002     21.945002     43.890005
     -3.318318     26.468840     26.468840     52.937680
     -3.308308     31.240529     31.240529     62.481057
     -3.298298     35.523724     35.523724     71.047447
     -3.288288     38.510603     38.510603     77.021206
     -3.278278     39.505569     39.505569     79.011138
     -3.268268     38.131613     38.131613     76.263227
     -3.258258     34.476435     34.476435     68.952870
     -3.248248     29.096739     29.096739     58.193478
     -3.238238     22.859660     22.859660     45.719320
     -3.228228     16.684395     16.684395     33.368790
     -3.218218     11.296797     11.296797     22.593593
     -3.208208      7.092741      7.092741     14.185481
     -3.198198      4.140281      4.140281      8.280562
     -3.188188      2.283701      2.283701      4.567402
     -3.178178      1.282460      1.282460      2.564920
     -3.168168      0.929031      0.929031      1.858061
     -3.158158      1.119908      1.119908      2.239816
     -3.148148      1.878854      1.878854      3.757708
     -3.138138      3.340101      3.340101      6.680202
     -3.128128      5.697148      5.697148     11.394297
     -3.118118      9.121912      9.121912     18.243825
     -3.108108     13.667191     13.667191     27.334381
     -3.098098     19.180232     19.180232     38.360464
     -3.088088     25.264891     25.264891     50.529783
     -3.078078     31.321502     31.321502     62.643003
     -3.068068     36.664083     36.664083     73.328166
     -3.058058     40.676924     40.676924     81.353847
     -3.048048     42.950378     42.950378     85.900757
     -3.038038     43.346472     43.346472     86.692944
     -3.028028     41.984293     41.984293     83.968586
     -3.018018     39.176994     39.176994     78.353988
     -3.008008     35.367069     35.367069     70.734138
     -2.997998     31.085865     31.085865     62.171730
     -2.987988     26.926842     26.926842     53.853684
     -2.977978     23.501604     23.501604     47.003207
     -2.967968     21.359746     21.359746     42.719492
     -2.957958     20.886161     20.886161     41.772321
     -2.947948     22.214274     22.214274     44.428549
     -2.937938     25.190948     25.190948     50.381896
     -2.927928     29.403047     29.403047     58.806094
     -2.917918     34.249690     34.249690     68.499379
     -2.907908     39.036931     39.036931     78.073862
     -2.897898     43.082111     43.082111     86.164223
     -2.887888     45.824991     45.824991     91.649982
     -2.877878     46.936108     46.936108     93.872216
     -2.867868     46.393046     46.393046     92.786091
     -2.857858     44.484084     44.484084     88.968167
     -2.847848     41.715681     41.715681     83.431361
     -2.837838     38.643665     38.643665     77.287331
     -2.827828     35.692612     35.692612     71.385225
     -2.817818     33.042780     33.042780     66.085559
     -2.807808     30.635202     30.635202     61.270403
     -2.797798     28.286433     28.286433     56.572867
     -2.787788     25.847874     25.847874     51.695749
     -2.777778     23.322956     23.322956     46.645912
     -2.767768     20.881725     20.881725     41.763451
     -2.757758     18.772322     18.772322     37.544644
     -2.747748     17.188569     17.188569     34.377138
     -2.737738     16.177362     16.177362     32.354724
     -2.727728     15.643207     15.643207     31.286413
     -2.717718     15.444685     15.444685     30.889370
     -2.707708     15.517044     15.517044     31.034088
     -2.697698     15.935626     15.935626     31.871251
     -2.687688     16.871260     16.871260     33.742521
     -2.677678     18.459783     18.459783     36.919565
     -2.667668     20.668071     20.668071     41.336142
     -2.657658     23.247502     23.247502     46.495004
     -2.647648     25.813708     25.813708     51.627416
     -2.637638     28.010760     28.010760     56.021521
     -2.627628     29.661861     29.661861     59.323721
     -2.617618     30.816994     30.816994     61.633988
     -2.607608     31.676343     31.676343     63.352686
     -2.597598     32.448088     32.448088     64.896177
     -2.587588     33.232737     33.232737     66.465474
     -2.577578     33.991865     33.991865     67.983730
     -2.567568     34.590194     34.590194     69.180387
     -2.557558     34.855304     34.855304     69.710608
     -2.547548     34.612190     34.612190     69.224380
     -2.537538     33.698974     33.698974     67.397949
     -2.527528     32.002235     32.002235     64.004471
     -2.517518     29.531885     29.531885     59.063769
     -2.507508     26.503844     26.503844     53.007688
     -2.497497     23.364211     23.364211     46.728421
     -2.487487     20.706895     20.706895     41.413790
     -2.477477     19.098129     19.098129     38.196258
     -2.467467     18.881926     18.881926     37.763853
     -2.457457     20.059733     20.059733     40.119466
     -2.447447     22.304653     22.304653     44.609305
     -2.437437     25.106203     25.106203     50.212407
     -2.427427     27.979250     27.979250     55.958501
     -2.417417     30.639862     30.639862     61.279724
     -2.407407     33.065519     33.065519     66.131038
     -2.397397     35.411612     35.411612     70.823225
     -2.387387     37.826215     37.826215     75.652429
     -2.377377     40.257639     40.257639     80.515278
     -2.367367     42.357978     42.357978     84.715957
     -2.357357     43.544296     43.544296     87.088593
     -2.347347     43.204738     43.204738     86.409477
     -2.337337     40.963995     40.963995     81.927989
     -2.327327     36.888168     36.888168     73.776335
     -2.317317     31.533610     31.533610     63.067220
     -2.307307     25.816803     25.816803     51.633605
     -2.297297     20.763377     20.763377     41.526754
     -2.287287     17.239794     17.239794     34.479589
     -2.277277     15.761616     15.761616     31.523233
     -2.267267     16.423965     16.423965     32.847931
     -2.257257     18.946937     18.946937     37.893874
     -2.247247     22.796296     22.796296     45.592592
     -2.237237     27.330663     27.330663     54.661325
     -2.227227     31.931115     31.931115     63.862229
     -2.217217     36.081523     36.081523     72.163046
     -2.207207     39.389063     39.389063     78.778125
     -2.197197     41.562542     41.562542     83.125083
     -2.187187     42.388708     42.388708     84.777416
     -2.177177     41.745204     41.745204     83.490407
     -2.167167     39.656791     39.656791     79.313582
     -2.157157     36.356557     36.356557     72.713114
     -2.147147     32.290270     32.290270     64.580539
     -2.137137     28.024621     28.024621     56.049242
     -2.127127     24.080125     24.080125     48.160249
     -2.117117     20.766163     20.766163     41.532327
     -2.107107     18.105734     18.105734     36.211469
     -2.097097     15.889653     15.889653     31.779306
     -2.087087     13.825800     13.825800     27.651600
     -2.077077     11.698639     11.698639     23.397277
     -2.067067      9.458825      9.458825     18.917649
     -2.057057      7.213168      7.213168     14.426336
     -2.047047      5.143307      5.143307     10.286613
     -2.037037      3.410885      3.410885      6.821771
     -2.027027      2.097426      2.097426      4.194851
     -2.017017      1.194946      1.194946      2.389892
     -2.007007      0.633986      0.633986      1.267972
     -1.996997      0.324247      0.324247      0.648494
     -1.986987      0.188661      0.188661      0.377322
     -1.976977      0.183977      0.183977      0.367955
     -1.966967      0.310017      0.310017      0.620034
     -1.956957      0.611661      0.611661      1.223322
     -1.946947      1.174149      1.174149      2.348298
     -1.936937      2.107964      2.107964      4.215927
     -1.926927      3.519129      3.519129      7.038259
     -1.916917      5.466462      5.466462     10.932924
     -1.906907      7.917213      7.917213     15.834426
     -1.896897     10.720221     10.720221     21.440441
     -1.886887     13.613987     13.613987     27.227974
     -1.876877     16.274319     16.274319     32.548639
     -1.866867     18.388866     18.388866     36.777732
     -1.856857     19.734516     19.734516     39.469032
     -1.846847     20.233575     20.233575     40.467150
     -1.836837     19.972256     19.972256     39.944512
     -1.826827     19.173869     19.173869     38.347738
     -1.816817     18.128381     18.128381     36.256762
     -1.806807     17.094062     17.094062     34.188124
     -1.796797     16.204856     16.204856     32.409711
     -1.786787     15.426199     15.426199     30.852398
     -1.776777     14.587375     14.587375     29.174749
     -1.766767     13.480641     13.480641     26.961281
     -1.756757     11.978750     11.978750     23.957500
     -1.746747     10.111360     10.111360     20.222720
     -1.736737      8.066888      8.066888     16.133776
     -1.726727      6.131112      6.131112     12.262224
     -1.716717      4.605442      4.605442      9.210884
     -1.706707      3.746683      3.746683      7.493367
     -1.696697      3.742188      3.742188      7.484376
     -1.686687      4.703352      4.703352      9.406703
     -1.676677      6.649271      6.649271     13.298543
     -1.666667      9.467693      9.467693     18.935386
     -1.656657     12.870506     12.870506     25.741012
     -1.646647     16.383991     16.383991     32.767982
     -1.636637     19.411008     19.411008     38.822016
     -1.626627     21.369810     21.369810     42.739621
