# EIG2DOS: Utility for SIESTA to obtain the electronic density of states
#  E. Artacho, Apr 1999, A. Garcia, Apr 2012
#  Nick R. Papior, Feb 2017
# ------------------------------------------
# Eigenvalues calculated from a non-polarized calculation
# Eigenvalues read from siesta.EIG
# Kpoint weights read from siesta.KP
# Using smearing parameter:   0.0500
# Using 1000 points in the energy range
# Selected bands: 1 to: 2981
# Emin, Emax in file for selected band(s):    -27.0332389    218.3041360
# Nbands, Nspin, Nk   =   2981     1     1
# E_F                 =    -4.3051 eV --> (shifted to ZERO)
# Broadening          =     0.0500 eV
#
#        E            N(up)  (=)   N(down)         Ntot
     -5.000000     40.756760     40.756760     81.513520
     -4.989990     45.618684     45.618684     91.237368
     -4.979980     49.611113     49.611113     99.222226
     -4.969970     52.184074     52.184074    104.368147
     -4.959960     52.930761     52.930761    105.861522
     -4.949950     51.717467     51.717467    103.434934
     -4.939940     48.755419     48.755419     97.510838
     -4.929930     44.589229     44.589229     89.178457
     -4.919920     40.011696     40.011696     80.023391
     -4.909910     35.937096     35.937096     71.874192
     -4.899900     33.259703     33.259703     66.519405
     -4.889890     32.700913     32.700913     65.401826
     -4.879880     34.638349     34.638349     69.276699
     -4.869870     38.937703     38.937703     77.875406
     -4.859860     44.858859     44.858859     89.717717
     -4.849850     51.131491     51.131491    102.262981
     -4.839840     56.246583     56.246583    112.493166
     -4.829830     58.897551     58.897551    117.795103
     -4.819820     58.397623     58.397623    116.795246
     -4.809810     54.881974     54.881974    109.763949
     -4.799800     49.201313     49.201313     98.402626
     -4.789790     42.570905     42.570905     85.141810
     -4.779780     36.153495     36.153495     72.306990
     -4.769770     30.757384     30.757384     61.514767
     -4.759760     26.736126     26.736126     53.472251
     -4.749750     24.060377     24.060377     48.120755
     -4.739740     22.468418     22.468418     44.936836
     -4.729730     21.608437     21.608437     43.216873
     -4.719720     21.130861     21.130861     42.261722
     -4.709710     20.731290     20.731290     41.462579
     -4.699700     20.165359     20.165359     40.330718
     -4.689690     19.259843     19.259843     38.519686
     -4.679680     17.937121     17.937121     35.874243
     -4.669670     16.255663     16.255663     32.511327
     -4.659660     14.450959     14.450959     28.901918
     -4.649650     12.948669     12.948669     25.897339
     -4.639640     12.323189     12.323189     24.646378
     -4.629630     13.189984     13.189984     26.379968
     -4.619620     16.041721     16.041721     32.083443
     -4.609610     21.061098     21.061098     42.122197
     -4.599600     27.965791     27.965791     55.931582
     -4.589590     35.956103     35.956103     71.912206
     -4.579580     43.826122     43.826122     87.652245
     -4.569570     50.249005     50.249005    100.498010
     -4.559560     54.165671     54.165671    108.331342
     -4.549550     55.135041     55.135041    110.270082
     -4.539540     53.493159     53.493159    106.986319
     -4.529530     50.238280     50.238280    100.476559
     -4.519520     46.678716     46.678716     93.357431
     -4.509510     43.985723     43.985723     87.971447
     -4.499499     42.828923     42.828923     85.657847
     -4.489489     43.223238     43.223238     86.446476
     -4.479479     44.616539     44.616539     89.233077
     -4.469469     46.150276     46.150276     92.300552
     -4.459459     46.974410     46.974410     93.948820
     -4.449449     46.505088     46.505088     93.010177
     -4.439439     44.560901     44.560901     89.121802
     -4.429429     41.369568     41.369568     82.739136
     -4.419419     37.475614     37.475614     74.951228
     -4.409409     33.591660     33.591660     67.183321
     -4.399399     30.429397     30.429397     60.858794
     -4.389389     28.537191     28.537191     57.074381
     -4.379379     28.170962     28.170962     56.341923
     -4.369369     29.230534     29.230534     58.461068
     -4.359359     31.290387     31.290387     62.580775
     -4.349349     33.729470     33.729470     67.458940
     -4.339339     35.924759     35.924759     71.849518
     -4.329329     37.440465     37.440465     74.880931
     -4.319319     38.142822     38.142822     76.285643
     -4.309309     38.203804     38.203804     76.407608
     -4.299299     38.006143     38.006143     76.012286
     -4.289289     37.996913     37.996913     75.993825
     -4.279279     38.540959     38.540959     77.081918
     -4.269269     39.806145     39.806145     79.612290
     -4.259259     41.693846     41.693846     83.387691
     -4.249249     43.827033     43.827033     87.654067
     -4.239239     45.616697     45.616697     91.233394
     -4.229229     46.418973     46.418973     92.837946
     -4.219219     45.754544     45.754544     91.509087
     -4.209209     43.508023     43.508023     87.016045
     -4.199199     40.004670     40.004670     80.009340
     -4.189189     35.907619     35.907619     71.815237
     -4.179179     31.973222     31.973222     63.946444
     -4.169169     28.783714     28.783714     57.567429
     -4.159159     26.587826     26.587826     53.175652
     -4.149149     25.314632     25.314632     50.629263
     -4.139139     24.729533     24.729533     49.459066
     -4.129129     24.632649     24.632649     49.265298
     -4.119119     24.989834     24.989834     49.979669
     -4.109109     25.928950     25.928950     51.857900
     -4.099099     27.603751     27.603751     55.207502
     -4.089089     29.997170     29.997170     59.994340
     -4.079079     32.777270     32.777270     65.554541
     -4.069069     35.307214     35.307214     70.614427
     -4.059059     36.837646     36.837646     73.675291
     -4.049049     36.805816     36.805816     73.611633
     -4.039039     35.092317     35.092317     70.184633
     -4.029029     32.097754     32.097754     64.195509
     -4.019019     28.599054     28.599054     57.198108
     -4.009009     25.467614     25.467614     50.935228
     -3.998999     23.398665     23.398665     46.797330
     -3.988989     22.772481     22.772481     45.544962
     -3.978979     23.671892     23.671892     47.343784
     -3.968969     25.988906     25.988906     51.977811
     -3.958959     29.525798     29.525798     59.051596
     -3.948949     34.038578     34.038578     68.077156
     -3.938939     39.237740     39.237740     78.475479
     -3.928929     44.796436     44.796436     89.592872
     -3.918919     50.396714     50.396714    100.793429
     -3.908909     55.793990     55.793990    111.587981
     -3.898899     60.845299     60.845299    121.690599
     -3.888889     65.459147     65.459147    130.918295
     -3.878879     69.477734     69.477734    138.955467
     -3.868869     72.559554     72.559554    145.119107
     -3.858859     74.151504     74.151504    148.303009
     -3.848849     73.605299     73.605299    147.210597
     -3.838839     70.416808     70.416808    140.833616
     -3.828829     64.489890     64.489890    128.979780
     -3.818819     56.295257     56.295257    112.590513
     -3.808809     46.833522     46.833522     93.667044
     -3.798799     37.401504     37.401504     74.803008
     -3.788789     29.251152     29.251152     58.502303
     -3.778779     23.271600     23.271600     46.543200
     -3.768769     19.801244     19.801244     39.602489
     -3.758759     18.612560     18.612560     37.225121
     -3.748749     19.047838     19.047838     38.095675
     -3.738739     20.246331     20.246331     40.492662
     -3.728729     21.395106     21.395106     42.790212
     -3.718719     21.944535     21.944535     43.889069
     -3.708709     21.742963     21.742963     43.485925
     -3.698699     21.060188     21.060188     42.120375
     -3.688689     20.489264     20.489264     40.978528
     -3.678679     20.744045     20.744045     41.488090
     -3.668669     22.403247     22.403247     44.806494
     -3.658659     25.679951     25.679951     51.359901
     -3.648649     30.301484     30.301484     60.602967
     -3.638639     35.554872     35.554872     71.109744
     -3.628629     40.490130     40.490130     80.980261
     -3.618619     44.204064     44.204064     88.408127
     -3.608609     46.090570     46.090570     92.181141
     -3.598599     45.965057     45.965057     91.930113
     -3.588589     44.038412     44.038412     88.076823
     -3.578579     40.785547     40.785547     81.571095
     -3.568569     36.782363     36.782363     73.564727
     -3.558559     32.566617     32.566617     65.133234
     -3.548549     28.542433     28.542433     57.084866
     -3.538539     24.928679     24.928679     49.857358
     -3.528529     21.754085     21.754085     43.508170
     -3.518519     18.905731     18.905731     37.811462
     -3.508509     16.223377     16.223377     32.446755
     -3.498498     13.606124     13.606124     27.212248
     -3.488488     11.084429     11.084429     22.168858
     -3.478478      8.825525      8.825525     17.651050
     -3.468468      7.074345      7.074345     14.148690
     -3.458458      6.060759      6.060759     12.121518
     -3.448448      5.910951      5.910951     11.821903
     -3.438438      6.590383      6.590383     13.180766
     -3.428428      7.892628      7.892628     15.785255
     -3.418418      9.480297      9.480297     18.960594
     -3.408408     10.975718     10.975718     21.951436
     -3.398398     12.082342     12.082342     24.164684
     -3.388388     12.696989     12.696989     25.393978
     -3.378378     12.964483     12.964483     25.928966
     -3.368368     13.243858     13.243858     26.487716
     -3.358358     13.994265     13.994265     27.988529
     -3.348348     15.625217     15.625217     31.250433
     -3.338338     18.365710     18.365710     36.731420
     -3.328328     22.186118     22.186118     44.372235
     -3.318318     26.776308     26.776308     53.552616
     -3.308308     31.569791     31.569791     63.139582
     -3.298298     35.813868     35.813868     71.627735
     -3.288288     38.698687     38.698687     77.397373
     -3.278278     39.545040     39.545040     79.090080
     -3.268268     38.007774     38.007774     76.015548
     -3.258258     34.211677     34.211677     68.423355
     -3.248248     28.742608     28.742608     57.485216
     -3.238238     22.479318     22.479318     44.958637
     -3.228228     16.333561     16.333561     32.667121
     -3.218218     11.010956     11.010956     22.021912
     -3.208208      6.884121      6.884121     13.768243
     -3.198198      4.002942      4.002942      8.005885
     -3.188188      2.202235      2.202235      4.404470
     -3.178178      1.239971      1.239971      2.479943
     -3.168168      0.912118      0.912118      1.824237
     -3.158158      1.120468      1.120468      2.240935
     -3.148148      1.893579      1.893579      3.787158
     -3.138138      3.368596      3.368596      6.737192
     -3.128128      5.739180      5.739180     11.478360
     -3.118118      9.174147      9.174147     18.348294
     -3.108108     13.720137     13.720137     27.440275
     -3.098098     19.216792     19.216792     38.433584
     -3.088088     25.262282     25.262282     50.524565
     -3.078078     31.257555     31.257555     62.515109
     -3.068068     36.526676     36.526676     73.053352
     -3.058058     40.472351     40.472351     80.944701
     -3.048048     42.704723     42.704723     85.409446
     -3.038038     43.095592     43.095592     86.191185
     -3.028028     41.753255     41.753255     83.506510
     -3.018018     38.956527     38.956527     77.913053
     -3.008008     35.099108     35.099108     70.198216
     -2.997998     30.669474     30.669474     61.338947
     -2.987988     26.249300     26.249300     52.498600
     -2.977978     22.489118     22.489118     44.978236
     -2.967968     20.031191     20.031191     40.062381
     -2.957958     19.385827     19.385827     38.771654
     -2.947948     20.801088     20.801088     41.602176
     -2.937938     24.175942     24.175942     48.351885
     -2.927928     29.051316     29.051316     58.102632
     -2.917918     34.685495     34.685495     69.370991
     -2.907908     40.195472     40.195472     80.390944
     -2.897898     44.731659     44.731659     89.463318
     -2.887888     47.648522     47.648522     95.297043
     -2.877878     48.633309     48.633309     97.266619
     -2.867868     47.758618     47.758618     95.517236
     -2.857858     45.436832     45.436832     90.873664
     -2.847848     42.280373     42.280373     84.560746
     -2.837838     38.906968     38.906968     77.813937
     -2.827828     35.757876     35.757876     71.515753
     -2.817818     32.999626     32.999626     65.999252
     -2.807808     30.547615     30.547615     61.095229
     -2.797798     28.194354     28.194354     56.388708
     -2.787788     25.774365     25.774365     51.548731
     -2.777778     23.280579     23.280579     46.561159
     -2.767768     20.875367     20.875367     41.750733
     -2.757758     18.799161     18.799161     37.598323
     -2.747748     17.237889     17.237889     34.475778
     -2.737738     16.232786     16.232786     32.465573
     -2.727728     15.688045     15.688045     31.376090
     -2.717718     15.468529     15.468529     30.937058
     -2.707708     15.520226     15.520226     31.040451
     -2.697698     15.928785     15.928785     31.857570
     -2.687688     16.869897     16.869897     33.739794
     -2.677678     18.476676     18.476676     36.953352
     -2.667668     20.707821     20.707821     41.415641
     -2.657658     23.306152     23.306152     46.612303
     -2.647648     25.883229     25.883229     51.766458
     -2.637638     28.085124     28.085124     56.170249
     -2.627628     29.740616     29.740616     59.481232
     -2.617618     30.904192     30.904192     61.808384
     -2.607608     31.775961     31.775961     63.551921
     -2.597598     32.559364     32.559364     65.118729
     -2.587588     33.348461     33.348461     66.696923
     -2.577578     34.100119     34.100119     68.200238
     -2.567568     34.677579     34.677579     69.355158
     -2.557558     34.909383     34.909383     69.818766
     -2.547548     34.622690     34.622690     69.245379
     -2.537538     33.659286     33.659286     67.318573
     -2.527528     31.912683     31.912683     63.825365
     -2.517518     29.403966     29.403966     58.807933
     -2.507508     26.362292     26.362292     52.724584
     -2.497497     23.243554     23.243554     46.487108
     -2.487487     20.641936     20.641936     41.283871
     -2.477477     19.111524     19.111524     38.223048
     -2.467467     18.974462     18.974462     37.948924
     -2.457457     20.208273     20.208273     40.416546
     -2.447447     22.469428     22.469428     44.938855
     -2.437437     25.244799     25.244799     50.489597
     -2.427427     28.061459     28.061459     56.122918
     -2.417417     30.657135     30.657135     61.314270
     -2.407407     33.031249     33.031249     66.062498
     -2.397397     35.352657     35.352657     70.705314
     -2.387387     37.769777     37.769777     75.539554
     -2.377377     40.219220     40.219220     80.438440
     -2.367367     42.335216     42.335216     84.670432
     -2.357357     43.518859     43.518859     87.037718
     -2.347347     43.151174     43.151174     86.302349
     -2.337337     40.861663     40.861663     81.723327
     -2.327327     36.731119     36.731119     73.462238
     -2.317317     31.334249     31.334249     62.668499
     -2.307307     25.602160     25.602160     51.204321
     -2.297297     20.566304     20.566304     41.132607
     -2.287287     17.089409     17.089409     34.178819
     -2.277277     15.676850     15.676850     31.353700
     -2.267267     16.411692     16.411692     32.823383
     -2.257257     19.003745     19.003745     38.007489
     -2.247247     22.911751     22.911751     45.823501
     -2.237237     27.490184     27.490184     54.980367
     -2.227227     32.117588     32.117588     64.235176
     -2.217217     36.275800     36.275800     72.551601
     -2.207207     39.570178     39.570178     79.140357
     -2.197197     41.708808     41.708808     83.417616
     -2.187187     42.480614     42.480614     84.961229
     -2.177177     41.770043     41.770043     83.540086
     -2.167167     39.613388     39.613388     79.226776
     -2.157157     36.257351     36.257351     72.514702
     -2.147147     32.158477     32.158477     64.316955
     -2.137137     27.886566     27.886566     55.773132
     -2.127127     23.955837     23.955837     47.911674
     -2.117117     20.662887     20.662887     41.325773
     -2.107107     18.017683     18.017683     36.035365
     -2.097097     15.803874     15.803874     31.607749
     -2.087087     13.730597     13.730597     27.461194
     -2.077077     11.589920     11.589920     23.179840
     -2.067067      9.341516      9.341516     18.683032
     -2.057057      7.097956      7.097956     14.195911
     -2.047047      5.041372      5.041372     10.082745
     -2.037037      3.329654      3.329654      6.659307
     -2.027027      2.038972      2.038972      4.077944
     -2.017017      1.156913      1.156913      2.313826
     -2.007007      0.611772      0.611772      1.223545
     -1.996997      0.313188      0.313188      0.626376
     -1.986987      0.185533      0.185533      0.371065
     -1.976977      0.187771      0.187771      0.375542
     -1.966967      0.322207      0.322207      0.644414
     -1.956957      0.636077      0.636077      1.272154
     -1.946947      1.216293      1.216293      2.432585
     -1.936937      2.173471      2.173471      4.346942
     -1.926927      3.611316      3.611316      7.222632
     -1.916917      5.583509      5.583509     11.167018
     -1.906907      8.050230      8.050230     16.100459
     -1.896897     10.853611     10.853611     21.707222
     -1.886887     13.728821     13.728821     27.457643
     -1.876877     16.353959     16.353959     32.707918
     -1.866867     18.424718     18.424718     36.849436
     -1.856857     19.729443     19.729443     39.458886
     -1.846847     20.201391     20.201391     40.402782
     -1.836837     19.933328     19.933328     39.866656
     -1.826827     19.148288     19.148288     38.296575
     -1.816817     18.128898     18.128898     36.257796
     -1.806807     17.121159     17.121159     34.242317
     -1.796797     16.245878     16.245878     32.491756
     -1.786787     15.459345     15.459345     30.918691
     -1.776777     14.589339     14.589339     29.178679
     -1.766767     13.434623     13.434623     26.869246
     -1.756757     11.878571     11.878571     23.757141
     -1.746747      9.958514      9.958514     19.917028
     -1.736737      7.860187      7.860187     15.720375
     -1.726727      5.851902      5.851902     11.703805
     -1.716717      4.204145      4.204145      8.408291
     -1.706707      3.138268      3.138268      6.276537
     -1.696697      2.818561      2.818561      5.637122
     -1.686687      3.367847      3.367847      6.735694
     -1.676677      4.869975      4.869975      9.739951
     -1.666667      7.332809      7.332809     14.665619
     -1.656657     10.616960     10.616960     21.233920
     -1.646647     14.371173     14.371173     28.742345
     -1.636637     18.032037     18.032037     36.064074
     -1.626627     20.926641     20.926641     41.853281
