# EIG2DOS: Utility for SIESTA to obtain the electronic density of states
#  E. Artacho, Apr 1999, A. Garcia, Apr 2012
#  Nick R. Papior, Feb 2017
# ------------------------------------------
# Eigenvalues calculated from a non-polarized calculation
# Eigenvalues read from siesta.EIG
# Kpoint weights read from siesta.KP
# Using smearing parameter:   0.0500
# Using 1000 points in the energy range
# Selected bands: 1 to: 2981
# Emin, Emax in file for selected band(s):    -27.3442442    218.3938970
# Nbands, Nspin, Nk   =   2981     1     1
# E_F                 =    -4.2080 eV --> (shifted to ZERO)
# Broadening          =     0.0500 eV
#
#        E            N(up)  (=)   N(down)         Ntot
     -5.000000     34.306931     34.306931     68.613861
     -4.989990     38.849362     38.849362     77.698725
     -4.979980     42.713201     42.713201     85.426403
     -4.969970     45.238061     45.238061     90.476121
     -4.959960     45.969800     45.969800     91.939600
     -4.949950     44.812454     44.812454     89.624907
     -4.939940     42.067648     42.067648     84.135297
     -4.929930     38.363891     38.363891     76.727782
     -4.919920     34.522793     34.522793     69.045587
     -4.909910     31.413540     31.413540     62.827080
     -4.899900     29.817045     29.817045     59.634090
     -4.889890     30.290939     30.290939     60.581879
     -4.879880     33.028609     33.028609     66.057217
     -4.869870     37.742237     37.742237     75.484474
     -4.859860     43.637819     43.637819     87.275638
     -4.849850     49.546360     49.546360     99.092721
     -4.839840     54.214815     54.214815    108.429630
     -4.829830     56.672305     56.672305    113.344611
     -4.819820     56.528410     56.528410    113.056820
     -4.809810     54.074009     54.074009    108.148018
     -4.799800     50.139741     50.139741    100.279482
     -4.789790     45.776117     45.776117     91.552234
     -4.779780     41.892883     41.892883     83.785766
     -4.769770     38.998588     38.998588     77.997176
     -4.759760     37.122387     37.122387     74.244773
     -4.749750     35.916572     35.916572     71.833144
     -4.739740     34.869777     34.869777     69.739555
     -4.729730     33.530286     33.530286     67.060572
     -4.719720     31.651386     31.651386     63.302772
     -4.709710     29.218145     29.218145     58.436290
     -4.699700     26.376920     26.376920     52.753839
     -4.689690     23.334960     23.334960     46.669920
     -4.679680     20.301158     20.301158     40.602316
     -4.669670     17.498384     17.498384     34.996768
     -4.659660     15.220798     15.220798     30.441596
     -4.649650     13.874143     13.874143     27.748286
     -4.639640     13.943325     13.943325     27.886650
     -4.629630     15.870820     15.870820     31.741641
     -4.619620     19.877484     19.877484     39.754967
     -4.609610     25.793481     25.793481     51.586962
     -4.599600     32.979616     32.979616     65.959232
     -4.589590     40.400919     40.400919     80.801839
     -4.579580     46.862760     46.862760     93.725519
     -4.569570     51.347769     51.347769    102.695537
     -4.559560     53.332411     53.332411    106.664822
     -4.549550     52.952232     52.952232    105.904463
     -4.539540     50.939218     50.939218    101.878436
     -4.529530     48.350079     48.350079     96.700157
     -4.519520     46.192625     46.192625     92.385250
     -4.509510     45.095860     45.095860     90.191720
     -4.499499     45.143345     45.143345     90.286691
     -4.489489     45.915830     45.915830     91.831661
     -4.479479     46.703689     46.703689     93.407378
     -4.469469     46.789037     46.789037     93.578075
     -4.459459     45.684485     45.684485     91.368970
     -4.449449     43.251058     43.251058     86.502115
     -4.439439     39.681063     39.681063     79.362126
     -4.429429     35.390126     35.390126     70.780252
     -4.419419     30.888334     30.888334     61.776668
     -4.409409     26.684382     26.684382     53.368763
     -4.399399     23.234300     23.234300     46.468600
     -4.389389     20.909201     20.909201     41.818402
     -4.379379     19.950896     19.950896     39.901792
     -4.369369     20.412222     20.412222     40.824444
     -4.359359     22.115312     22.115312     44.230623
     -4.349349     24.672913     24.672913     49.345826
     -4.339339     27.591240     27.591240     55.182481
     -4.329329     30.424297     30.424297     60.848594
     -4.319319     32.913458     32.913458     65.826917
     -4.309309     35.047431     35.047431     70.094861
     -4.299299     37.014620     37.014620     74.029239
     -4.289289     39.068286     39.068286     78.136572
     -4.279279     41.359245     41.359245     82.718491
     -4.269269     43.801351     43.801351     87.602703
     -4.259259     46.025762     46.025762     92.051524
     -4.249249     47.455827     47.455827     94.911654
     -4.239239     47.494806     47.494806     94.989612
     -4.229229     45.767643     45.767643     91.535285
     -4.219219     42.316975     42.316975     84.633950
     -4.209209     37.654185     37.654185     75.308371
     -4.199199     32.623856     32.623856     65.247712
     -4.189189     28.131057     28.131057     56.262114
     -4.179179     24.852521     24.852521     49.705041
     -4.169169     23.059874     23.059874     46.119748
     -4.159159     22.622134     22.622134     45.244267
     -4.149149     23.164194     23.164194     46.328388
     -4.139139     24.288781     24.288781     48.577561
     -4.129129     25.751254     25.751254     51.502507
     -4.119119     27.508889     27.508889     55.017779
     -4.109109     29.628949     29.628949     59.257898
     -4.099099     32.108511     32.108511     64.217021
     -4.089089     34.708686     34.708686     69.417372
     -4.079079     36.910994     36.910994     73.821989
     -4.069069     38.049942     38.049942     76.099885
     -4.059059     37.579764     37.579764     75.159527
     -4.049049     35.346856     35.346856     70.693713
     -4.039039     31.721514     31.721514     63.443029
     -4.029029     27.512683     27.512683     55.025366
     -4.019019     23.706575     23.706575     47.413151
     -4.009009     21.159350     21.159350     42.318700
     -3.998999     20.382225     20.382225     40.764449
     -3.988989     21.488745     21.488745     42.977490
     -3.978979     24.281026     24.281026     48.562052
     -3.968969     28.393714     28.393714     56.787428
     -3.958959     33.417258     33.417258     66.834517
     -3.948949     38.967900     38.967900     77.935800
     -3.938939     44.717941     44.717941     89.435883
     -3.928929     50.412894     50.412894    100.825788
     -3.918919     55.881353     55.881353    111.762706
     -3.908909     61.018100     61.018100    122.036200
     -3.898899     65.722035     65.722035    131.444070
     -3.888889     69.802623     69.802623    139.605247
     -3.878879     72.905589     72.905589    145.811179
     -3.868869     74.517441     74.517441    149.034881
     -3.858859     74.076843     74.076843    148.153686
     -3.848849     71.166037     71.166037    142.332074
     -3.838839     65.709341     65.709341    131.418683
     -3.828829     58.093228     58.093228    116.186457
     -3.818819     49.149085     49.149085     98.298170
     -3.808809     39.992260     39.992260     79.984519
     -3.798799     31.765808     31.765808     63.531615
     -3.788789     25.371535     25.371535     50.743069
     -3.778779     21.272047     21.272047     42.544094
     -3.768769     19.418727     19.418727     38.837454
     -3.758759     19.317160     19.317160     38.634320
     -3.748749     20.201638     20.201638     40.403276
     -3.738739     21.265462     21.265462     42.530925
     -3.728729     21.886144     21.886144     43.772287
     -3.718719     21.790440     21.790440     43.580880
     -3.708709     21.118960     21.118960     42.237920
     -3.698699     20.371226     20.371226     40.742452
     -3.688689     20.239172     20.239172     40.478344
     -3.678679     21.368288     21.368288     42.736576
     -3.668669     24.114588     24.114588     48.229175
     -3.658659     28.379577     28.379577     56.759154
     -3.648649     33.590412     33.590412     67.180824
     -3.638639     38.844037     38.844037     77.688075
     -3.628629     43.167476     43.167476     86.334953
     -3.618619     45.794708     45.794708     91.589416
     -3.608609     46.355369     46.355369     92.710739
     -3.598599     44.917510     44.917510     89.835020
     -3.588589     41.896713     41.896713     83.793426
     -3.578579     37.893667     37.893667     75.787335
     -3.568569     33.527694     33.527694     67.055389
     -3.558559     29.306771     29.306771     58.613542
     -3.548549     25.547029     25.547029     51.094058
     -3.538539     22.345846     22.345846     44.691693
     -3.528529     19.614456     19.614456     39.228912
     -3.518519     17.168242     17.168242     34.336484
     -3.508509     14.849547     14.849547     29.699095
     -3.498498     12.635567     12.635567     25.271135
     -3.488488     10.684169     10.684169     21.368339
     -3.478478      9.297038      9.297038     18.594076
     -3.468468      8.814962      8.814962     17.629924
     -3.458458      9.483664      9.483664     18.967327
     -3.448448     11.334085     11.334085     22.668170
     -3.438438     14.116134     14.116134     28.232268
     -3.428428     17.316037     17.316037     34.632074
     -3.418418     20.270389     20.270389     40.540777
     -3.408408     22.357950     22.357950     44.715900
     -3.398398     23.210053     23.210053     46.420106
     -3.388388     22.856132     22.856132     45.712263
     -3.378378     21.736261     21.736261     43.472523
     -3.368368     20.567638     20.567638     41.135277
     -3.358358     20.117039     20.117039     40.234079
     -3.348348     20.967250     20.967250     41.934500
     -3.338338     23.353911     23.353911     46.707822
     -3.328328     27.106107     27.106107     54.212214
     -3.318318     31.684109     31.684109     63.368219
     -3.308308     36.293458     36.293458     72.586915
     -3.298298     40.057903     40.057903     80.115807
     -3.288288     42.228416     42.228416     84.456832
     -3.278278     42.379646     42.379646     84.759291
     -3.268268     40.520792     40.520792     81.041583
     -3.258258     37.061969     37.061969     74.123938
     -3.248248     32.640896     32.640896     65.281792
     -3.238238     27.891369     27.891369     55.782739
     -3.228228     23.266592     23.266592     46.533185
     -3.218218     18.989987     18.989987     37.979975
     -3.208208     15.123956     15.123956     30.247911
     -3.198198     11.684354     11.684354     23.368707
     -3.188188      8.724766      8.724766     17.449531
     -3.178178      6.359230      6.359230     12.718459
     -3.168168      4.741270      4.741270      9.482540
     -3.158158      4.034774      4.034774      8.069549
     -3.148148      4.395188      4.395188      8.790375
     -3.138138      5.951409      5.951409     11.902817
     -3.128128      8.766556      8.766556     17.533113
     -3.118118     12.770044     12.770044     25.540088
     -3.108108     17.684082     17.684082     35.368164
     -3.098098     22.992240     22.992240     45.984480
     -3.088088     27.994703     27.994703     55.989405
     -3.078078     31.958195     31.958195     63.916390
     -3.068068     34.314391     34.314391     68.628782
     -3.058058     34.821997     34.821997     69.643994
     -3.048048     33.614283     33.614283     67.228566
     -3.038038     31.109168     31.109168     62.218335
     -3.028028     27.832321     27.832321     55.664642
     -3.018018     24.248271     24.248271     48.496543
     -3.008008     20.680734     20.680734     41.361468
     -2.997998     17.342137     17.342137     34.684273
     -2.987988     14.426590     14.426590     28.853181
     -2.977978     12.191942     12.191942     24.383884
     -2.967968     10.975504     10.975504     21.951008
     -2.957958     11.132256     11.132256     22.264512
     -2.947948     12.922538     12.922538     25.845077
     -2.937938     16.393024     16.393024     32.786048
     -2.927928     21.294047     21.294047     42.588094
     -2.917918     27.067573     27.067573     54.135146
     -2.907908     32.925249     32.925249     65.850498
     -2.897898     38.011083     38.011083     76.022167
     -2.887888     41.609817     41.609817     83.219634
     -2.877878     43.333093     43.333093     86.666186
     -2.867868     43.210369     43.210369     86.420738
     -2.857858     41.641177     41.641177     83.282354
     -2.847848     39.222189     39.222189     78.444378
     -2.837838     36.520453     36.520453     73.040906
     -2.827828     33.891699     33.891699     67.783397
     -2.817818     31.421274     31.421274     62.842547
     -2.807808     29.002931     29.002931     58.005862
     -2.797798     26.499996     26.499996     52.999993
     -2.787788     23.893832     23.893832     47.787663
     -2.777778     21.338620     21.338620     42.677240
     -2.767768     19.100714     19.100714     38.201427
     -2.757758     17.429765     17.429765     34.859530
     -2.747748     16.446495     16.446495     32.892990
     -2.737738     16.115724     16.115724     32.231448
     -2.727728     16.313705     16.313705     32.627409
     -2.717718     16.934177     16.934177     33.868354
     -2.707708     17.951540     17.951540     35.903079
     -2.697698     19.391793     19.391793     38.783586
     -2.687688     21.232468     21.232468     42.464936
     -2.677678     23.311893     23.311893     46.623787
     -2.667668     25.330287     25.330287     50.660575
     -2.657658     26.963691     26.963691     53.927383
     -2.647648     28.028032     28.028032     56.056063
     -2.637638     28.586349     28.586349     57.172699
     -2.627628     28.923031     28.923031     57.846061
     -2.617618     29.394821     29.394821     58.789641
     -2.607608     30.247287     30.247287     60.494575
     -2.597598     31.500647     31.500647     63.001294
     -2.587588     32.953739     32.953739     65.907478
     -2.577578     34.276437     34.276437     68.552874
     -2.567568     35.119226     35.119226     70.238452
     -2.557558     35.188029     35.188029     70.376057
     -2.547548     34.283995     34.283995     68.567989
     -2.537538     32.340258     32.340258     64.680517
     -2.527528     29.473570     29.473570     58.947140
     -2.517518     26.027111     26.027111     52.054222
     -2.507508     22.555295     22.555295     45.110590
     -2.497497     19.719060     19.719060     39.438120
     -2.487487     18.110099     18.110099     36.220198
     -2.477477     18.068965     18.068965     36.137931
     -2.467467     19.574893     19.574893     39.149785
     -2.457457     22.258523     22.258523     44.517046
     -2.447447     25.537738     25.537738     51.075476
     -2.437437     28.824682     28.824682     57.649364
     -2.427427     31.720104     31.720104     63.440208
     -2.417417     34.113043     34.113043     68.226085
     -2.407407     36.141529     36.141529     72.283058
     -2.397397     38.030508     38.030508     76.061015
     -2.387387     39.881859     39.881859     79.763718
     -2.377377     41.521152     41.521152     83.042304
     -2.367367     42.488260     42.488260     84.976521
     -2.357357     42.195077     42.195077     84.390154
     -2.347347     40.188953     40.188953     80.377905
     -2.337337     36.399181     36.399181     72.798362
     -2.327327     31.245111     31.245111     62.490222
     -2.317317     25.552773     25.552773     51.105546
     -2.307307     20.322738     20.322738     40.645476
     -2.297297     16.456895     16.456895     32.913790
     -2.287287     14.551602     14.551602     29.103205
     -2.277277     14.811637     14.811637     29.623273
     -2.267267     17.076342     17.076342     34.152684
     -2.257257     20.912970     20.912970     41.825940
     -2.247247     25.730003     25.730003     51.460005
     -2.237237     30.879898     30.879898     61.759797
     -2.227227     35.738222     35.738222     71.476443
     -2.217217     39.757764     39.757764     79.515528
     -2.207207     42.504125     42.504125     85.008250
     -2.197197     43.685059     43.685059     87.370117
     -2.187187     43.185617     43.185617     86.371234
     -2.177177     41.109237     41.109237     82.218474
     -2.167167     37.803857     37.803857     75.607714
     -2.157157     33.836899     33.836899     67.673798
     -2.147147     29.892017     29.892017     59.784033
     -2.137137     26.597999     26.597999     53.195998
     -2.127127     24.346081     24.346081     48.692163
     -2.117117     23.173398     23.173398     46.346797
     -2.107107     22.768105     22.768105     45.536210
     -2.097097     22.596679     22.596679     45.193358
     -2.087087     22.099154     22.099154     44.198308
     -2.077077     20.873533     20.873533     41.747066
     -2.067067     18.784412     18.784412     37.568823
     -2.057057     15.969219     15.969219     31.938438
     -2.047047     12.757006     12.757006     25.514013
     -2.037037      9.542843      9.542843     19.085687
     -2.027027      6.668278      6.668278     13.336556
     -2.017017      4.346143      4.346143      8.692286
     -2.007007      2.644000      2.644000      5.288001
     -1.996997      1.516343      1.516343      3.032686
     -1.986987      0.861507      0.861507      1.723014
     -1.976977      0.578655      0.578655      1.157310
     -1.966967      0.608688      0.608688      1.217376
     -1.956957      0.952711      0.952711      1.905422
     -1.946947      1.667364      1.667364      3.334727
     -1.936937      2.838465      2.838465      5.676930
     -1.926927      4.537153      4.537153      9.074306
     -1.916917      6.768915      6.768915     13.537830
     -1.906907      9.433159      9.433159     18.866318
     -1.896897     12.312667     12.312667     24.625333
     -1.886887     15.103496     15.103496     30.206992
     -1.876877     17.479392     17.479392     34.958784
     -1.866867     19.170095     19.170095     38.340190
     -1.856857     20.028498     20.028498     40.056995
     -1.846847     20.067196     20.067196     40.134392
     -1.836837     19.453626     19.453626     38.907251
     -1.826827     18.460618     18.460618     36.921236
     -1.816817     17.379359     17.379359     34.758719
     -1.806807     16.418432     16.418432     32.836864
     -1.796797     15.628983     15.628983     31.257966
     -1.786787     14.895620     14.895620     29.791240
     -1.776777     14.005273     14.005273     28.010545
     -1.766767     12.763730     12.763730     25.527459
     -1.756757     11.100468     11.100468     22.200935
     -1.746747      9.109302      9.109302     18.218604
     -1.736737      7.011548      7.011548     14.023096
     -1.726727      5.072209      5.072209     10.144419
     -1.716717      3.519225      3.519225      7.038451
     -1.706707      2.502218      2.502218      5.004437
     -1.696697      2.094955      2.094955      4.189909
     -1.686687      2.318264      2.318264      4.636528
     -1.676677      3.153145      3.153145      6.306289
     -1.666667      4.528037      4.528037      9.056073
     -1.656657      6.289023      6.289023     12.578047
     -1.646647      8.181665      8.181665     16.363331
     -1.636637      9.875314      9.875314     19.750629
     -1.626627     11.041192     11.041192     22.082384
