# EIG2DOS: Utility for SIESTA to obtain the electronic density of states
#  E. Artacho, Apr 1999, A. Garcia, Apr 2012
#  Nick R. Papior, Feb 2017
# ------------------------------------------
# Eigenvalues calculated from a non-polarized calculation
# Eigenvalues read from siesta.EIG
# Kpoint weights read from siesta.KP
# Using smearing parameter:   0.0500
# Using 1000 points in the energy range
# Selected bands: 1 to: 2981
# Emin, Emax in file for selected band(s):    -27.0680054    218.3226280
# Nbands, Nspin, Nk   =   2981     1     1
# E_F                 =    -4.2911 eV --> (shifted to ZERO)
# Broadening          =     0.0500 eV
#
#        E            N(up)  (=)   N(down)         Ntot
     -5.000000     41.424142     41.424142     82.848285
     -4.989990     42.821305     42.821305     85.642610
     -4.979980     43.765269     43.765269     87.530537
     -4.969970     44.071054     44.071054     88.142109
     -4.959960     43.551572     43.551572     87.103143
     -4.949950     42.116018     42.116018     84.232036
     -4.939940     39.840967     39.840967     79.681933
     -4.929930     36.997379     36.997379     73.994759
     -4.919920     34.039159     34.039159     68.078318
     -4.909910     31.563003     31.563003     63.126006
     -4.899900     30.235822     30.235822     60.471644
     -4.889890     30.672035     30.672035     61.344070
     -4.879880     33.252701     33.252701     66.505403
     -4.869870     37.921683     37.921683     75.843366
     -4.859860     44.048699     44.048699     88.097397
     -4.849850     50.467344     50.467344    100.934688
     -4.839840     55.740592     55.740592    111.481184
     -4.829830     58.589990     58.589990    117.179981
     -4.819820     58.316231     58.316231    116.632461
     -4.809810     55.017524     55.017524    110.035048
     -4.799800     49.505507     49.505507     99.011015
     -4.789790     42.972695     42.972695     85.945389
     -4.779780     36.582286     36.582286     73.164572
     -4.769770     31.160930     31.160930     62.321860
     -4.759760     27.086777     27.086777     54.173553
     -4.749750     24.351025     24.351025     48.702049
     -4.739740     22.703880     22.703880     45.407759
     -4.729730     21.797649     21.797649     43.595298
     -4.719720     21.282256     21.282256     42.564512
     -4.709710     20.851110     20.851110     41.702221
     -4.699700     20.257798     20.257798     40.515597
     -4.689690     19.328207     19.328207     38.656413
     -4.679680     17.985567     17.985567     35.971135
     -4.669670     16.290902     16.290902     32.581804
     -4.659660     14.482901     14.482901     28.965802
     -4.649650     12.988919     12.988919     25.977837
     -4.639640     12.380845     12.380845     24.761689
     -4.629630     13.265511     13.265511     26.531022
     -4.619620     16.121348     16.121348     32.242695
     -4.609610     21.115505     21.115505     42.231010
     -4.599600     27.956476     27.956476     55.912952
     -4.589590     35.849779     35.849779     71.699558
     -4.579580     43.612641     43.612641     87.225282
     -4.569570     49.954438     49.954438     99.908876
     -4.559560     53.852753     53.852753    107.705506
     -4.549550     54.889130     54.889130    109.778260
     -4.539540     53.400149     53.400149    106.800299
     -4.529530     50.366273     50.366273    100.732546
     -4.519520     47.074242     47.074242     94.148484
     -4.509510     44.688798     44.688798     89.377596
     -4.499499     43.903029     43.903029     87.806058
     -4.489489     44.789479     44.789479     89.578958
     -4.479479     46.876288     46.876288     93.752575
     -4.469469     49.377635     49.377635     98.755270
     -4.459459     51.461607     51.461607    102.923215
     -4.449449     52.455836     52.455836    104.911672
     -4.439439     51.950761     51.950761    103.901521
     -4.429429     49.820882     49.820882     99.641764
     -4.419419     46.210377     46.210377     92.420753
     -4.409409     41.512446     41.512446     83.024893
     -4.399399     36.333761     36.333761     72.667523
     -4.389389     31.412327     31.412327     62.824653
     -4.379379     27.471938     27.471938     54.943877
     -4.369369     25.041074     25.041074     50.082148
     -4.359359     24.304873     24.304873     48.609746
     -4.349349     25.062097     25.062097     50.124194
     -4.339339     26.816656     26.816656     53.633311
     -4.329329     28.969334     28.969334     57.938667
     -4.319319     31.028285     31.028285     62.056571
     -4.309309     32.753082     32.753082     65.506164
     -4.299299     34.184396     34.184396     68.368793
     -4.289289     35.563582     35.563582     71.127163
     -4.279279     37.184188     37.184188     74.368377
     -4.269269     39.229431     39.229431     78.458862
     -4.259259     41.645121     41.645121     83.290243
     -4.249249     44.090346     44.090346     88.180693
     -4.239239     45.997499     45.997499     91.994998
     -4.229229     46.744973     46.744973     93.489946
     -4.219219     45.894572     45.894572     91.789144
     -4.209209     43.395004     43.395004     86.790008
     -4.199199     39.645102     39.645102     79.290204
     -4.189189     35.369033     35.369033     70.738067
     -4.179179     31.354854     31.354854     62.709709
     -4.169169     28.184196     28.184196     56.368393
     -4.159159     26.082629     26.082629     52.165258
     -4.149149     24.948001     24.948001     49.896002
     -4.139139     24.517374     24.517374     49.034749
     -4.129129     24.569291     24.569291     49.138583
     -4.119119     25.053424     25.053424     50.106848
     -4.109109     26.084588     26.084588     52.169176
     -4.099099     27.806681     27.806681     55.613362
     -4.089089     30.198451     30.198451     60.396901
     -4.079079     32.931960     32.931960     65.863920
     -4.069069     35.382397     35.382397     70.764794
     -4.059059     36.816923     36.816923     73.633846
     -4.049049     36.688847     36.688847     73.377694
     -4.039039     34.891182     34.891182     69.782363
     -4.029029     31.833696     31.833696     63.667391
     -4.019019     28.301856     28.301856     56.603712
     -4.009009     25.176381     25.176381     50.352761
     -3.998999     23.160035     23.160035     46.320070
     -3.988989     22.633110     22.633110     45.266220
     -3.978979     23.666251     23.666251     47.332502
     -3.968969     26.127884     26.127884     52.255768
     -3.958959     29.792588     29.792588     59.585176
     -3.948949     34.394763     34.394763     68.789527
     -3.938939     39.636864     39.636864     79.273727
     -3.928929     45.198465     45.198465     90.396930
     -3.918919     50.776925     50.776925    101.553850
     -3.908909     56.143248     56.143248    112.286496
     -3.898899     61.163017     61.163017    122.326035
     -3.888889     65.743377     65.743377    131.486755
     -3.878879     69.717770     69.717770    139.435539
     -3.868869     72.735036     72.735036    145.470071
     -3.858859     74.238753     74.238753    148.477507
     -3.848849     73.587802     73.587802    147.175604
     -3.838839     70.294393     70.294393    140.588786
     -3.828829     64.281743     64.281743    128.563486
     -3.818819     56.035289     56.035289    112.070578
     -3.808809     46.560589     46.560589     93.121178
     -3.798799     37.149151     37.149151     74.298301
     -3.788789     29.040956     29.040956     58.081913
     -3.778779     23.111678     23.111678     46.223356
     -3.768769     19.688931     19.688931     39.377861
     -3.758759     18.538976     18.538976     37.077951
     -3.748749     19.002182     19.002182     38.004364
     -3.738739     20.218695     20.218695     40.437390
     -3.728729     21.377641     21.377641     42.755282
     -3.718719     21.931524     21.931524     43.863049
     -3.708709     21.730591     21.730591     43.461182
     -3.698699     21.046655     21.046655     42.093309
     -3.688689     20.475462     20.475462     40.950924
     -3.678679     20.734402     20.734402     41.468805
     -3.668669     22.405858     22.405858     44.811716
     -3.658659     25.705070     25.705070     51.410139
     -3.648649     30.358124     30.358124     60.716247
     -3.638639     35.646383     35.646383     71.292767
     -3.628629     40.610632     40.610632     81.221265
     -3.618619     44.337685     44.337685     88.675370
     -3.608609     46.214387     46.214387     92.428774
     -3.598599     46.054930     46.054930     92.109860
     -3.588589     44.075607     44.075607     88.151215
     -3.578579     40.761752     40.761752     81.523504
     -3.568569     36.701554     36.701554     73.403108
     -3.558559     32.443551     32.443551     64.887102
     -3.548549     28.398620     28.398620     56.797239
     -3.538539     24.787204     24.787204     49.574408
     -3.528529     21.634634     21.634634     43.269268
     -3.518519     18.820879     18.820879     37.641757
     -3.508509     16.176831     16.176831     32.353662
     -3.498498     13.593146     13.593146     27.186292
     -3.488488     11.094139     11.094139     22.188277
     -3.478478      8.844282      8.844282     17.688563
     -3.468468      7.089228      7.089228     14.178455
     -3.458458      6.062351      6.062351     12.124703
     -3.448448      5.895075      5.895075     11.790150
     -3.438438      6.558713      6.558713     13.117427
     -3.428428      7.852189      7.852189     15.704379
     -3.418418      9.441757      9.441757     18.883515
     -3.408408     10.950563     10.950563     21.901126
     -3.398398     12.079463     12.079463     24.158927
     -3.388388     12.719660     12.719660     25.439321
     -3.378378     13.008763     13.008763     26.017525
     -3.368368     13.299002     13.299002     26.598004
     -3.358358     14.045088     14.045088     28.090175
     -3.348348     15.655901     15.655901     31.311803
     -3.338338     18.364331     18.364331     36.728662
     -3.328328     22.148886     22.148886     44.297772
     -3.318318     26.710106     26.710106     53.420212
     -3.308308     31.491452     31.491452     62.982904
     -3.298298     35.745517     35.745517     71.491034
     -3.288288     38.660338     38.660338     77.320676
     -3.278278     39.547488     39.547488     79.094976
     -3.268268     38.049164     38.049164     76.098327
     -3.258258     34.279365     34.279365     68.558730
     -3.248248     28.819085     28.819085     57.638170
     -3.238238     22.548966     22.548966     45.097931
     -3.228228     16.387109     16.387109     32.774217
     -3.218218     11.046375     11.046375     22.092750
     -3.208208      6.904838      6.904838     13.809676
     -3.198198      4.015442      4.015442      8.030885
     -3.188188      2.215041      2.215041      4.430082
     -3.178178      1.265348      1.265348      2.530695
     -3.168168      0.971344      0.971344      1.942688
     -3.158158      1.253270      1.253270      2.506541
     -3.148148      2.171651      2.171651      4.343303
     -3.138138      3.910939      3.910939      7.821878
     -3.128128      6.722667      6.722667     13.445335
     -3.118118     10.827256     10.827256     21.654512
     -3.108108     16.285015     16.285015     32.570030
     -3.098098     22.870707     22.870707     45.741415
     -3.088088     30.008314     30.008314     60.016627
     -3.078078     36.822384     36.822384     73.644768
     -3.068068     42.325384     42.325384     84.650768
     -3.058058     45.694816     45.694816     91.389632
     -3.048048     46.533801     46.533801     93.067602
     -3.038038     44.996815     44.996815     89.993630
     -3.028028     41.717356     41.717356     83.434713
     -3.018018     37.570763     37.570763     75.141525
     -3.008008     33.385300     33.385300     66.770600
     -2.997998     29.729567     29.729567     59.459134
     -2.987988     26.850794     26.850794     53.701589
     -2.977978     24.756920     24.756920     49.513839
     -2.967968     23.373577     23.373577     46.747154
     -2.957958     22.688669     22.688669     45.377338
     -2.947948     22.816163     22.816163     45.632326
     -2.937938     23.951044     23.951044     47.902089
     -2.927928     26.235844     26.235844     52.471687
     -2.917918     29.603124     29.603124     59.206247
     -2.907908     33.679127     33.679127     67.358254
     -2.897898     37.814467     37.814467     75.628934
     -2.887888     41.249574     41.249574     82.499148
     -2.877878     43.352556     43.352556     86.705112
     -2.867868     43.824369     43.824369     87.648738
     -2.857858     42.776902     42.776902     85.553805
     -2.847848     40.649571     40.649571     81.299142
     -2.837838     38.007380     38.007380     76.014760
     -2.827828     35.317750     35.317750     70.635500
     -2.817818     32.807781     32.807781     65.615562
     -2.807808     30.457901     30.457901     60.915802
     -2.797798     28.116941     28.116941     56.233882
     -2.787788     25.664279     25.664279     51.328557
     -2.777778     23.126812     23.126812     46.253625
     -2.767768     20.690341     20.690341     41.380683
     -2.757758     18.608366     18.608366     37.216731
     -2.747748     17.070898     17.070898     34.141796
     -2.737738     16.117382     16.117382     32.234765
     -2.727728     15.647992     15.647992     31.295984
     -2.717718     15.523505     15.523505     31.047011
     -2.707708     15.684985     15.684985     31.369969
     -2.697698     16.209082     16.209082     32.418163
     -2.687688     17.255247     17.255247     34.510494
     -2.677678     18.933425     18.933425     37.866851
     -2.667668     21.178069     21.178069     42.356139
     -2.657658     23.716714     23.716714     47.433428
     -2.647648     26.163900     26.163900     52.327801
     -2.637638     28.189645     28.189645     56.379290
     -2.627628     29.660944     29.660944     59.321888
     -2.617618     30.671481     30.671481     61.342962
     -2.607608     31.448476     31.448476     62.896951
     -2.597598     32.203824     32.203824     64.407647
     -2.587588     33.022908     33.022908     66.045817
     -2.577578     33.843243     33.843243     67.686486
     -2.567568     34.504853     34.504853     69.009705
     -2.557558     34.814054     34.814054     69.628109
     -2.547548     34.580166     34.580166     69.160332
     -2.537538     33.634620     33.634620     67.269241
     -2.527528     31.870539     31.870539     63.741077
     -2.517518     29.318783     29.318783     58.637566
     -2.507508     26.225280     26.225280     52.450560
     -2.497497     23.064225     23.064225     46.128449
     -2.487487     20.444421     20.444421     40.888842
     -2.477477     18.928075     18.928075     37.856151
     -2.467467     18.838762     18.838762     37.677524
     -2.457457     20.149908     20.149908     40.299817
     -2.447447     22.509576     22.509576     45.019152
     -2.437437     25.392860     25.392860     50.785720
     -2.427427     28.312852     28.312852     56.625705
     -2.417417     30.992780     30.992780     61.985561
     -2.407407     33.418968     33.418968     66.837936
     -2.397397     35.750245     35.750245     71.500490
     -2.387387     38.129496     38.129496     76.258992
     -2.377377     40.493841     40.493841     80.987683
     -2.367367     42.485718     42.485718     84.971436
     -2.357357     43.522888     43.522888     87.045777
     -2.347347     43.009827     43.009827     86.019655
     -2.337337     40.601402     40.601402     81.202803
     -2.327327     36.398835     36.398835     72.797669
     -2.317317     30.986352     30.986352     61.972704
     -2.307307     25.291406     25.291406     50.582812
     -2.297297     20.331071     20.331071     40.662142
     -2.287287     16.948702     16.948702     33.897403
     -2.277277     15.631487     15.631487     31.262973
     -2.267267     16.449701     16.449701     32.899403
     -2.257257     19.106906     19.106906     38.213811
     -2.247247     23.060582     23.060582     46.121164
     -2.237237     27.665929     27.665929     55.331857
     -2.227227     32.301379     32.301379     64.602758
     -2.217217     36.446742     36.446742     72.893484
     -2.207207     39.704875     39.704875     79.409750
     -2.197197     41.784151     41.784151     83.568303
     -2.187187     42.479584     42.479584     84.959167
     -2.177177     41.687959     41.687959     83.375919
     -2.167167     39.461151     39.461151     78.922301
     -2.157157     36.059394     36.059394     72.118788
     -2.147147     31.945850     31.945850     63.891700
     -2.137137     27.687999     27.687999     55.375998
     -2.127127     23.790484     23.790484     47.580968
     -2.117117     20.537353     20.537353     41.074706
     -2.107107     17.927777     17.927777     35.855553
     -2.097097     15.739453     15.739453     31.478905
     -2.087087     13.680938     13.680938     27.361876
     -2.077077     11.547439     11.547439     23.094877
     -2.067067      9.302915      9.302915     18.605829
     -2.057057      7.063243      7.063243     14.126486
     -2.047047      5.011964      5.011964     10.023928
     -2.037037      3.306717      3.306717      6.613435
     -2.027027      2.022622      2.022622      4.045244
     -2.017017      1.146217      1.146217      2.292433
     -2.007007      0.605160      0.605160      1.210319
     -1.996997      0.308841      0.308841      0.617682
     -1.986987      0.181496      0.181496      0.362992
     -1.976977      0.181750      0.181750      0.363500
     -1.966967      0.311213      0.311213      0.622425
     -1.956957      0.616207      0.616207      1.232415
     -1.946947      1.183037      1.183037      2.366074
     -1.936937      2.122871      2.122871      4.245742
     -1.926927      3.541981      3.541981      7.083962
     -1.916917      5.498889      5.498889     10.997777
     -1.906907      7.959930      7.959930     15.919860
     -1.896897     10.772420     10.772420     21.544839
     -1.886887     13.672894     13.672894     27.345788
     -1.876877     16.335099     16.335099     32.670199
     -1.866867     18.445095     18.445095     36.890191
     -1.856857     19.779374     19.779374     39.558748
     -1.846847     20.261624     20.261624     40.523247
     -1.836837     19.981232     19.981232     39.962464
     -1.826827     19.165627     19.165627     38.331254
     -1.816817     18.108376     18.108376     36.216753
     -1.806807     17.069732     17.069732     34.139464
     -1.796797     16.184494     16.184494     32.368989
     -1.786787     15.420769     15.420769     30.841537
     -1.776777     14.617608     14.617608     29.235217
     -1.766767     13.590668     13.590668     27.181336
     -1.756757     12.255192     12.255192     24.510384
     -1.746747     10.702976     10.702976     21.405952
     -1.736737      9.194211      9.194211     18.388422
     -1.726727      8.069959      8.069959     16.139918
     -1.716717      7.627945      7.627945     15.255890
     -1.706707      8.015353      8.015353     16.030707
     -1.696697      9.178656      9.178656     18.357313
     -1.686687     10.884478     10.884478     21.768956
     -1.676677     12.798155     12.798155     25.596311
     -1.666667     14.585024     14.585024     29.170049
     -1.656657     15.991067     15.991067     31.982134
     -1.646647     16.871971     16.871971     33.743942
     -1.636637     17.170827     17.170827     34.341654
     -1.626627     16.876895     16.876895     33.753790
