# EIG2DOS: Utility for SIESTA to obtain the electronic density of states
#  E. Artacho, Apr 1999, A. Garcia, Apr 2012
#  Nick R. Papior, Feb 2017
# ------------------------------------------
# Eigenvalues calculated from a non-polarized calculation
# Eigenvalues read from siesta.EIG
# Kpoint weights read from siesta.KP
# Using smearing parameter:   0.0500
# Using 1000 points in the energy range
# Selected bands: 1 to: 2981
# Emin, Emax in file for selected band(s):    -27.1183432    218.3365460
# Nbands, Nspin, Nk   =   2981     1     1
# E_F                 =    -4.2717 eV --> (shifted to ZERO)
# Broadening          =     0.0500 eV
#
#        E            N(up)  (=)   N(down)         Ntot
     -5.000000     41.567911     41.567911     83.135822
     -4.989990     43.336762     43.336762     86.673524
     -4.979980     44.657596     44.657596     89.315192
     -4.969970     45.288751     45.288751     90.577501
     -4.959960     44.976378     44.976378     89.952756
     -4.949950     43.581838     43.581838     87.163676
     -4.939940     41.175007     41.175007     82.350014
     -4.929930     38.063777     38.063777     76.127554
     -4.919920     34.765725     34.765725     69.531449
     -4.909910     31.942945     31.942945     63.885889
     -4.899900     30.309405     30.309405     60.618809
     -4.889890     30.500649     30.500649     61.001298
     -4.879880     32.897912     32.897912     65.795824
     -4.869870     37.436721     37.436721     74.873443
     -4.859860     43.482517     43.482517     86.965033
     -4.849850     49.874560     49.874560     99.749120
     -4.839840     55.187365     55.187365    110.374729
     -4.829830     58.148480     58.148480    116.296959
     -4.819820     58.048148     58.048148    116.096296
     -4.809810     54.955440     54.955440    109.910880
     -4.799800     49.643036     49.643036     99.286072
     -4.789790     43.269315     43.269315     86.538631
     -4.779780     36.979463     36.979463     73.958926
     -4.769770     31.600184     31.600184     63.200369
     -4.759760     27.521350     27.521350     55.042700
     -4.749750     24.748713     24.748713     49.497426
     -4.739740     23.044240     23.044240     46.088480
     -4.729730     22.068321     22.068321     44.136642
     -4.719720     21.476951     21.476951     42.953901
     -4.709710     20.968994     20.968994     41.937987
     -4.699700     20.302994     20.302994     40.605987
     -4.689690     19.309017     19.309017     38.618034
     -4.679680     17.914075     17.914075     35.828150
     -4.669670     16.183543     16.183543     32.367086
     -4.659660     14.361666     14.361666     28.723332
     -4.649650     12.882018     12.882018     25.764036
     -4.639640     12.321626     12.321626     24.643252
     -4.629630     13.288797     13.288797     26.577595
     -4.619620     16.256818     16.256818     32.513635
     -4.609610     21.378551     21.378551     42.757102
     -4.599600     28.338910     28.338910     56.677820
     -4.589590     36.315415     36.315415     72.630831
     -4.579580     44.104178     44.104178     88.208356
     -4.569570     50.415752     50.415752    100.831504
     -4.559560     54.264344     54.264344    108.528689
     -4.549550     55.306825     55.306825    110.613650
     -4.539540     53.982500     53.982500    107.964999
     -4.529530     51.376575     51.376575    102.753150
     -4.519520     48.847488     48.847488     97.694976
     -4.509510     47.559796     47.559796     95.119591
     -4.499499     48.099812     48.099812     96.199625
     -4.489489     50.309254     50.309254    100.618508
     -4.479479     53.380064     53.380064    106.760128
     -4.469469     56.155583     56.155583    112.311166
     -4.459459     57.516996     57.516996    115.033992
     -4.449449     56.718510     56.718510    113.437020
     -4.439439     53.569524     53.569524    107.139048
     -4.429429     48.429994     48.429994     96.859988
     -4.419419     42.056963     42.056963     84.113926
     -4.409409     35.384110     35.384110     70.768220
     -4.399399     29.314716     29.314716     58.629432
     -4.389389     24.571503     24.571503     49.143006
     -4.379379     21.605775     21.605775     43.211551
     -4.369369     20.551896     20.551896     41.103792
     -4.359359     21.224278     21.224278     42.448557
     -4.349349     23.170185     23.170185     46.340369
     -4.339339     25.787465     25.787465     51.574930
     -4.329329     28.488330     28.488330     56.976661
     -4.319319     30.859045     30.859045     61.718089
     -4.309309     32.756927     32.756927     65.513854
     -4.299299     34.308738     34.308738     68.617476
     -4.289289     35.813707     35.813707     71.627414
     -4.279279     37.587260     37.587260     75.174520
     -4.269269     39.796208     39.796208     79.592417
     -4.259259     42.337185     42.337185     84.674370
     -4.249249     44.804722     44.804722     89.609445
     -4.239239     46.579591     46.579591     93.159183
     -4.229229     47.030520     47.030520     94.061041
     -4.219219     45.765854     45.765854     91.531708
     -4.209209     42.826046     42.826046     85.652093
     -4.199199     38.713978     38.713978     77.427955
     -4.189189     34.231909     34.231909     68.463818
     -4.179179     30.195759     30.195759     60.391519
     -4.169169     27.164442     27.164442     54.328885
     -4.159159     25.309611     25.309611     50.619222
     -4.149149     24.469730     24.469730     48.939459
     -4.139139     24.335914     24.335914     48.671828
     -4.129129     24.659987     24.659987     49.319974
     -4.119119     25.378427     25.378427     50.756855
     -4.109109     26.595686     26.595686     53.191372
     -4.099099     28.439944     28.439944     56.879887
     -4.089089     30.868432     30.868432     61.736864
     -4.079079     33.534019     33.534019     67.068038
     -4.069069     35.807505     35.807505     71.615011
     -4.059059     36.976006     36.976006     73.952013
     -4.049049     36.537383     36.537383     73.074765
     -4.039039     34.443584     34.443584     68.887169
     -4.029029     31.161792     31.161792     62.323584
     -4.019019     27.519172     27.519172     55.038345
     -4.009009     24.415012     24.415012     48.830024
     -3.998999     22.546992     22.546992     45.093983
     -3.988989     22.270059     22.270059     44.540119
     -3.978979     23.614197     23.614197     47.228395
     -3.968969     26.398449     26.398449     52.796898
     -3.958959     30.348624     30.348624     60.697249
     -3.948949     35.162242     35.162242     70.324484
     -3.938939     40.526264     40.526264     81.052527
     -3.928929     46.129041     46.129041     92.258083
     -3.918919     51.694297     51.694297    103.388594
     -3.908909     57.022073     57.022073    114.044145
     -3.898899     61.992544     61.992544    123.985089
     -3.888889     66.502510     66.502510    133.005020
     -3.878879     70.353771     70.353771    140.707543
     -3.868869     73.161055     73.161055    146.322111
     -3.858859     74.357046     74.357046    148.714093
     -3.848849     73.330776     73.330776    146.661553
     -3.838839     69.663140     69.663140    139.326279
     -3.828829     63.360533     63.360533    126.721066
     -3.818819     54.972706     54.972706    109.945412
     -3.808809     45.525927     45.525927     91.051853
     -3.798799     36.284698     36.284698     72.569396
     -3.788789     28.429866     28.429866     56.859732
     -3.778779     22.769985     22.769985     45.539971
     -3.768769     19.577790     19.577790     39.155580
     -3.758759     18.586790     18.586790     37.173579
     -3.748749     19.127282     19.127282     38.254564
     -3.738739     20.347784     20.347784     40.695569
     -3.728729     21.458939     21.458939     42.917879
     -3.718719     21.942684     21.942684     43.885368
     -3.708709     21.680939     21.680939     43.361878
     -3.698699     20.972895     20.972895     41.945790
     -3.688689     20.430698     20.430698     40.861396
     -3.678679     20.772114     20.772114     41.544228
     -3.668669     22.562541     22.562541     45.125082
     -3.658659     25.986602     25.986602     51.973205
     -3.648649     30.734627     30.734627     61.469254
     -3.638639     36.057977     36.057977     72.115955
     -3.628629     40.982600     40.982600     81.965200
     -3.618619     44.599910     44.599910     89.199820
     -3.608609     46.318428     46.318428     92.636856
     -3.598599     45.983625     45.983625     91.967249
     -3.588589     43.843543     43.843543     87.687087
     -3.578579     40.408251     40.408251     80.816503
     -3.568569     36.279412     36.279412     72.558825
     -3.558559     32.006792     32.006792     64.013583
     -3.548549     27.991912     27.991912     55.983824
     -3.538539     24.439030     24.439030     48.878061
     -3.528529     21.355515     21.355515     42.711029
     -3.518519     18.606569     18.606569     37.213138
     -3.508509     16.014711     16.014711     32.029423
     -3.498498     13.468961     13.468961     26.937922
     -3.488488     10.996583     10.996583     21.993167
     -3.478478      8.766448      8.766448     17.532896
     -3.468468      7.027620      7.027620     14.055241
     -3.458458      6.015055      6.015055     12.030109
     -3.448448      5.860452      5.860452     11.720905
     -3.438438      6.535196      6.535196     13.070392
     -3.428428      7.838924      7.838924     15.677848
     -3.418418      9.439546      9.439546     18.879092
     -3.408408     10.962580     10.962580     21.925159
     -3.398398     12.111448     12.111448     24.222896
     -3.388388     12.779460     12.779460     25.558920
     -3.378378     13.105228     13.105228     26.210456
     -3.368368     13.440439     13.440439     26.880878
     -3.358358     14.237615     14.237615     28.475231
     -3.348348     15.902010     15.902010     31.804020
     -3.338338     18.661478     18.661478     37.322955
     -3.328328     22.487489     22.487489     44.974979
     -3.318318     27.070580     27.070580     54.141160
     -3.308308     31.841421     31.841421     63.682843
     -3.298298     36.040212     36.040212     72.080423
     -3.288288     38.849368     38.849368     77.698737
     -3.278278     39.588305     39.588305     79.176610
     -3.268268     37.922693     37.922693     75.845386
     -3.258258     34.000118     34.000118     68.000236
     -3.248248     28.433699     28.433699     56.867399
     -3.238238     22.123336     22.123336     44.246672
     -3.228228     15.989091     15.989091     31.978183
     -3.218218     10.734125     10.734125     21.468251
     -3.208208      6.728658      6.728658     13.457316
     -3.198198      4.035514      4.035514      8.071028
     -3.188188      2.531318      2.531318      5.062636
     -3.178178      2.050172      2.050172      4.100344
     -3.168168      2.489630      2.489630      4.979259
     -3.158158      3.850320      3.850320      7.700639
     -3.148148      6.209599      6.209599     12.419197
     -3.138138      9.648212      9.648212     19.296424
     -3.128128     14.159131     14.159131     28.318263
     -3.118118     19.571963     19.571963     39.143926
     -3.108108     25.523203     25.523203     51.046406
     -3.098098     31.489826     31.489826     62.979653
     -3.088088     36.882808     36.882808     73.765616
     -3.078078     41.174278     41.174278     82.348557
     -3.068068     44.015333     44.015333     88.030665
     -3.058058     45.298908     45.298908     90.597816
     -3.048048     45.139482     45.139482     90.278965
     -3.038038     43.777536     43.777536     87.555073
     -3.028028     41.457429     41.457429     82.914859
     -3.018018     38.347129     38.347129     76.694258
     -3.008008     34.547196     34.547196     69.094391
     -2.997998     30.181460     30.181460     60.362919
     -2.987988     25.508148     25.508148     51.016296
     -2.977978     20.976047     20.976047     41.952094
     -2.967968     17.184331     17.184331     34.368662
     -2.957958     14.759304     14.759304     29.518607
     -2.947948     14.198094     14.198094     28.396188
     -2.937938     15.731750     15.731750     31.463499
     -2.927928     19.241518     19.241518     38.483037
     -2.917918     24.245154     24.245154     48.490308
     -2.907908     29.962727     29.962727     59.925453
     -2.897898     35.462892     35.462892     70.925785
     -2.887888     39.868424     39.868424     79.736849
     -2.877878     42.568027     42.568027     85.136054
     -2.867868     43.361003     43.361003     86.722007
     -2.857858     42.473575     42.473575     84.947150
     -2.847848     40.433438     40.433438     80.866877
     -2.837838     37.851549     37.851549     75.703098
     -2.827828     35.203963     35.203963     70.407926
     -2.817818     32.706370     32.706370     65.412739
     -2.807808     30.327570     30.327570     60.655140
     -2.797798     27.918696     27.918696     55.837393
     -2.787788     25.378864     25.378864     50.757728
     -2.777778     22.764971     22.764971     45.529943
     -2.767768     20.290270     20.290270     40.580540
     -2.757758     18.222369     18.222369     36.444739
     -2.747748     16.749228     16.749228     33.498455
     -2.737738     15.897941     15.897941     31.795881
     -2.727728     15.555761     15.555761     31.111521
     -2.717718     15.576387     15.576387     31.152775
     -2.707708     15.898099     15.898099     31.796198
     -2.697698     16.590669     16.590669     33.181339
     -2.687688     17.793918     17.793918     35.587836
     -2.677678     19.584447     19.584447     39.168894
     -2.667668     21.860207     21.860207     43.720413
     -2.657658     24.327184     24.327184     48.654369
     -2.647648     26.608586     26.608586     53.217173
     -2.637638     28.415198     28.415198     56.830396
     -2.627628     29.672370     29.672370     59.344741
     -2.617618     30.526221     30.526221     61.052442
     -2.607608     31.231160     31.231160     62.462321
     -2.597598     31.995588     31.995588     63.991177
     -2.587588     32.878908     32.878908     65.757817
     -2.577578     33.783667     33.783667     67.567334
     -2.567568     34.516152     34.516152     69.032304
     -2.557558     34.854994     34.854994     69.709988
     -2.547548     34.591160     34.591160     69.182320
     -2.537538     33.552364     33.552364     67.104728
     -2.527528     31.648111     31.648111     63.296221
     -2.517518     28.945440     28.945440     57.890880
     -2.507508     25.736346     25.736346     51.472692
     -2.497497     22.534463     22.534463     45.068926
     -2.487487     19.966706     19.966706     39.933412
     -2.477477     18.586947     18.586947     37.173895
     -2.467467     18.690266     18.690266     37.380533
     -2.457457     20.214501     20.214501     40.429002
     -2.447447     22.777595     22.777595     45.555189
     -2.437437     25.836570     25.836570     51.673140
     -2.427427     28.897645     28.897645     57.795289
     -2.417417     31.682319     31.682319     63.364639
     -2.407407     34.173125     34.173125     68.346249
     -2.397397     36.518559     36.518559     73.037119
     -2.387387     38.845294     38.845294     77.690587
     -2.377377     41.074403     41.074403     82.148805
     -2.367367     42.842107     42.842107     85.684214
     -2.357357     43.579362     43.579362     87.158724
     -2.347347     42.727913     42.727913     85.455827
     -2.337337     39.999522     39.999522     79.999045
     -2.327327     35.557595     35.557595     71.115190
     -2.317317     30.034206     30.034206     60.068412
     -2.307307     24.373994     24.373994     48.747987
     -2.297297     19.575393     19.575393     39.150785
     -2.287287     16.435699     16.435699     32.871397
     -2.277277     15.386218     15.386218     30.772436
     -2.267267     16.449992     16.449992     32.899985
     -2.257257     19.303626     19.303626     38.607251
     -2.247247     23.398866     23.398866     46.797733
     -2.237237     28.097828     28.097828     56.195656
     -2.227227     32.785881     32.785881     65.571762
     -2.217217     36.940570     36.940570     73.881141
     -2.207207     40.153219     40.153219     80.306439
     -2.197197     42.120912     42.120912     84.241825
     -2.187187     42.640910     42.640910     85.281820
     -2.177177     41.633986     41.633986     83.267971
     -2.167167     39.194458     39.194458     78.388915
     -2.157157     35.629041     35.629041     71.258082
     -2.147147     31.432871     31.432871     62.865742
     -2.137137     27.177964     27.177964     54.355929
     -2.127127     23.345565     23.345565     46.691130
     -2.117117     20.180452     20.180452     40.360904
     -2.107107     17.644746     17.644746     35.289493
     -2.097097     15.496067     15.496067     30.992134
     -2.087087     13.444447     13.444447     26.888895
     -2.077077     11.301878     11.301878     22.603756
     -2.067067      9.052491      9.052491     18.104983
     -2.057057      6.825319      6.825319     13.650637
     -2.047047      4.805885      4.805885      9.611770
     -2.037037      3.144969      3.144969      6.289937
     -2.027027      1.907574      1.907574      3.815148
     -2.017017      1.071917      1.071917      2.143835
     -2.007007      0.561507      0.561507      1.123013
     -1.996997      0.285505      0.285505      0.571011
     -1.986987      0.170251      0.170251      0.340503
     -1.976977      0.177180      0.177180      0.354360
     -1.966967      0.310435      0.310435      0.620870
     -1.956957      0.618323      0.618323      1.236647
     -1.946947      1.188728      1.188728      2.377457
     -1.936937      2.134266      2.134266      4.268532
     -1.926927      3.562654      3.562654      7.125307
     -1.916917      5.533664      5.533664     11.067328
     -1.906907      8.014081      8.014081     16.028163
     -1.896897     10.849923     10.849923     21.699846
     -1.886887     13.773830     13.773830     27.547661
     -1.876877     16.453015     16.453015     32.906030
     -1.866867     18.565826     18.565826     37.131652
     -1.856857     19.882939     19.882939     39.765879
     -1.846847     20.327985     20.327985     40.655970
     -1.836837     19.999302     19.999302     39.998604
     -1.826827     19.143996     19.143996     38.287992
     -1.816817     18.086644     18.086644     36.173289
     -1.806807     17.130719     17.130719     34.261438
     -1.796797     16.467927     16.467927     32.935855
     -1.786787     16.135846     16.135846     32.271691
     -1.776777     16.044660     16.044660     32.089320
     -1.766767     16.054684     16.054684     32.109367
     -1.756757     16.053897     16.053897     32.107794
     -1.746747     15.986817     15.986817     31.973634
     -1.736737     15.825188     15.825188     31.650377
     -1.726727     15.518114     15.518114     31.036227
     -1.716717     14.975986     14.975986     29.951972
     -1.706707     14.114495     14.114495     28.228990
     -1.696697     12.934215     12.934215     25.868430
     -1.686687     11.577845     11.577845     23.155690
     -1.676677     10.315859     10.315859     20.631717
     -1.666667      9.454220      9.454220     18.908441
     -1.656657      9.204638      9.204638     18.409277
     -1.646647      9.580431      9.580431     19.160862
     -1.636637     10.370354     10.370354     20.740708
     -1.626627     11.207655     11.207655     22.415310
