# EIG2DOS: Utility for SIESTA to obtain the electronic density of states
#  E. Artacho, Apr 1999, A. Garcia, Apr 2012
#  Nick R. Papior, Feb 2017
# ------------------------------------------
# Eigenvalues calculated from a non-polarized calculation
# Eigenvalues read from siesta.EIG
# Kpoint weights read from siesta.KP
# Using smearing parameter:   0.0500
# Using 1000 points in the energy range
# Selected bands: 1 to: 2981
# Emin, Emax in file for selected band(s):    -27.0526015    218.3277140
# Nbands, Nspin, Nk   =   2981     1     1
# E_F                 =    -4.2779 eV --> (shifted to ZERO)
# Broadening          =     0.0500 eV
#
#        E            N(up)  (=)   N(down)         Ntot
     -5.000000     41.219004     41.219004     82.438008
     -4.989990     42.794377     42.794377     85.588753
     -4.979980     43.888080     43.888080     87.776161
     -4.969970     44.233688     44.233688     88.467377
     -4.959960     43.618959     43.618959     87.237918
     -4.949950     41.986105     41.986105     83.972210
     -4.939940     39.482272     39.482272     78.964545
     -4.929930     36.458257     36.458257     72.916514
     -4.919920     33.433663     33.433663     66.867327
     -4.909910     31.042543     31.042543     62.085087
     -4.899900     29.952890     29.952890     59.905779
     -4.889890     30.738857     30.738857     61.477714
     -4.879880     33.699952     33.699952     67.399903
     -4.869870     38.670070     38.670070     77.340140
     -4.859860     44.911370     44.911370     89.822739
     -4.849850     51.194304     51.194304    102.388607
     -4.839840     56.096706     56.096706    112.193412
     -4.829830     58.436654     58.436654    116.873307
     -4.819820     57.659417     57.659417    115.318835
     -4.809810     53.999539     53.999539    107.999078
     -4.799800     48.346334     48.346334     96.692668
     -4.789790     41.890938     41.890938     83.781877
     -4.779780     35.730738     35.730738     71.461476
     -4.769770     30.597649     30.597649     61.195298
     -4.759760     26.781928     26.781928     53.563856
     -4.749750     24.216161     24.216161     48.432322
     -4.739740     22.628440     22.628440     45.256881
     -4.729730     21.682231     21.682231     43.364461
     -4.719720     21.062756     21.062756     42.125512
     -4.709710     20.510097     20.510097     41.020194
     -4.699700     19.821771     19.821771     39.643542
     -4.689690     18.853805     18.853805     37.707609
     -4.679680     17.542399     17.542399     35.084798
     -4.669670     15.949769     15.949769     31.899539
     -4.659660     14.313987     14.313987     28.627975
     -4.649650     13.067079     13.067079     26.134158
     -4.639640     12.788761     12.788761     25.577521
     -4.629630     14.083883     14.083883     28.167765
     -4.619620     17.400353     17.400353     34.800706
     -4.609610     22.832784     22.832784     45.665568
     -4.599600     29.979833     29.979833     59.959665
     -4.589590     37.930061     37.930061     75.860123
     -4.579580     45.425858     45.425858     90.851717
     -4.569570     51.190455     51.190455    102.380911
     -4.559560     54.320306     54.320306    108.640611
     -4.549550     54.590847     54.590847    109.181695
     -4.539540     52.540246     52.540246    105.080492
     -4.529530     49.285403     49.285403     98.570807
     -4.519520     46.142203     46.142203     92.284406
     -4.509510     44.203627     44.203627     88.407254
     -4.499499     44.034096     44.034096     88.068192
     -4.489489     45.571417     45.571417     91.142835
     -4.479479     48.231771     48.231771     96.463542
     -4.469469     51.139355     51.139355    102.278710
     -4.459459     53.380673     53.380673    106.761347
     -4.449449     54.210400     54.210400    108.420800
     -4.439439     53.182154     53.182154    106.364307
     -4.429429     50.211268     50.211268    100.422536
     -4.419419     45.583111     45.583111     91.166223
     -4.409409     39.908572     39.908572     79.817145
     -4.399399     34.018925     34.018925     68.037850
     -4.389389     28.801058     28.801058     57.602116
     -4.379379     24.999968     24.999968     49.999935
     -4.369369     23.042378     23.042378     46.084755
     -4.359359     22.943306     22.943306     45.886613
     -4.349349     24.335551     24.335551     48.671101
     -4.339339     26.616389     26.616389     53.232779
     -4.329329     29.157459     29.157459     58.314918
     -4.319319     31.497853     31.497853     62.995707
     -4.309309     33.451316     33.451316     66.902631
     -4.299299     35.099099     35.099099     70.198197
     -4.289289     36.686811     36.686811     73.373621
     -4.279279     38.472365     38.472365     76.944730
     -4.269269     40.576598     40.576598     81.153196
     -4.259259     42.879971     42.879971     85.759941
     -4.249249     45.000866     45.000866     90.001733
     -4.239239     46.379788     46.379788     92.759576
     -4.229229     46.463943     46.463943     92.927886
     -4.219219     44.935794     44.935794     89.871587
     -4.209209     41.884724     41.884724     83.769449
     -4.199199     37.824966     37.824966     75.649932
     -4.189189     33.531397     33.531397     67.062794
     -4.179179     29.763475     29.763475     59.526950
     -4.169169     27.011787     27.011787     54.023574
     -4.159159     25.387516     25.387516     50.775032
     -4.149149     24.693278     24.693278     49.386556
     -4.139139     24.618069     24.618069     49.236137
     -4.129129     24.943359     24.943359     49.886719
     -4.119119     25.652777     25.652777     51.305554
     -4.109109     26.891848     26.891848     53.783695
     -4.099099     28.799946     28.799946     57.599893
     -4.089089     31.304732     31.304732     62.609464
     -4.079079     34.000605     34.000605     68.001211
     -4.069069     36.203365     36.203365     72.406731
     -4.059059     37.184647     37.184647     74.369295
     -4.049049     36.483480     36.483480     72.966960
     -4.039039     34.134696     34.134696     68.269393
     -4.029029     30.690085     30.690085     61.380171
     -4.019019     27.021803     27.021803     54.043606
     -4.009009     24.016386     24.016386     48.032773
     -3.998999     22.315068     22.315068     44.630135
     -3.988989     22.207099     22.207099     44.414198
     -3.978979     23.679665     23.679665     47.359330
     -3.968969     26.544123     26.544123     53.088247
     -3.958959     30.544034     30.544034     61.088068
     -3.948949     35.400430     35.400430     70.800859
     -3.938939     40.814683     40.814683     81.629367
     -3.928929     46.477308     46.477308     92.954616
     -3.918919     52.106863     52.106863    104.213726
     -3.908909     57.495565     57.495565    114.991129
     -3.898899     62.512610     62.512610    125.025219
     -3.888889     67.037106     67.037106    134.074211
     -3.878879     70.845944     70.845944    141.691889
     -3.868869     73.528577     73.528577    147.057155
     -3.858859     74.505022     74.505022    149.010044
     -3.848849     73.177098     73.177098    146.354196
     -3.838839     69.169048     69.169048    138.338096
     -3.828829     62.553876     62.553876    125.107753
     -3.818819     53.952517     53.952517    107.905035
     -3.808809     44.443628     44.443628     88.887256
     -3.798799     35.306668     35.306668     70.613336
     -3.788789     27.693770     27.693770     55.387540
     -3.778779     22.349614     22.349614     44.699228
     -3.768769     19.467539     19.467539     38.935079
     -3.758759     18.709652     18.709652     37.419304
     -3.748749     19.362645     19.362645     38.725289
     -3.738739     20.569960     20.569960     41.139921
     -3.728729     21.575095     21.575095     43.150191
     -3.718719     21.919576     21.919576     43.839151
     -3.708709     21.552985     21.552985     43.105969
     -3.698699     20.828950     20.828950     41.657900
     -3.688689     20.382691     20.382691     40.765381
     -3.678679     20.914530     20.914530     41.829059
     -3.668669     22.935985     22.935985     45.871969
     -3.658659     26.559059     26.559059     53.118118
     -3.648649     31.408700     31.408700     62.817400
     -3.638639     36.702012     36.702012     73.404025
     -3.628629     41.472725     41.472725     82.945450
     -3.618619     44.855025     44.855025     89.710050
     -3.608609     46.314866     46.314866     92.629732
     -3.598599     45.747863     45.747863     91.495727
     -3.588589     43.432212     43.432212     86.864423
     -3.578579     39.887713     39.887713     79.775426
     -3.568569     35.712015     35.712015     71.424030
     -3.558559     31.443365     31.443365     62.886729
     -3.548549     27.466899     27.466899     54.933798
     -3.538539     23.967075     23.967075     47.934150
     -3.528529     20.932128     20.932128     41.864256
     -3.518519     18.215687     18.215687     36.431375
     -3.508509     15.641834     15.641834     31.283669
     -3.498498     13.114017     13.114017     26.228035
     -3.488488     10.679907     10.679907     21.359814
     -3.478478      8.524850      8.524850     17.049701
     -3.468468      6.902413      6.902413     13.804826
     -3.458458      6.036696      6.036696     12.073393
     -3.448448      6.034632      6.034632     12.069265
     -3.438438      6.834313      6.834313     13.668627
     -3.428428      8.202412      8.202412     16.404824
     -3.418418      9.785509      9.785509     19.571018
     -3.408408     11.210074     11.210074     22.420148
     -3.398398     12.207634     12.207634     24.415269
     -3.388388     12.721825     12.721825     25.443651
     -3.378378     12.949616     12.949616     25.899233
     -3.368368     13.291157     13.291157     26.582314
     -3.358358     14.222818     14.222818     28.445636
     -3.348348     16.141338     16.141338     32.282676
     -3.338338     19.232478     19.232478     38.464955
     -3.328328     23.395869     23.395869     46.791738
     -3.318318     28.230725     28.230725     56.461451
     -3.308308     33.076989     33.076989     66.153978
     -3.298298     37.114240     37.114240     74.228480
     -3.288288     39.523795     39.523795     79.047589
     -3.278278     39.696264     39.696264     79.392529
     -3.268268     37.424331     37.424331     74.848663
     -3.258258     32.995283     32.995283     65.990567
     -3.248248     27.124292     27.124292     54.248584
     -3.238238     20.742806     20.742806     41.485612
     -3.228228     14.730475     14.730475     29.460950
     -3.218218      9.702948      9.702948     19.405897
     -3.208208      5.928456      5.928456     11.856912
     -3.198198      3.375154      3.375154      6.750307
     -3.188188      1.836129      1.836129      3.672258
     -3.178178      1.065691      1.065691      2.131382
     -3.168168      0.881999      0.881999      1.763998
     -3.158158      1.221778      1.221778      2.443556
     -3.148148      2.151906      2.151906      4.303812
     -3.138138      3.845306      3.845306      7.690612
     -3.128128      6.523703      6.523703     13.047406
     -3.118118     10.369517     10.369517     20.739033
     -3.108108     15.419782     15.419782     30.839564
     -3.098098     21.472303     21.472303     42.944606
     -3.088088     28.045747     28.045747     56.091494
     -3.078078     34.427785     34.427785     68.855570
     -3.068068     39.814899     39.814899     79.629797
     -3.058058     43.505819     43.505819     87.011638
     -3.048048     45.080525     45.080525     90.161049
     -3.038038     44.498323     44.498323     88.996646
     -3.028028     42.083824     42.083824     84.167648
     -3.018018     38.418718     38.418718     76.837435
     -3.008008     34.191423     34.191423     68.382846
     -2.997998     30.059108     30.059108     60.118217
     -2.987988     26.554073     26.554073     53.108146
     -2.977978     24.040645     24.040645     48.081290
     -2.967968     22.714885     22.714885     45.429770
     -2.957958     22.635041     22.635041     45.270082
     -2.947948     23.764838     23.764838     47.529677
     -2.937938     26.003417     26.003417     52.006834
     -2.927928     29.178510     29.178510     58.357020
     -2.917918     33.004462     33.004462     66.008923
     -2.907908     37.042925     37.042925     74.085849
     -2.897898     40.721596     40.721596     81.443193
     -2.887888     43.442132     43.442132     86.884264
     -2.877878     44.751145     44.751145     89.502291
     -2.867868     44.496142     44.496142     88.992284
     -2.857858     42.880415     42.880415     85.760830
     -2.847848     40.377306     40.377306     80.754612
     -2.837838     37.538206     37.538206     75.076412
     -2.827828     34.785876     34.785876     69.571753
     -2.817818     32.291643     32.291643     64.583286
     -2.807808     29.988580     29.988580     59.977159
     -2.797798     27.699860     27.699860     55.399720
     -2.787788     25.302667     25.302667     50.605333
     -2.777778     22.835041     22.835041     45.670081
     -2.767768     20.491652     20.491652     40.983304
     -2.757758     18.521761     18.521761     37.043521
     -2.747748     17.099619     17.099619     34.199237
     -2.737738     16.250678     16.250678     32.501357
     -2.727728     15.878089     15.878089     31.756178
     -2.717718     15.866625     15.866625     31.733249
     -2.707708     16.188263     16.188263     32.376526
     -2.697698     16.930880     16.930880     33.861761
     -2.687688     18.223242     18.223242     36.446484
     -2.677678     20.103014     20.103014     40.206028
     -2.667668     22.419916     22.419916     44.839832
     -2.657658     24.849504     24.849504     49.699008
     -2.647648     27.021954     27.021954     54.043907
     -2.637638     28.691372     28.691372     57.382744
     -2.627628     29.840326     29.840326     59.680652
     -2.617618     30.655361     30.655361     61.310723
     -2.607608     31.394297     31.394297     62.788594
     -2.597598     32.233338     32.233338     64.466675
     -2.587588     33.183499     33.183499     66.366998
     -2.577578     34.105563     34.105563     68.211126
     -2.567568     34.783488     34.783488     69.566976
     -2.557558     34.993239     34.993239     69.986478
     -2.547548     34.538049     34.538049     69.076097
     -2.537538     33.271397     33.271397     66.542793
     -2.527528     31.144091     31.144091     62.288181
     -2.517518     28.277876     28.277876     56.555753
     -2.507508     25.019693     25.019693     50.039386
     -2.497497     21.916270     21.916270     43.832540
     -2.487487     19.585926     19.585926     39.171852
     -2.477477     18.527264     18.527264     37.054529
     -2.467467     18.948587     18.948587     37.897175
     -2.457457     20.699275     20.699275     41.398549
     -2.447447     23.338539     23.338539     46.677078
     -2.437437     26.313663     26.313663     52.627326
     -2.427427     29.169570     29.169570     58.339139
     -2.417417     31.696360     31.696360     63.392720
     -2.407407     33.948190     33.948190     67.896380
     -2.397397     36.124858     36.124858     72.249717
     -2.387387     38.372030     38.372030     76.744060
     -2.377377     40.598187     40.598187     81.196373
     -2.367367     42.405534     42.405534     84.811068
     -2.357357     43.184728     43.184728     86.369456
     -2.347347     42.346588     42.346588     84.693176
     -2.337337     39.592624     39.592624     79.185249
     -2.327327     35.099013     35.099013     70.198025
     -2.317317     29.525611     29.525611     59.051221
     -2.307307     23.845632     23.845632     47.691264
     -2.297297     19.074331     19.074331     38.148663
     -2.287287     16.009552     16.009552     32.019104
     -2.277277     15.071028     15.071028     30.142056
     -2.267267     16.266209     16.266209     32.532418
     -2.257257     19.258357     19.258357     38.516713
     -2.247247     23.489758     23.489758     46.979517
     -2.237237     28.314891     28.314891     56.629783
     -2.227227     33.110349     33.110349     66.220697
     -2.217217     37.342224     37.342224     74.684449
     -2.207207     40.588785     40.588785     81.177570
     -2.197197     42.536341     42.536341     85.072682
     -2.187187     42.979499     42.979499     85.958997
     -2.177177     41.849752     41.849752     83.699505
     -2.167167     39.266325     39.266325     78.532651
     -2.157157     35.568617     35.568617     71.137234
     -2.147147     31.279918     31.279918     62.559835
     -2.137137     26.983724     26.983724     53.967448
     -2.127127     23.151514     23.151514     46.303029
     -2.117117     20.003522     20.003522     40.007044
     -2.107107     17.476512     17.476512     34.953024
     -2.097097     15.315077     15.315077     30.630153
     -2.087087     13.233358     13.233358     26.466716
     -2.077077     11.059385     11.059385     22.118771
     -2.067067      8.794565      8.794565     17.589130
     -2.057057      6.577242      6.577242     13.154484
     -2.047047      4.591223      4.591223      9.182446
     -2.037037      2.977632      2.977632      5.955263
     -2.027027      1.789796      1.789796      3.579592
     -2.017017      0.997227      0.997227      1.994455
     -2.007007      0.519888      0.519888      1.039776
     -1.996997      0.268269      0.268269      0.536538
     -1.986987      0.173560      0.173560      0.347120
     -1.976977      0.204329      0.204329      0.408659
     -1.966967      0.373175      0.373175      0.746351
     -1.956957      0.736771      0.736771      1.473541
     -1.946947      1.388494      1.388494      2.776989
     -1.936937      2.439312      2.439312      4.878624
     -1.926927      3.983923      3.983923      7.967846
     -1.916917      6.056640      6.056640     12.113281
     -1.906907      8.591425      8.591425     17.182850
     -1.896897     11.405679     11.405679     22.811358
     -1.886887     14.221637     14.221637     28.443273
     -1.876877     16.723556     16.723556     33.447111
     -1.866867     18.632576     18.632576     37.265153
     -1.856857     19.774331     19.774331     39.548663
     -1.846847     20.119283     20.119283     40.238566
     -1.836837     19.785497     19.785497     39.570994
     -1.826827     19.001288     19.001288     38.002576
     -1.816817     18.032399     18.032399     36.064799
     -1.806807     17.091155     17.091155     34.182311
     -1.796797     16.261296     16.261296     32.522592
     -1.786787     15.477649     15.477649     30.955298
     -1.776777     14.580484     14.580484     29.160967
     -1.766767     13.424838     13.424838     26.849675
     -1.756757     11.990240     11.990240     23.980480
     -1.746747     10.431909     10.431909     20.863818
     -1.736737      9.045258      9.045258     18.090516
     -1.726727      8.160833      8.160833     16.321667
     -1.716717      8.019145      8.019145     16.038291
     -1.706707      8.679670      8.679670     17.359339
     -1.696697      9.999425      9.999425     19.998849
     -1.686687     11.686053     11.686053     23.372106
     -1.676677     13.399700     13.399700     26.799401
     -1.666667     14.857220     14.857220     29.714441
     -1.656657     15.891877     15.891877     31.783753
     -1.646647     16.446894     16.446894     32.893789
     -1.636637     16.521508     16.521508     33.043015
     -1.626627     16.117968     16.117968     32.235936
