# EIG2DOS: Utility for SIESTA to obtain the electronic density of states
#  E. Artacho, Apr 1999, A. Garcia, Apr 2012
#  Nick R. Papior, Feb 2017
# ------------------------------------------
# Eigenvalues calculated from a non-polarized calculation
# Eigenvalues read from siesta.EIG
# Kpoint weights read from siesta.KP
# Using smearing parameter:   0.0500
# Using 1000 points in the energy range
# Selected bands: 1 to: 2981
# Emin, Emax in file for selected band(s):    -27.0371461    218.3029220
# Nbands, Nspin, Nk   =   2981     1     1
# E_F                 =    -4.3069 eV --> (shifted to ZERO)
# Broadening          =     0.0500 eV
#
#        E            N(up)  (=)   N(down)         Ntot
     -5.000000     42.244308     42.244308     84.488615
     -4.989990     47.096952     47.096952     94.193903
     -4.979980     50.804802     50.804802    101.609604
     -4.969970     52.833719     52.833719    105.667438
     -4.959960     52.881789     52.881789    105.763578
     -4.949950     50.977706     50.977706    101.955412
     -4.939940     47.491291     47.491291     94.982583
     -4.929930     43.061858     43.061858     86.123716
     -4.919920     38.484825     38.484825     76.969649
     -4.909910     34.599714     34.599714     69.199427
     -4.899900     32.193029     32.193029     64.386057
     -4.889890     31.893352     31.893352     63.786705
     -4.879880     34.029994     34.029994     68.059989
     -4.869870     38.467946     38.467946     76.935893
     -4.859860     44.496360     44.496360     88.992720
     -4.849850     50.878566     50.878566    101.757132
     -4.839840     56.122975     56.122975    112.245949
     -4.829830     58.916535     58.916535    117.833070
     -4.819820     58.548328     58.548328    117.096657
     -4.809810     55.126148     55.126148    110.252296
     -4.799800     49.484057     49.484057     98.968113
     -4.789790     42.838033     42.838033     85.676067
     -4.779780     36.366495     36.366495     72.732990
     -4.769770     30.900365     30.900365     61.800730
     -4.759760     26.814358     26.814358     53.628715
     -4.749750     24.093517     24.093517     48.187034
     -4.739740     22.482088     22.482088     44.964176
     -4.729730     21.626574     21.626574     43.253148
     -4.719720     21.170068     21.170068     42.340136
     -4.709710     20.797897     20.797897     41.595795
     -4.699700     20.255536     20.255536     40.511073
     -4.689690     19.362257     19.362257     38.724514
     -4.679680     18.036629     18.036629     36.073258
     -4.669670     16.336158     16.336158     32.672316
     -4.659660     14.496286     14.496286     28.992573
     -4.649650     12.942073     12.942073     25.884146
     -4.639640     12.247106     12.247106     24.494212
     -4.629630     13.028331     13.028331     26.056662
     -4.619620     15.785706     15.785706     31.571412
     -4.609610     20.717344     20.717344     41.434688
     -4.599600     27.563065     27.563065     55.126129
     -4.589590     35.545760     35.545760     71.091520
     -4.579580     43.472902     43.472902     86.945804
     -4.569570     50.013172     50.013172    100.026345
     -4.559560     54.082686     54.082686    108.165372
     -4.549550     55.201740     55.201740    110.403480
     -4.539540     53.667488     53.667488    107.334976
     -4.529530     50.453573     50.453573    100.907146
     -4.519520     46.866691     46.866691     93.733383
     -4.509510     44.098656     44.098656     88.197312
     -4.499499     42.852736     42.852736     85.705473
     -4.489489     43.178247     43.178247     86.356495
     -4.479479     44.548284     44.548284     89.096567
     -4.469469     46.116427     46.116427     92.232853
     -4.459459     47.033859     47.033859     94.067718
     -4.449449     46.712434     46.712434     93.424869
     -4.439439     44.965056     44.965056     89.930112
     -4.429429     42.011328     42.011328     84.022656
     -4.419419     38.378067     38.378067     76.756135
     -4.409409     34.741161     34.741161     69.482322
     -4.399399     31.753004     31.753004     63.506008
     -4.389389     29.890683     29.890683     59.781366
     -4.379379     29.352925     29.352925     58.705850
     -4.369369     30.028053     30.028053     60.056106
     -4.359359     31.543706     31.543706     63.087413
     -4.349349     33.387839     33.387839     66.775677
     -4.339339     35.065488     35.065488     70.130975
     -4.329329     36.240595     36.240595     72.481190
     -4.319319     36.817407     36.817407     73.634814
     -4.309309     36.940624     36.940624     73.881248
     -4.299299     36.924308     36.924308     73.848617
     -4.289289     37.140229     37.140229     74.280459
     -4.279279     37.898465     37.898465     75.796930
     -4.269269     39.342783     39.342783     78.685566
     -4.259259     41.375883     41.375883     82.751767
     -4.249249     43.634616     43.634616     87.269233
     -4.239239     45.543524     45.543524     91.087047
     -4.229229     46.463551     46.463551     92.927101
     -4.219219     45.909004     45.909004     91.818007
     -4.209209     43.750142     43.750142     87.500285
     -4.199199     40.296910     40.296910     80.593820
     -4.189189     36.203769     36.203769     72.407539
     -4.179179     32.229702     32.229702     64.459404
     -4.169169     28.970408     28.970408     57.940817
     -4.159159     26.693774     26.693774     53.387548
     -4.149149     25.346497     25.346497     50.692995
     -4.139139     24.704109     24.704109     49.408217
     -4.129129     24.567179     24.567179     49.134358
     -4.119119     24.894798     24.894798     49.789597
     -4.109109     25.806851     25.806851     51.613701
     -4.099099     27.454540     27.454540     54.909081
     -4.089089     29.827181     29.827181     59.654362
     -4.079079     32.605859     32.605859     65.211718
     -4.069069     35.165793     35.165793     70.331587
     -4.059059     36.759919     36.759919     73.519839
     -4.049049     36.813607     36.813607     73.627214
     -4.039039     35.184762     35.184762     70.369524
     -4.029029     32.250125     32.250125     64.500249
     -4.019019     28.771851     28.771851     57.543701
     -4.009009     25.620678     25.620678     51.241356
     -3.998999     23.502777     23.502777     47.005553
     -3.988989     22.813552     22.813552     45.627104
     -3.978979     23.648032     23.648032     47.296064
     -3.968969     25.904561     25.904561     51.809122
     -3.958959     29.387422     29.387422     58.774843
     -3.948949     33.853527     33.853527     67.707053
     -3.938939     39.014987     39.014987     78.029975
     -3.928929     44.546717     44.546717     89.093435
     -3.918919     50.131208     50.131208    100.262416
     -3.908909     55.522925     55.522925    111.045849
     -3.898899     60.578681     60.578681    121.157361
     -3.888889     65.210312     65.210312    130.420625
     -3.878879     69.267701     69.267701    138.535402
     -3.868869     72.418340     72.418340    144.836680
     -3.858859     74.113342     74.113342    148.226684
     -3.848849     73.697961     73.697961    147.395922
     -3.838839     70.649123     70.649123    141.298246
     -3.828829     64.843492     64.843492    129.686984
     -3.818819     56.725219     56.725219    113.450439
     -3.808809     47.278414     47.278414     94.556827
     -3.798799     37.799048     37.799048     75.598096
     -3.788789     29.553548     29.553548     59.107096
     -3.778779     23.455475     23.455475     46.910950
     -3.768769     19.870056     19.870056     39.740111
     -3.758759     18.592128     18.592128     37.184255
     -3.748749     18.977300     18.977300     37.954601
     -3.738739     20.167156     20.167156     40.334312
     -3.728729     21.340523     21.340523     42.681045
     -3.718719     21.931504     21.931504     43.863007
     -3.708709     21.768487     21.768487     43.536973
     -3.698699     21.103164     21.103164     42.206328
     -3.688689     20.517867     20.517867     41.035735
     -3.678679     20.726906     20.726906     41.453812
     -3.668669     22.321037     22.321037     44.642074
     -3.658659     25.533223     25.533223     51.066447
     -3.648649     30.111562     30.111562     60.223124
     -3.638639     35.357213     35.357213     70.714426
     -3.628629     40.322916     40.322916     80.645832
     -3.618619     44.096918     44.096918     88.193836
     -3.608609     46.057880     46.057880     92.115760
     -3.598599     46.005564     46.005564     92.011128
     -3.588589     44.139474     44.139474     88.278949
     -3.578579     40.928834     40.928834     81.857667
     -3.568569     36.948532     36.948532     73.897064
     -3.558559     32.738452     32.738452     65.476904
     -3.548549     28.707050     28.707050     57.414100
     -3.538539     25.079093     25.079093     50.158186
     -3.528529     21.889468     21.889468     43.778936
     -3.518519     19.029561     19.029561     38.059121
     -3.508509     16.339768     16.339768     32.679536
     -3.498498     13.715956     13.715956     27.431912
     -3.488488     11.183257     11.183257     22.366515
     -3.478478      8.904270      8.904270     17.808539
     -3.468468      7.122335      7.122335     14.244670
     -3.458458      6.069781      6.069781     12.139562
     -3.448448      5.878909      5.878909     11.757818
     -3.438438      6.523500      6.523500     13.047001
     -3.428428      7.805411      7.805411     15.610821
     -3.418418      9.392704      9.392704     18.785408
     -3.408408     10.907721     10.907721     21.815442
     -3.398398     12.047261     12.047261     24.094522
     -3.388388     12.696051     12.696051     25.392103
     -3.378378     12.985001     12.985001     25.970003
     -3.368368     13.261997     13.261997     26.523994
     -3.358358     13.981387     13.981387     27.962773
     -3.348348     15.555622     15.555622     31.111244
     -3.338338     18.223774     18.223774     36.447549
     -3.328328     21.971789     21.971789     43.943578
     -3.318318     26.508364     26.508364     53.016727
     -3.308308     31.285694     31.285694     62.571388
     -3.298298     35.564468     35.564468     71.128937
     -3.288288     38.536982     38.536982     77.073964
     -3.278278     39.511166     39.511166     79.022333
     -3.268268     38.115712     38.115712     76.231424
     -3.258258     34.443903     34.443903     68.887805
     -3.248248     29.055792     29.055792     58.111585
     -3.238238     22.818736     22.818736     45.637472
     -3.228228     16.649617     16.649617     33.299233
     -3.218218     11.270925     11.270925     22.541849
     -3.208208      7.075570      7.075570     14.151140
     -3.198198      4.129777      4.129777      8.259555
     -3.188188      2.277080      2.277080      4.554161
     -3.178178      1.276722      1.276722      2.553443
     -3.168168      0.920832      0.920832      1.841664
     -3.158158      1.104935      1.104935      2.209870
     -3.148148      1.850885      1.850885      3.701771
     -3.138138      3.289931      3.289931      6.579862
     -3.128128      5.611472      5.611472     11.222944
     -3.118118      8.982373      8.982373     17.964745
     -3.108108     13.450163     13.450163     26.900325
     -3.098098     18.858616     18.858616     37.717231
     -3.088088     24.813725     24.813725     49.627451
     -3.078078     30.728647     30.728647     61.457293
     -3.068068     35.944589     35.944589     71.889177
     -3.058058     39.885322     39.885322     79.770644
     -3.048048     42.181619     42.181619     84.363237
     -3.038038     42.717420     42.717420     85.434840
     -3.028028     41.595750     41.595750     83.191500
     -3.018018     39.068303     39.068303     78.136605
     -3.008008     35.484362     35.484362     70.968724
     -2.997998     31.283832     31.283832     62.567664
     -2.987988     27.011181     27.011181     54.022362
     -2.977978     23.300746     23.300746     46.601492
     -2.967968     20.799075     20.799075     41.598150
     -2.957958     20.033134     20.033134     40.066267
     -2.947948     21.271497     21.271497     42.542995
     -2.937938     24.434318     24.434318     48.868636
     -2.927928     29.086464     29.086464     58.172927
     -2.917918     34.515175     34.515175     69.030349
     -2.907908     39.868543     39.868543     79.737086
     -2.897898     44.321628     44.321628     88.643255
     -2.887888     47.237425     47.237425     94.474851
     -2.877878     48.291265     48.291265     96.582530
     -2.867868     47.527596     47.527596     95.055193
     -2.857858     45.325214     45.325214     90.650428
     -2.847848     42.269268     42.269268     84.538536
     -2.837838     38.963829     38.963829     77.927657
     -2.827828     35.850540     35.850540     71.701081
     -2.817818     33.105187     33.105187     66.210374
     -2.807808     30.654038     30.654038     61.308076
     -2.797798     28.296520     28.296520     56.593040
     -2.787788     25.868461     25.868461     51.736922
     -2.777778     23.360719     23.360719     46.721437
     -2.767768     20.934253     20.934253     41.868506
     -2.757758     18.831747     18.831747     37.663493
     -2.747748     17.244899     17.244899     34.489798
     -2.737738     16.220973     16.220973     32.441945
     -2.727728     15.666175     15.666175     31.332350
     -2.717718     15.441191     15.441191     30.882383
     -2.707708     15.483509     15.483509     30.967019
     -2.697698     15.871284     15.871284     31.742567
     -2.687688     16.779375     16.779375     33.558751
     -2.677678     18.348945     18.348945     36.697890
     -2.667668     20.552418     20.552418     41.104837
     -2.657658     23.144841     23.144841     46.289682
     -2.647648     25.741496     25.741496     51.482991
     -2.637638     27.981247     27.981247     55.962494
     -2.627628     29.678509     29.678509     59.357019
     -2.617618     30.873849     30.873849     61.747698
     -2.607608     31.760531     31.760531     63.521062
     -2.597598     32.544084     32.544084     65.088167
     -2.587588     33.326428     33.326428     66.652856
     -2.577578     34.073093     34.073093     68.146186
     -2.567568     34.653575     34.653575     69.307150
     -2.557558     34.899927     34.899927     69.799854
     -2.547548     34.640811     34.640811     69.281621
     -2.537538     33.716971     33.716971     67.433943
     -2.527528     32.016324     32.016324     64.032648
     -2.517518     29.548652     29.548652     59.097304
     -2.507508     26.528332     26.528332     53.056664
     -2.497497     23.398796     23.398796     46.797591
     -2.487487     20.750594     20.750594     41.501187
     -2.477477     19.146354     19.146354     38.292708
     -2.467467     18.926812     18.926812     37.853624
     -2.457457     20.091244     20.091244     40.182487
     -2.447447     22.312585     22.312585     44.625169
     -2.437437     25.082784     25.082784     50.165568
     -2.427427     27.921586     27.921586     55.843172
     -2.417417     30.551369     30.551369     61.102738
     -2.407407     32.955808     32.955808     65.911616
     -2.397397     35.294867     35.294867     70.589735
     -2.387387     37.718557     37.718557     75.437114
     -2.377377     40.174084     40.174084     80.348167
     -2.367367     42.309526     42.309526     84.619052
     -2.357357     43.535674     43.535674     87.071348
     -2.347347     43.233348     43.233348     86.466696
     -2.337337     41.020496     41.020496     82.040991
     -2.327327     36.958715     36.958715     73.917429
     -2.317317     31.603139     31.603139     63.206278
     -2.307307     25.872336     25.872336     51.744672
     -2.297297     20.796392     20.796392     41.592783
     -2.287287     17.247186     17.247186     34.494371
     -2.277277     15.745363     15.745363     31.490727
     -2.267267     16.389903     16.389903     32.779807
     -2.257257     18.903077     18.903077     37.806153
     -2.247247     22.751063     22.751063     45.502127
     -2.237237     27.291429     27.291429     54.582858
     -2.227227     31.903323     31.903323     63.806647
     -2.217217     36.068504     36.068504     72.137009
     -2.207207     39.392294     39.392294     78.784587
     -2.197197     41.581921     41.581921     83.163843
     -2.187187     42.422595     42.422595     84.845190
     -2.177177     41.790339     41.790339     83.580678
     -2.167167     39.708486     39.708486     79.416971
     -2.157157     36.409394     36.409394     72.818789
     -2.147147     32.339192     32.339192     64.678384
     -2.137137     28.065950     28.065950     56.131899
     -2.127127     24.112086     24.112086     48.224173
     -2.117117     20.788778     20.788778     41.577556
     -2.107107     18.120255     18.120255     36.240510
     -2.097097     15.897894     15.897894     31.795789
     -2.087087     13.829612     13.829612     27.659224
     -2.077077     11.699616     11.699616     23.399233
     -2.067067      9.458211      9.458211     18.916421
     -2.057057      7.211852      7.211852     14.423705
     -2.047047      5.141867      5.141867     10.283733
     -2.037037      3.409640      3.409640      6.819279
     -2.027027      2.096501      2.096501      4.193003
     -2.017017      1.194352      1.194352      2.388705
     -2.007007      0.633690      0.633690      1.267380
     -1.996997      0.324244      0.324244      0.648488
     -1.986987      0.189042      0.189042      0.378084
     -1.976977      0.184994      0.184994      0.369988
     -1.966967      0.312136      0.312136      0.624272
     -1.956957      0.615564      0.615564      1.231128
     -1.946947      1.180610      1.180610      2.361220
     -1.936937      2.117543      2.117543      4.235086
     -1.926927      3.531691      3.531691      7.063381
     -1.916917      5.480671      5.480671     10.961341
     -1.906907      7.930328      7.930328     15.860656
     -1.896897     10.728510     10.728510     21.457019
     -1.886887     13.613894     13.613894     27.227788
     -1.876877     16.264092     16.264092     32.528185
     -1.866867     18.369945     18.369945     36.739890
     -1.856857     19.711899     19.711899     39.423798
     -1.846847     20.214728     20.214728     40.429457
     -1.836837     19.964811     19.964811     39.929621
     -1.826827     19.182950     19.182950     38.365900
     -1.816817     18.154619     18.154619     36.309237
     -1.806807     17.133060     17.133060     34.266120
     -1.796797     16.248314     16.248314     32.496627
     -1.786787     15.464264     15.464264     30.928527
     -1.776777     14.611298     14.611298     29.222597
     -1.766767     13.484576     13.484576     26.969153
     -1.756757     11.959558     11.959558     23.919116
     -1.746747     10.065697     10.065697     20.131394
     -1.736737      7.985591      7.985591     15.971181
     -1.726727      5.992001      5.992001     11.984003
     -1.716717      4.367181      4.367181      8.734362
     -1.706707      3.348062      3.348062      6.696123
     -1.696697      3.112112      3.112112      6.224224
     -1.686687      3.784991      3.784991      7.569982
     -1.676677      5.435542      5.435542     10.871084
     -1.666667      8.035671      8.035671     16.071342
     -1.656657     11.394936     11.394936     22.789872
     -1.646647     15.112459     15.112459     30.224917
     -1.636637     18.599120     18.599120     37.198241
     -1.626627     21.197684     21.197684     42.395368
