# EIG2DOS: Utility for SIESTA to obtain the electronic density of states
#  E. Artacho, Apr 1999, A. Garcia, Apr 2012
#  Nick R. Papior, Feb 2017
# ------------------------------------------
# Eigenvalues calculated from a non-polarized calculation
# Eigenvalues read from siesta.EIG
# Kpoint weights read from siesta.KP
# Using smearing parameter:   0.0500
# Using 1000 points in the energy range
# Selected bands: 1 to: 2981
# Emin, Emax in file for selected band(s):    -27.3085619    218.4059300
# Nbands, Nspin, Nk   =   2981     1     1
# E_F                 =    -4.1863 eV --> (shifted to ZERO)
# Broadening          =     0.0500 eV
#
#        E            N(up)  (=)   N(down)         Ntot
     -5.000000     32.397497     32.397497     64.794994
     -4.989990     37.776867     37.776867     75.553735
     -4.979980     42.736223     42.736223     85.472446
     -4.969970     46.370639     46.370639     92.741279
     -4.959960     47.972449     47.972449     95.944897
     -4.949950     47.271674     47.271674     94.543349
     -4.939940     44.529164     44.529164     89.058328
     -4.929930     40.463128     40.463128     80.926257
     -4.919920     36.064045     36.064045     72.128090
     -4.909910     32.378007     32.378007     64.756013
     -4.899900     30.311061     30.311061     60.622121
     -4.889890     30.464972     30.464972     60.929944
     -4.879880     33.001729     33.001729     66.003459
     -4.869870     37.559092     37.559092     75.118184
     -4.859860     43.269510     43.269510     86.539020
     -4.849850     48.926701     48.926701     97.853403
     -4.839840     53.286014     53.286014    106.572029
     -4.829830     55.409307     55.409307    110.818614
     -4.819820     54.925136     54.925136    109.850273
     -4.809810     52.102184     52.102184    104.204368
     -4.799800     47.715363     47.715363     95.430725
     -4.789790     42.772741     42.772741     85.545482
     -4.779780     38.218648     38.218648     76.437295
     -4.769770     34.714769     34.714769     69.429537
     -4.759760     32.545457     32.545457     65.090914
     -4.749750     31.635144     31.635144     63.270288
     -4.739740     31.635419     31.635419     63.270839
     -4.729730     32.040936     32.040936     64.081872
     -4.719720     32.309208     32.309208     64.618416
     -4.709710     31.971095     31.971095     63.942190
     -4.699700     30.721568     30.721568     61.443137
     -4.689690     28.480768     28.480768     56.961536
     -4.679680     25.419071     25.419071     50.838143
     -4.669670     21.945382     21.945382     43.890763
     -4.659660     18.660526     18.660526     37.321052
     -4.649650     16.276265     16.276265     32.552530
     -4.639640     15.498569     15.498569     30.997138
     -4.629630     16.877677     16.877677     33.755355
     -4.619620     20.642135     20.642135     41.284270
     -4.609610     26.558779     26.558779     53.117558
     -4.599600     33.882956     33.882956     67.765912
     -4.589590     41.460122     41.460122     82.920245
     -4.579580     47.993781     47.993781     95.987562
     -4.569570     52.415023     52.415023    104.830046
     -4.559560     54.218436     54.218436    108.436873
     -4.549550     53.618201     53.618201    107.236402
     -4.539540     51.445786     51.445786    102.891573
     -4.529530     48.825012     48.825012     97.650024
     -4.519520     46.758975     46.758975     93.517951
     -4.509510     45.795582     45.795582     91.591164
     -4.499499     45.893893     45.893893     91.787787
     -4.489489     46.521334     46.521334     93.042667
     -4.479479     46.917592     46.917592     93.835185
     -4.469469     46.403847     46.403847     92.807693
     -4.459459     44.614334     44.614334     89.228668
     -4.449449     41.576205     41.576205     83.152410
     -4.439439     37.637762     37.637762     75.275524
     -4.429429     33.309438     33.309438     66.618876
     -4.419419     29.106243     29.106243     58.212486
     -4.409409     25.455436     25.455436     50.910873
     -4.399399     22.677451     22.677451     45.354901
     -4.389389     20.999293     20.999293     41.998586
     -4.379379     20.550443     20.550443     41.100886
     -4.369369     21.325051     21.325051     42.650103
     -4.359359     23.141364     23.141364     46.282728
     -4.349349     25.649990     25.649990     51.299980
     -4.339339     28.418799     28.418799     56.837598
     -4.329329     31.071180     31.071180     62.142360
     -4.319319     33.413676     33.413676     66.827352
     -4.309309     35.486473     35.486473     70.972947
     -4.299299     37.505545     37.505545     75.011090
     -4.289289     39.715591     39.715591     79.431182
     -4.279279     42.212932     42.212932     84.425864
     -4.269269     44.813785     44.813785     89.627570
     -4.259259     47.033246     47.033246     94.066492
     -4.249249     48.204787     48.204787     96.409573
     -4.239239     47.714107     47.714107     95.428214
     -4.229229     45.262328     45.262328     90.524657
     -4.219219     41.042715     41.042715     82.085431
     -4.209209     35.739316     35.739316     71.478631
     -4.199199     30.332994     30.332994     60.665987
     -4.189189     25.792068     25.792068     51.584137
     -4.179179     22.779434     22.779434     45.558868
     -4.169169     21.495743     21.495743     42.991485
     -4.159159     21.709673     21.709673     43.419347
     -4.149149     22.941076     22.941076     45.882151
     -4.139139     24.701515     24.701515     49.403030
     -4.129129     26.681065     26.681065     53.362129
     -4.119119     28.800599     28.800599     57.601198
     -4.109109     31.112538     31.112538     62.225077
     -4.099099     33.608023     33.608023     67.216047
     -4.089089     36.043717     36.043717     72.087434
     -4.079079     37.903723     37.903723     75.807445
     -4.069069     38.547195     38.547195     77.094390
     -4.059059     37.486232     37.486232     74.972465
     -4.049049     34.653448     34.653448     69.306896
     -4.039039     30.512870     30.512870     61.025739
     -4.029029     25.950412     25.950412     51.900825
     -4.019019     21.998749     21.998749     43.997498
     -4.009009     19.530441     19.530441     39.060882
     -3.998999     19.049560     19.049560     38.099120
     -3.988989     20.641205     20.641205     41.282410
     -3.978979     24.054151     24.054151     48.108302
     -3.968969     28.844032     28.844032     57.688064
     -3.958959     34.508427     34.508427     69.016854
     -3.948949     40.581411     40.581411     81.162822
     -3.938939     46.689310     46.689310     93.378620
     -3.928929     52.578538     52.578538    105.157077
     -3.918919     58.113265     58.113265    116.226530
     -3.908909     63.229073     63.229073    126.458147
     -3.898899     67.840490     67.840490    135.680981
     -3.888889     71.733705     71.733705    143.467409
     -3.878879     74.504557     74.504557    149.009113
     -3.868869     75.597145     75.597145    151.194289
     -3.858859     74.454342     74.454342    148.908684
     -3.848849     70.731732     70.731732    141.463464
     -3.838839     64.486737     64.486737    128.973473
     -3.828829     56.258146     56.258146    112.516291
     -3.818819     46.995004     46.995004     93.990008
     -3.808809     37.853992     37.853992     75.707985
     -3.798799     29.932340     29.932340     59.864680
     -3.788789     24.020766     24.020766     48.041532
     -3.778779     20.446630     20.446630     40.893261
     -3.768769     19.043162     19.043162     38.086323
     -3.758759     19.242275     19.242275     38.484551
     -3.748749     20.258097     20.258097     40.516195
     -3.738739     21.310948     21.310948     42.621896
     -3.728729     21.836954     21.836954     43.673908
     -3.718719     21.633946     21.633946     43.267893
     -3.708709     20.907527     20.907527     41.815055
     -3.698699     20.200984     20.200984     40.401967
     -3.688689     20.218924     20.218924     40.437848
     -3.678679     21.585371     21.585371     43.170743
     -3.668669     24.605591     24.605591     49.211181
     -3.658659     29.113800     29.113800     58.227600
     -3.648649     34.471671     34.471671     68.943342
     -3.638639     39.731319     39.731319     79.462638
     -3.628629     43.908484     43.908484     87.816968
     -3.618619     46.261497     46.261497     92.522994
     -3.608609     46.471016     46.471016     92.942032
     -3.598599     44.667268     44.667268     89.334536
     -3.588589     41.323579     41.323579     82.647159
     -3.578579     37.082952     37.082952     74.165905
     -3.568569     32.586362     32.586362     65.172724
     -3.558559     28.342141     28.342141     56.684281
     -3.548549     24.648005     24.648005     49.296010
     -3.538539     21.568996     21.568996     43.137992
     -3.528529     18.976117     18.976117     37.952235
     -3.518519     16.641573     16.641573     33.283146
     -3.508509     14.363015     14.363015     28.726030
     -3.498498     12.069179     12.069179     24.138357
     -3.488488      9.863837      9.863837     19.727675
     -3.478478      7.995168      7.995168     15.990336
     -3.468468      6.772413      6.772413     13.544825
     -3.458458      6.468015      6.468015     12.936029
     -3.448448      7.236134      7.236134     14.472268
     -3.438438      9.061632      9.061632     18.123264
     -3.428428     11.743915     11.743915     23.487831
     -3.418418     14.920686     14.920686     29.841372
     -3.408408     18.137288     18.137288     36.274576
     -3.398398     20.956961     20.956961     41.913922
     -3.388388     23.086732     23.086732     46.173464
     -3.378378     24.475993     24.475993     48.951985
     -3.368368     25.344581     25.344581     50.689162
     -3.358358     26.118632     26.118632     52.237264
     -3.348348     27.286002     27.286002     54.572004
     -3.338338     29.212964     29.212964     58.425929
     -3.328328     31.979093     31.979093     63.958185
     -3.318318     35.286443     35.286443     70.572886
     -3.308308     38.485226     38.485226     76.970452
     -3.298298     40.730175     40.730175     81.460350
     -3.288288     41.237650     41.237650     82.475299
     -3.278278     39.562758     39.562758     79.125517
     -3.268268     35.786436     35.786436     71.572873
     -3.258258     30.524025     30.524025     61.048049
     -3.248248     24.740825     24.740825     49.481649
     -3.238238     19.448235     19.448235     38.896469
     -3.228228     15.404247     15.404247     30.808495
     -3.218218     12.928470     12.928470     25.856941
     -3.208208     11.881624     11.881624     23.763247
     -3.198198     11.792569     11.792569     23.585138
     -3.188188     12.071983     12.071983     24.143966
     -3.178178     12.236850     12.236850     24.473701
     -3.168168     12.076684     12.076684     24.153367
     -3.158158     11.714277     11.714277     23.428553
     -3.148148     11.546733     11.546733     23.093465
     -3.138138     12.089143     12.089143     24.178286
     -3.128128     13.772314     13.772314     27.544628
     -3.118118     16.758904     16.758904     33.517807
     -3.108108     20.837869     20.837869     41.675737
     -3.098098     25.437440     25.437440     50.874880
     -3.088088     29.763148     29.763148     59.526296
     -3.078078     33.023151     33.023151     66.046301
     -3.068068     34.662080     34.662080     69.324160
     -3.058058     34.510543     34.510543     69.021086
     -3.048048     32.788372     32.788372     65.576744
     -3.038038     29.968268     29.968268     59.936537
     -3.028028     26.576115     26.576115     53.152231
     -3.018018     23.031305     23.031305     46.062610
     -3.008008     19.596992     19.596992     39.193984
     -2.997998     16.439282     16.439282     32.878565
     -2.987988     13.733409     13.733409     27.466819
     -2.977978     11.739658     11.739658     23.479316
     -2.967968     10.802228     10.802228     21.604457
     -2.957958     11.271551     11.271551     22.543102
     -2.947948     13.384646     13.384646     26.769292
     -2.937938     17.148683     17.148683     34.297367
     -2.927928     22.268167     22.268167     44.536333
     -2.917918     28.146086     28.146086     56.292172
     -2.907908     33.974516     33.974516     67.949032
     -2.897898     38.905465     38.905465     77.810930
     -2.887888     42.259769     42.259769     84.519537
     -2.877878     43.704416     43.704416     87.408832
     -2.867868     43.326508     43.326508     86.653016
     -2.857858     41.565749     41.565749     83.131498
     -2.847848     39.027339     39.027339     78.054677
     -2.837838     36.254595     36.254595     72.509189
     -2.827828     33.562444     33.562444     67.124887
     -2.817818     31.002747     31.002747     62.005494
     -2.807808     28.463622     28.463622     56.927245
     -2.797798     25.835333     25.835333     51.670665
     -2.787788     23.144698     23.144698     46.289397
     -2.777778     20.585524     20.585524     41.171048
     -2.767768     18.437970     18.437970     36.875940
     -2.757758     16.935644     16.935644     33.871289
     -2.747748     16.166306     16.166306     32.332613
     -2.737738     16.064807     16.064807     32.129614
     -2.727728     16.492956     16.492956     32.985912
     -2.717718     17.341916     17.341916     34.683832
     -2.707708     18.578794     18.578794     37.157588
     -2.697698     20.202120     20.202120     40.404239
     -2.687688     22.142587     22.142587     44.285175
     -2.677678     24.193910     24.193910     48.387821
     -2.667668     26.044634     26.044634     52.089268
     -2.657658     27.410609     27.410609     54.821218
     -2.647648     28.189565     28.189565     56.379130
     -2.637638     28.533277     28.533277     57.066554
     -2.627628     28.781602     28.781602     57.563203
     -2.617618     29.292250     29.292250     58.584500
     -2.607608     30.265214     30.265214     60.530428
     -2.597598     31.655878     31.655878     63.311757
     -2.587588     33.205404     33.205404     66.410808
     -2.577578     34.545001     34.545001     69.090002
     -2.567568     35.304675     35.304675     70.609350
     -2.557558     35.186131     35.186131     70.372262
     -2.547548     34.007156     34.007156     68.014313
     -2.537538     31.745199     31.745199     63.490398
     -2.527528     28.586726     28.586726     57.173453
     -2.517518     24.952483     24.952483     49.904966
     -2.507508     21.455606     21.455606     42.911213
     -2.497497     18.775455     18.775455     37.550911
     -2.487487     17.477149     17.477149     34.954297
     -2.477477     17.842610     17.842610     35.685220
     -2.467467     19.782241     19.782241     39.564482
     -2.457457     22.867387     22.867387     45.734773
     -2.447447     26.477160     26.477160     52.954321
     -2.437437     30.007085     30.007085     60.014171
     -2.427427     33.058240     33.058240     66.116480
     -2.417417     35.527495     35.527495     71.054990
     -2.407407     37.556523     37.556523     75.113047
     -2.397397     39.359322     39.359322     78.718644
     -2.387387     41.009704     41.009704     82.019408
     -2.377377     42.299993     42.299993     84.599987
     -2.367367     42.757642     42.757642     85.515284
     -2.357357     41.830713     41.830713     83.661426
     -2.347347     39.161240     39.161240     78.322480
     -2.337337     34.810725     34.810725     69.621450
     -2.327327     29.322189     29.322189     58.644378
     -2.317317     23.589332     23.589332     47.178665
     -2.307307     18.601410     18.601410     37.202821
     -2.297297     15.182088     15.182088     30.364177
     -2.287287     13.819461     13.819461     27.638922
     -2.277277     14.619973     14.619973     29.239945
     -2.267267     17.359229     17.359229     34.718458
     -2.257257     21.578304     21.578304     43.156607
     -2.247247     26.683339     26.683339     53.366678
     -2.237237     32.028482     32.028482     64.056965
     -2.227227     36.979866     36.979866     73.959732
     -2.217217     40.966647     40.966647     81.933294
     -2.207207     43.527382     43.527382     87.054763
     -2.197197     44.358699     44.358699     88.717397
     -2.187187     43.366681     43.366681     86.733362
     -2.177177     40.707869     40.707869     81.415739
     -2.167167     36.792152     36.792152     73.584305
     -2.157157     32.218192     32.218192     64.436385
     -2.147147     27.635455     27.635455     55.270910
     -2.137137     23.569660     23.569660     47.139320
     -2.127127     20.283582     20.283582     40.567164
     -2.117117     17.742183     17.742183     35.484366
     -2.107107     15.702946     15.702946     31.405892
     -2.097097     13.885920     13.885920     27.771841
     -2.087087     12.136076     12.136076     24.272153
     -2.077077     10.499205     10.499205     20.998409
     -2.067067      9.183050      9.183050     18.366099
     -2.057057      8.433954      8.433954     16.867907
     -2.047047      8.394129      8.394129     16.788257
     -2.037037      9.004848      9.004848     18.009695
     -2.027027      9.995105      9.995105     19.990210
     -2.017017     10.958973     10.958973     21.917946
     -2.007007     11.490462     11.490462     22.980924
     -1.996997     11.322300     11.322300     22.644600
     -1.986987     10.413873     10.413873     20.827745
     -1.976977      8.956857      8.956857     17.913714
     -1.966967      7.304876      7.304876     14.609752
     -1.956957      5.864968      5.864968     11.729937
     -1.946947      4.995993      4.995993      9.991985
     -1.936937      4.941672      4.941672      9.883345
     -1.926927      5.800438      5.800438     11.600876
     -1.916917      7.519813      7.519813     15.039626
     -1.906907      9.906022      9.906022     19.812044
     -1.896897     12.650172     12.650172     25.300344
     -1.886887     15.376613     15.376613     30.753225
     -1.876877     17.711770     17.711770     35.423539
     -1.866867     19.359895     19.359895     38.719790
     -1.856857     20.165742     20.165742     40.331484
     -1.846847     20.146265     20.146265     40.292530
     -1.836837     19.479899     19.479899     38.959797
     -1.826827     18.449955     18.449955     36.899911
     -1.816817     17.350927     17.350927     34.701855
     -1.806807     16.384659     16.384659     32.769318
     -1.796797     15.588659     15.588659     31.177319
     -1.786787     14.834809     14.834809     29.669618
     -1.776777     13.906047     13.906047     27.812094
     -1.766767     12.615769     12.615769     25.231537
     -1.756757     10.908860     10.908860     21.817720
     -1.746747      8.894641      8.894641     17.789281
     -1.736737      6.803414      6.803414     13.606828
     -1.726727      4.900776      4.900776      9.801551
     -1.716717      3.409719      3.409719      6.819438
     -1.706707      2.473880      2.473880      4.947760
     -1.696697      2.162386      2.162386      4.324771
     -1.686687      2.491211      2.491211      4.982422
     -1.676677      3.431951      3.431951      6.863903
     -1.666667      4.895621      4.895621      9.791242
     -1.656657      6.704267      6.704267     13.408533
     -1.646647      8.580818      8.580818     17.161636
     -1.636637     10.185582     10.185582     20.371164
     -1.626627     11.204531     11.204531     22.409061
