# EIG2DOS: Utility for SIESTA to obtain the electronic density of states
#  E. Artacho, Apr 1999, A. Garcia, Apr 2012
#  Nick R. Papior, Feb 2017
# ------------------------------------------
# Eigenvalues calculated from a non-polarized calculation
# Eigenvalues read from siesta.EIG
# Kpoint weights read from siesta.KP
# Using smearing parameter:   0.0500
# Using 1000 points in the energy range
# Selected bands: 1 to: 2981
# Emin, Emax in file for selected band(s):    -27.0781973    218.3492490
# Nbands, Nspin, Nk   =   2981     1     1
# E_F                 =    -4.2554 eV --> (shifted to ZERO)
# Broadening          =     0.0500 eV
#
#        E            N(up)  (=)   N(down)         Ntot
     -5.000000     34.658718     34.658718     69.317435
     -4.989990     38.279617     38.279617     76.559234
     -4.979980     41.324068     41.324068     82.648137
     -4.969970     43.295595     43.295595     86.591190
     -4.959960     43.856782     43.856782     87.713565
     -4.949950     42.922677     42.922677     85.845354
     -4.939940     40.692126     40.692126     81.384252
     -4.929930     37.616763     37.616763     75.233527
     -4.919920     34.331671     34.331671     68.663341
     -4.909910     31.571975     31.571975     63.143950
     -4.899900     30.078008     30.078008     60.156016
     -4.889890     30.470410     30.470410     60.940819
     -4.879880     33.083528     33.083528     66.167056
     -4.869870     37.788725     37.788725     75.577450
     -4.859860     43.891693     43.891693     87.783385
     -4.849850     50.200857     50.200857    100.401714
     -4.839840     55.305559     55.305559    110.611117
     -4.829830     57.992386     57.992386    115.984773
     -4.819820     57.633300     57.633300    115.266600
     -4.809810     54.369958     54.369958    108.739917
     -4.799800     49.012392     49.012392     98.024784
     -4.789790     42.712574     42.712574     85.425148
     -4.779780     36.575566     36.575566     73.151133
     -4.769770     31.374176     31.374176     62.748352
     -4.759760     27.449494     27.449494     54.898987
     -4.749750     24.775053     24.775053     49.550106
     -4.739740     23.100784     23.100784     46.201568
     -4.729730     22.093550     22.093550     44.187099
     -4.719720     21.429441     21.429441     42.858882
     -4.709710     20.834069     20.834069     41.668137
     -4.699700     20.091979     20.091979     40.183959
     -4.689690     19.053431     19.053431     38.106863
     -4.679680     17.659195     17.659195     35.318389
     -4.669670     15.985114     15.985114     31.970229
     -4.659660     14.285756     14.285756     28.571512
     -4.649650     13.003437     13.003437     26.006873
     -4.639640     12.714208     12.714208     25.428416
     -4.629630     14.003354     14.003354     28.006709
     -4.619620     17.289908     17.289908     34.579816
     -4.609610     22.644692     22.644692     45.289385
     -4.599600     29.664950     29.664950     59.329900
     -4.589590     37.472397     37.472397     74.944794
     -4.579580     44.876937     44.876937     89.753874
     -4.569570     50.689528     50.689528    101.379055
     -4.559560     54.092970     54.092970    108.185940
     -4.549550     54.928996     54.928996    109.857992
     -4.539540     53.771430     53.771430    107.542861
     -4.529530     51.733773     51.733773    103.467546
     -4.519520     50.071066     50.071066    100.142131
     -4.509510     49.726281     49.726281     99.452561
     -4.499499     50.997682     50.997682    101.995364
     -4.489489     53.454067     53.454067    106.908133
     -4.479479     56.122019     56.122019    112.244038
     -4.469469     57.858457     57.858457    115.716914
     -4.459459     57.751814     57.751814    115.503628
     -4.449449     55.397380     55.397380    110.794759
     -4.439439     50.963236     50.963236    101.926473
     -4.429429     45.063993     45.063993     90.127985
     -4.419419     38.536043     38.536043     77.072086
     -4.409409     32.223029     32.223029     64.446059
     -4.399399     26.835983     26.835983     53.671966
     -4.389389     22.888260     22.888260     45.776519
     -4.379379     20.667079     20.667079     41.334158
     -4.369369     20.211341     20.211341     40.422681
     -4.359359     21.301470     21.301470     42.602940
     -4.349349     23.493429     23.493429     46.986859
     -4.339339     26.219949     26.219949     52.439899
     -4.329329     28.943304     28.943304     57.886607
     -4.319319     31.305872     31.305872     62.611743
     -4.309309     33.216144     33.216144     66.432289
     -4.299299     34.834256     34.834256     69.668513
     -4.289289     36.463657     36.463657     72.927315
     -4.279279     38.389401     38.389401     76.778803
     -4.269269     40.717621     40.717621     81.435242
     -4.259259     43.270072     43.270072     86.540143
     -4.249249     45.578681     45.578681     91.157363
     -4.239239     47.003317     47.003317     94.006634
     -4.229229     46.952888     46.952888     93.905776
     -4.219219     45.133533     45.133533     90.267067
     -4.209209     41.711363     41.711363     83.422726
     -4.199199     37.297986     37.297986     74.595972
     -4.189189     32.748909     32.748909     65.497818
     -4.179179     28.864089     28.864089     57.728178
     -4.169169     26.132921     26.132921     52.265843
     -4.159159     24.638005     24.638005     49.276011
     -4.149149     24.143422     24.143422     48.286844
     -4.139139     24.300447     24.300447     48.600894
     -4.129129     24.856038     24.856038     49.712075
     -4.119119     25.761514     25.761514     51.523029
     -4.109109     27.134019     27.134019     54.268039
     -4.099099     29.094881     29.094881     58.189761
     -4.089089     31.571538     31.571538     63.143076
     -4.079079     34.178200     34.178200     68.356400
     -4.069069     36.263574     36.263574     72.527149
     -4.059059     37.131665     37.131665     74.263330
     -4.049049     36.340845     36.340845     72.681690
     -4.039039     33.928893     33.928893     67.857787
     -4.029029     30.441838     30.441838     60.883677
     -4.019019     26.750013     26.750013     53.500027
     -4.009009     23.749660     23.749660     47.499320
     -3.998999     22.099332     22.099332     44.198664
     -3.988989     22.100055     22.100055     44.200110
     -3.978979     23.732274     23.732274     47.464547
     -3.968969     26.779075     26.779075     53.558150
     -3.958959     30.944079     30.944079     61.888158
     -3.948949     35.913707     35.913707     71.827414
     -3.938939     41.374140     41.374140     82.748280
     -3.928929     47.023789     47.023789     94.047579
     -3.918919     52.604672     52.604672    105.209344
     -3.908909     57.934593     57.934593    115.869186
     -3.898899     62.898501     62.898501    125.797001
     -3.888889     67.376325     67.376325    134.752650
     -3.878879     71.133994     71.133994    142.267988
     -3.868869     73.746995     73.746995    147.493991
     -3.858859     74.627924     74.627924    149.255847
     -3.848849     73.183211     73.183211    146.366421
     -3.838839     69.052802     69.052802    138.105604
     -3.828829     62.330176     62.330176    124.660352
     -3.818819     53.653459     53.653459    107.306919
     -3.808809     44.109473     44.109473     88.218945
     -3.798799     34.975600     34.975600     69.951199
     -3.788789     27.394633     27.394633     54.789267
     -3.778779     22.099507     22.099507     44.199014
     -3.768769     19.273464     19.273464     38.546928
     -3.758759     18.571788     18.571788     37.143577
     -3.748749     19.276888     19.276888     38.553776
     -3.738739     20.528762     20.528762     41.057524
     -3.728729     21.567312     21.567312     43.134625
     -3.718719     21.930897     21.930897     43.861794
     -3.708709     21.568127     21.568127     43.136253
     -3.698699     20.835600     20.835600     41.671201
     -3.688689     20.375862     20.375862     40.751724
     -3.678679     20.899241     20.899241     41.798481
     -3.668669     22.926404     22.926404     45.852808
     -3.658659     26.573492     26.573492     53.146984
     -3.648649     31.461780     31.461780     62.923559
     -3.638639     36.797255     36.797255     73.594511
     -3.628629     41.599033     41.599033     83.198066
     -3.618619     44.989071     44.989071     89.978142
     -3.608609     46.428352     46.428352     92.856704
     -3.598599     45.816229     45.816229     91.632457
     -3.588589     43.441083     43.441083     86.882166
     -3.578579     39.835226     39.835226     79.670451
     -3.568569     35.607536     35.607536     71.215072
     -3.558559     31.304408     31.304408     62.608817
     -3.548549     27.315642     27.315642     54.631285
     -3.538539     23.826771     23.826771     47.653542
     -3.528529     20.823107     20.823107     41.646214
     -3.518519     18.151086     18.151086     36.302173
     -3.508509     15.624103     15.624103     31.248205
     -3.498498     13.133653     13.133653     26.267307
     -3.488488     10.717280     10.717280     21.434561
     -3.478478      8.554791      8.554791     17.109581
     -3.468468      6.900365      6.900365     13.800730
     -3.458458      5.985092      5.985092     11.970183
     -3.448448      5.928354      5.928354     11.856709
     -3.438438      6.684117      6.684117     13.368233
     -3.428428      8.034850      8.034850     16.069700
     -3.418418      9.638063      9.638063     19.276126
     -3.408408     11.121550     11.121550     22.243101
     -3.398398     12.206177     12.206177     24.412354
     -3.388388     12.814662     12.814662     25.629324
     -3.378378     13.118425     13.118425     26.236849
     -3.368368     13.494755     13.494755     26.989510
     -3.358358     14.406279     14.406279     28.812557
     -3.348348     16.249169     16.249169     32.498338
     -3.338338     19.223265     19.223265     38.446531
     -3.328328     23.255551     23.255551     46.511102
     -3.318318     27.980625     27.980625     55.961251
     -3.308308     32.772212     32.772212     65.544425
     -3.298298     36.830075     36.830075     73.660150
     -3.288288     39.332947     39.332947     78.665894
     -3.278278     39.645388     39.645388     79.290776
     -3.268268     37.520104     37.520104     75.040208
     -3.258258     33.206111     33.206111     66.412222
     -3.248248     27.395809     27.395809     54.791619
     -3.238238     21.018835     21.018835     42.037670
     -3.228228     14.969982     14.969982     29.939964
     -3.218218      9.887811      9.887811     19.775622
     -3.208208      6.063109      6.063109     12.126218
     -3.198198      3.483696      3.483696      6.967391
     -3.188188      1.963542      1.963542      3.927083
     -3.178178      1.287831      1.287831      2.575661
     -3.168168      1.324808      1.324808      2.649616
     -3.158158      2.083882      2.083882      4.167765
     -3.148148      3.716765      3.716765      7.433530
     -3.138138      6.462186      6.462186     12.924373
     -3.128128     10.537285     10.537285     21.074570
     -3.118118     15.993247     15.993247     31.986494
     -3.108108     22.579467     22.579467     45.158934
     -3.098098     29.682498     29.682498     59.364996
     -3.088088     36.398803     36.398803     72.797606
     -3.078078     41.751280     41.751280     83.502560
     -3.068068     44.984790     44.984790     89.969580
     -3.058058     45.817442     45.817442     91.634884
     -3.048048     44.525193     44.525193     89.050386
     -3.038038     41.808844     41.808844     83.617688
     -3.028028     38.500765     38.500765     77.001530
     -3.018018     35.251922     35.251922     70.503844
     -3.008008     32.347840     32.347840     64.695681
     -2.997998     29.729831     29.729831     59.459661
     -2.987988     27.188276     27.188276     54.376551
     -2.977978     24.610870     24.610870     49.221741
     -2.967968     22.153135     22.153135     44.306270
     -2.957958     20.250545     20.250545     40.501090
     -2.947948     19.474380     19.474380     38.948760
     -2.937938     20.301945     20.301945     40.603891
     -2.927928     22.899749     22.899749     45.799498
     -2.917918     27.004864     27.004864     54.009729
     -2.907908     31.949827     31.949827     63.899655
     -2.897898     36.826360     36.826360     73.652721
     -2.887888     40.735678     40.735678     81.471357
     -2.877878     43.040280     43.040280     86.080559
     -2.867868     43.526800     43.526800     87.053599
     -2.857858     42.419423     42.419423     84.838845
     -2.847848     40.241826     40.241826     80.483653
     -2.837838     37.589342     37.589342     75.178684
     -2.827828     34.911318     34.911318     69.822635
     -2.817818     32.395611     32.395611     64.791222
     -2.807808     29.994648     29.994648     59.989296
     -2.797798     27.561568     27.561568     55.123135
     -2.787788     25.012383     25.012383     50.024765
     -2.777778     22.423626     22.423626     44.847253
     -2.767768     20.017415     20.017415     40.034830
     -2.757758     18.053167     18.053167     36.106334
     -2.747748     16.698963     16.698963     33.397927
     -2.737738     15.964364     15.964364     31.928727
     -2.727728     15.734723     15.734723     31.469446
     -2.717718     15.879710     15.879710     31.759420
     -2.707708     16.358339     16.358339     32.716679
     -2.697698     17.243612     17.243612     34.487224
     -2.687688     18.644106     18.644106     37.288212
     -2.677678     20.573366     20.573366     41.146732
     -2.667668     22.860456     22.860456     45.720913
     -2.657658     25.174120     25.174120     50.348240
     -2.647648     27.158854     27.158854     54.317709
     -2.637638     28.603256     28.603256     57.206512
     -2.627628     29.534746     29.534746     59.069493
     -2.617618     30.181207     30.181207     60.362414
     -2.607608     30.827068     30.827068     61.654135
     -2.597598     31.656102     31.656102     63.312203
     -2.587588     32.669963     32.669963     65.339926
     -2.577578     33.708380     33.708380     67.416759
     -2.567568     34.528106     34.528106     69.056212
     -2.557558     34.876883     34.876883     69.753765
     -2.547548     34.533706     34.533706     69.067413
     -2.537538     33.336263     33.336263     66.672525
     -2.527528     31.230483     31.230483     62.460966
     -2.517518     28.343680     28.343680     56.687361
     -2.507508     25.035956     25.035956     50.071913
     -2.497497     21.871337     21.871337     43.742674
     -2.487487     19.486870     19.486870     38.973740
     -2.477477     18.399299     18.399299     36.798597
     -2.467467     18.832073     18.832073     37.664146
     -2.457457     20.643366     20.643366     41.286733
     -2.447447     23.391465     23.391465     46.782930
     -2.437437     26.511562     26.511562     53.023125
     -2.427427     29.527025     29.527025     59.054050
     -2.417417     32.201085     32.201085     64.402170
     -2.407407     34.560369     34.560369     69.120738
     -2.397397     36.780386     36.780386     73.560773
     -2.387387     38.989491     38.989491     77.978982
     -2.377377     41.090693     41.090693     82.181386
     -2.367367     42.698011     42.698011     85.396021
     -2.357357     43.233733     43.233733     86.467466
     -2.347347     42.155588     42.155588     84.311176
     -2.337337     39.214826     39.214826     78.429651
     -2.327327     34.624470     34.624470     69.248939
     -2.317317     29.057000     29.057000     58.114000
     -2.307307     23.472545     23.472545     46.945091
     -2.297297     18.855595     18.855595     37.711190
     -2.287287     15.967791     15.967791     31.935582
     -2.277277     15.197567     15.197567     30.395135
     -2.267267     16.531149     16.531149     33.062298
     -2.257257     19.620848     19.620848     39.241696
     -2.247247     23.905442     23.905442     47.810884
     -2.237237     28.739529     28.739529     57.479059
     -2.227227     33.500419     33.500419     67.000838
     -2.217217     37.654758     37.654758     75.309515
     -2.207207     40.783391     40.783391     81.566782
     -2.197197     42.581200     42.581200     85.162400
     -2.187187     42.860180     42.860180     85.720359
     -2.177177     41.576736     41.576736     83.153471
     -2.167167     38.876393     38.876393     77.752787
     -2.157157     35.117639     35.117639     70.235279
     -2.147147     30.828784     30.828784     61.657569
     -2.137137     26.582694     26.582694     53.165388
     -2.127127     22.829084     22.829084     45.658168
     -2.117117     19.763701     19.763701     39.527402
     -2.107107     17.304495     17.304495     34.608991
     -2.097097     15.187741     15.187741     30.375483
     -2.087087     13.129582     13.129582     26.259165
     -2.077077     10.966255     10.966255     21.932511
     -2.067067      8.708240      8.708240     17.416480
     -2.057057      6.499890      6.499890     12.999780
     -2.047047      4.526728      4.526728      9.053457
     -2.037037      2.928377      2.928377      5.856753
     -2.027027      1.755450      1.755450      3.510900
     -2.017017      0.975171      0.975171      1.950342
     -2.007007      0.506270      0.506270      1.012540
     -1.996997      0.258779      0.258779      0.517558
     -1.986987      0.163479      0.163479      0.326958
     -1.976977      0.187893      0.187893      0.375786
     -1.966967      0.342711      0.342711      0.685423
     -1.956957      0.682393      0.682393      1.364787
     -1.946947      1.299322      1.299322      2.598644
     -1.936937      2.306921      2.306921      4.613842
     -1.926927      3.807772      3.807772      7.615544
     -1.916917      5.849546      5.849546     11.699091
     -1.906907      8.381748      8.381748     16.763495
     -1.896897     11.232969     11.232969     22.465939
     -1.886887     14.124990     14.124990     28.249981
     -1.876877     16.726086     16.726086     33.452172
     -1.866867     18.728864     18.728864     37.457728
     -1.856857     19.927972     19.927972     39.855944
     -1.846847     20.274179     20.274179     40.548359
     -1.836837     19.889319     19.889319     39.778638
     -1.826827     19.035575     19.035575     38.071149
     -1.816817     18.042713     18.042713     36.085426
     -1.806807     17.211399     17.211399     34.422798
     -1.796797     16.726290     16.726290     33.452580
     -1.786787     16.615804     16.615804     33.231607
     -1.776777     16.775441     16.775441     33.550881
     -1.766767     17.035893     17.035893     34.071786
     -1.756757     17.231766     17.231766     34.463531
     -1.746747     17.233823     17.233823     34.467645
     -1.736737     16.942981     16.942981     33.885961
     -1.726727     16.277763     16.277763     32.555526
     -1.716717     15.189110     15.189110     30.378220
     -1.706707     13.705925     13.705925     27.411850
     -1.696697     11.978952     11.978952     23.957905
     -1.686687     10.280484     10.280484     20.560969
     -1.676677      8.940515      8.940515     17.881030
     -1.666667      8.237789      8.237789     16.475577
     -1.656657      8.290993      8.290993     16.581986
     -1.646647      8.998112      8.998112     17.996225
     -1.636637     10.053605     10.053605     20.107210
     -1.626627     11.043751     11.043751     22.087501
