# EIG2DOS: Utility for SIESTA to obtain the electronic density of states
#  E. Artacho, Apr 1999, A. Garcia, Apr 2012
#  Nick R. Papior, Feb 2017
# ------------------------------------------
# Eigenvalues calculated from a non-polarized calculation
# Eigenvalues read from siesta.EIG
# Kpoint weights read from siesta.KP
# Using smearing parameter:   0.0500
# Using 1000 points in the energy range
# Selected bands: 1 to: 2981
# Emin, Emax in file for selected band(s):    -27.0608865    218.3337810
# Nbands, Nspin, Nk   =   2981     1     1
# E_F                 =    -4.2717 eV --> (shifted to ZERO)
# Broadening          =     0.0500 eV
#
#        E            N(up)  (=)   N(down)         Ntot
     -5.000000     36.462001     36.462001     72.924002
     -4.989990     39.115368     39.115368     78.230736
     -4.979980     41.576400     41.576400     83.152801
     -4.969970     43.318018     43.318018     86.636037
     -4.959960     43.907136     43.907136     87.814272
     -4.949950     43.139571     43.139571     86.279141
     -4.939940     41.102895     41.102895     82.205790
     -4.929930     38.164056     38.164056     76.328113
     -4.919920     34.906838     34.906838     69.813676
     -4.909910     32.047589     32.047589     64.095178
     -4.899900     30.337408     30.337408     60.674816
     -4.889890     30.435533     30.435533     60.871065
     -4.879880     32.740334     32.740334     65.480668
     -4.869870     37.203329     37.203329     74.406658
     -4.859860     43.205938     43.205938     86.411877
     -4.849850     49.600008     49.600008     99.200017
     -4.839840     54.963716     54.963716    109.927431
     -4.829830     58.015655     58.015655    116.031311
     -4.819820     58.025871     58.025871    116.051742
     -4.809810     55.038725     55.038725    110.077450
     -4.799800     49.806657     49.806657     99.613315
     -4.789790     43.478821     43.478821     86.957641
     -4.779780     37.203210     37.203210     74.406419
     -4.769770     31.817246     31.817246     63.634491
     -4.759760     27.723263     27.723263     55.446527
     -4.749750     24.936401     24.936401     49.872803
     -4.739740     23.222925     23.222925     46.445851
     -4.729730     22.242701     22.242701     44.485402
     -4.719720     21.647714     21.647714     43.295427
     -4.709710     21.131114     21.131114     42.262228
     -4.699700     20.446198     20.446198     40.892396
     -4.689690     19.420508     19.420508     38.841016
     -4.679680     17.982656     17.982656     35.965312
     -4.669670     16.203272     16.203272     32.406544
     -4.659660     14.333044     14.333044     28.666088
     -4.649650     12.809978     12.809978     25.619955
     -4.639640     12.211512     12.211512     24.423023
     -4.629630     13.142949     13.142949     26.285898
     -4.619620     16.074252     16.074252     32.148504
     -4.609610     21.158565     21.158565     42.317130
     -4.599600     28.086895     28.086895     56.173790
     -4.589590     36.047104     36.047104     72.094208
     -4.579580     43.844054     43.844054     87.688108
     -4.569570     50.187008     50.187008    100.374017
     -4.559560     54.071057     54.071057    108.142115
     -4.549550     55.112703     55.112703    110.225407
     -4.539540     53.693464     53.693464    107.386928
     -4.529530     50.836164     50.836164    101.672329
     -4.519520     47.854591     47.854591     95.709183
     -4.509510     45.915997     45.915997     91.831994
     -4.499499     45.685511     45.685511     91.371023
     -4.489489     47.171749     47.171749     94.343498
     -4.479479     49.797871     49.797871     99.595743
     -4.469469     52.634962     52.634962    105.269923
     -4.459459     54.693520     54.693520    109.387039
     -4.449449     55.179681     55.179681    110.359363
     -4.439439     53.662889     53.662889    107.325778
     -4.429429     50.141969     50.141969    100.283937
     -4.419419     45.020520     45.020520     90.041039
     -4.409409     39.010771     39.010771     78.021542
     -4.399399     32.986526     32.986526     65.973053
     -4.389389     27.808134     27.808134     55.616269
     -4.379379     24.148262     24.148262     48.296524
     -4.369369     22.354420     22.354420     44.708839
     -4.359359     22.386152     22.386152     44.772303
     -4.349349     23.853053     23.853053     47.706106
     -4.339339     26.150987     26.150987     52.301975
     -4.329329     28.656611     28.656611     57.313223
     -4.319319     30.913652     30.913652     61.827303
     -4.309309     32.745489     32.745489     65.490979
     -4.299299     34.258645     34.258645     68.517290
     -4.289289     35.743971     35.743971     71.487942
     -4.279279     37.515242     37.515242     75.030485
     -4.269269     39.738688     39.738688     79.477376
     -4.259259     42.307264     42.307264     84.614527
     -4.249249     44.807327     44.807327     89.614654
     -4.239239     46.608536     46.608536     93.217073
     -4.229229     47.069139     47.069139     94.138278
     -4.219219     45.791460     45.791460     91.582920
     -4.209209     42.816798     42.816798     85.633597
     -4.199199     38.655814     38.655814     77.311627
     -4.189189     34.123306     34.123306     68.246612
     -4.179179     30.048913     30.048913     60.097825
     -4.169169     27.002601     27.002601     54.005203
     -4.159159     25.161409     25.161409     50.322819
     -4.149149     24.362091     24.362091     48.724182
     -4.139139     24.287377     24.287377     48.574754
     -4.129129     24.676097     24.676097     49.352194
     -4.119119     25.450389     25.450389     50.900778
     -4.109109     26.702902     26.702902     53.405804
     -4.099099     28.556156     28.556156     57.112312
     -4.089089     30.969865     30.969865     61.939730
     -4.079079     33.606620     33.606620     67.213241
     -4.069069     35.850120     35.850120     71.700241
     -4.059059     36.997879     36.997879     73.995759
     -4.049049     36.551304     36.551304     73.102608
     -4.039039     34.458493     34.458493     68.916987
     -4.029029     31.178938     31.178938     62.357876
     -4.019019     27.533589     27.533589     55.067177
     -4.009009     24.420650     24.420650     48.841300
     -3.998999     22.541738     22.541738     45.083476
     -3.988989     22.257365     22.257365     44.514730
     -3.978979     23.600659     23.600659     47.201318
     -3.968969     26.389349     26.389349     52.778698
     -3.958959     30.344397     30.344397     60.688794
     -3.948949     35.157703     35.157703     70.315405
     -3.938939     40.512448     40.512448     81.024896
     -3.928929     46.096228     46.096228     92.192456
     -3.918919     51.634974     51.634974    103.269947
     -3.908909     56.933599     56.933599    113.867198
     -3.898899     61.879767     61.879767    123.759535
     -3.888889     66.379891     66.379891    132.759782
     -3.878879     70.245335     70.245335    140.490670
     -3.868869     73.096205     73.096205    146.192410
     -3.858859     74.362001     74.362001    148.724002
     -3.848849     73.418437     73.418437    146.836873
     -3.838839     69.826315     69.826315    139.652631
     -3.828829     63.572631     63.572631    127.145263
     -3.818819     55.196224     55.196224    110.392448
     -3.808809     45.724821     45.724821     91.449641
     -3.798799     36.434851     36.434851     72.869702
     -3.788789     28.523536     28.523536     57.047073
     -3.778779     22.813772     22.813772     45.627544
     -3.768769     19.586683     19.586683     39.173367
     -3.758759     18.577687     18.577687     37.155374
     -3.748749     19.114222     19.114222     38.228445
     -3.738739     20.339531     20.339531     40.679062
     -3.728729     21.458473     21.458473     42.916946
     -3.718719     21.947943     21.947943     43.895886
     -3.708709     21.686284     21.686284     43.372567
     -3.698699     20.970945     20.970945     41.941889
     -3.688689     20.414266     20.414266     40.828531
     -3.678679     20.735999     20.735999     41.471997
     -3.668669     22.504967     22.504967     45.009934
     -3.658659     25.910050     25.910050     51.820100
     -3.648649     30.645789     30.645789     61.291578
     -3.638639     35.966674     35.966674     71.933347
     -3.628629     40.899833     40.899833     81.799666
     -3.618619     44.535615     44.535615     89.071229
     -3.608609     46.279634     46.279634     92.559268
     -3.598599     45.973506     45.973506     91.947012
     -3.588589     43.861387     43.861387     87.722774
     -3.578579     40.450039     40.450039     80.900078
     -3.568569     36.338741     36.338741     72.677483
     -3.558559     32.076039     32.076039     64.152078
     -3.548549     28.063612     28.063612     56.127224
     -3.538539     24.507236     24.507236     49.014472
     -3.528529     21.416655     21.416655     42.833310
     -3.518519     18.659389     18.659389     37.318778
     -3.508509     16.059277     16.059277     32.118554
     -3.498498     13.505233     13.505233     27.010467
     -3.488488     11.023281     11.023281     22.046562
     -3.478478      8.780739      8.780739     17.561479
     -3.468468      7.025805      7.025805     14.051610
     -3.458458      5.994057      5.994057     11.988114
     -3.448448      5.819726      5.819726     11.639453
     -3.438438      6.478436      6.478436     12.956872
     -3.428428      7.774789      7.774789     15.549578
     -3.418418      9.380662      9.380662     18.761324
     -3.408408     10.922626     10.922626     21.845252
     -3.398398     12.101056     12.101056     24.202112
     -3.388388     12.802459     12.802459     25.604918
     -3.378378     13.156799     13.156799     26.313597
     -3.368368     13.507914     13.507914     27.015828
     -3.358358     14.303519     14.303519     28.607039
     -3.348348     15.948222     15.948222     31.896443
     -3.338338     18.673456     18.673456     37.346912
     -3.328328     22.457893     22.457893     44.915786
     -3.318318     27.001767     27.001767     54.003535
     -3.308308     31.746061     31.746061     63.492122
     -3.298298     35.939134     35.939134     71.878267
     -3.288288     38.766446     38.766446     77.532893
     -3.278278     39.543592     39.543592     79.087184
     -3.268268     37.926318     37.926318     75.852637
     -3.258258     34.049518     34.049518     68.099037
     -3.248248     28.515191     28.515191     57.030382
     -3.238238     22.216653     22.216653     44.433305
     -3.228228     16.071603     16.071603     32.143206
     -3.218218     10.780898     10.780898     21.561797
     -3.208208      6.705304      6.705304     13.410608
     -3.198198      3.882443      3.882443      7.764886
     -3.188188      2.140664      2.140664      4.281327
     -3.178178      1.241054      1.241054      2.482109
     -3.168168      0.993766      0.993766      1.987532
     -3.158158      1.325993      1.325993      2.651986
     -3.148148      2.301953      2.301953      4.603906
     -3.138138      4.101332      4.101332      8.202664
     -3.128128      6.958972      6.958972     13.917944
     -3.118118     11.068122     11.068122     22.136245
     -3.108108     16.460608     16.460608     32.921217
     -3.098098     22.897392     22.897392     45.794784
     -3.088088     29.819065     29.819065     59.638131
     -3.078078     36.401181     36.401181     72.802362
     -3.068068     41.725162     41.725162     83.450324
     -3.058058     45.021346     45.021346     90.042693
     -3.048048     45.894757     45.894757     91.789515
     -3.038038     44.438360     44.438360     88.876721
     -3.028028     41.184749     41.184749     82.369499
     -3.018018     36.922906     36.922906     73.845812
     -3.008008     32.466554     32.466554     64.933109
     -2.997998     28.469327     28.469327     56.938655
     -2.987988     25.341032     25.341032     50.682065
     -2.977978     23.262903     23.262903     46.525807
     -2.967968     22.262893     22.262893     44.525786
     -2.957958     22.304295     22.304295     44.608590
     -2.947948     23.349098     23.349098     46.698195
     -2.937938     25.369559     25.369559     50.739118
     -2.927928     28.300143     28.300143     56.600286
     -2.917918     31.952485     31.952485     63.904970
     -2.907908     35.947669     35.947669     71.895338
     -2.897898     39.727071     39.727071     79.454142
     -2.887888     42.668632     42.668632     85.337265
     -2.877878     44.273306     44.273306     88.546613
     -2.867868     44.335720     44.335720     88.671440
     -2.857858     43.009820     43.009820     86.019640
     -2.847848     40.730270     40.730270     81.460540
     -2.837838     38.025067     38.025067     76.050133
     -2.827828     35.310861     35.310861     70.621723
     -2.817818     32.768709     32.768709     65.537418
     -2.807808     30.352408     30.352408     60.704816
     -2.797798     27.910452     27.910452     55.820903
     -2.787788     25.344750     25.344750     50.689500
     -2.777778     22.715249     22.715249     45.430498
     -2.767768     20.235731     20.235731     40.471462
     -2.757758     18.171357     18.171357     36.342713
     -2.747748     16.705734     16.705734     33.411469
     -2.737738     15.861317     15.861317     31.722634
     -2.727728     15.521767     15.521767     31.043534
     -2.717718     15.539012     15.539012     31.078025
     -2.707708     15.851623     15.851623     31.703245
     -2.697698     16.531592     16.531592     33.063184
     -2.687688     17.722377     17.722377     35.444754
     -2.677678     19.504644     19.504644     39.009289
     -2.667668     21.779398     21.779398     43.558796
     -2.657658     24.253252     24.253252     48.506505
     -2.647648     26.547000     26.547000     53.094001
     -2.637638     28.366800     28.366800     56.733601
     -2.627628     29.633278     29.633278     59.266557
     -2.617618     30.490060     30.490060     60.980120
     -2.607608     31.192469     31.192469     62.384939
     -2.597598     31.952537     31.952537     63.905074
     -2.587588     32.834029     32.834029     65.668057
     -2.577578     33.742665     33.742665     67.485330
     -2.567568     34.485964     34.485964     68.971927
     -2.557558     34.842226     34.842226     69.684453
     -2.547548     34.601148     34.601148     69.202296
     -2.537538     33.588248     33.588248     67.176497
     -2.527528     31.709453     31.709453     63.418906
     -2.517518     29.026784     29.026784     58.053567
     -2.507508     25.826870     25.826870     51.653739
     -2.497497     22.619667     22.619667     45.239334
     -2.487487     20.031989     20.031989     40.063978
     -2.477477     18.621793     18.621793     37.243586
     -2.467467     18.691353     18.691353     37.382706
     -2.457457     20.186560     20.186560     40.373120
     -2.447447     22.731823     22.731823     45.463646
     -2.437437     25.787307     25.787307     51.574613
     -2.427427     28.858446     28.858446     57.716893
     -2.417417     31.662548     31.662548     63.325096
     -2.407407     34.175847     34.175847     68.351694
     -2.397397     36.540223     36.540223     73.080445
     -2.387387     38.877349     38.877349     77.754698
     -2.377377     41.106649     41.106649     82.213298
     -2.367367     42.866844     42.866844     85.733688
     -2.357357     43.594748     43.594748     87.189496
     -2.347347     42.738815     42.738815     85.477630
     -2.337337     40.015171     40.015171     80.030342
     -2.327327     35.587123     35.587123     71.174246
     -2.317317     30.082419     30.082419     60.164839
     -2.307307     24.439521     24.439521     48.879043
     -2.297297     19.651774     19.651774     39.303547
     -2.287287     16.514216     16.514216     33.028433
     -2.277277     15.458663     15.458663     30.917326
     -2.267267     16.510205     16.510205     33.020411
     -2.257257     19.347845     19.347845     38.695689
     -2.247247     23.425565     23.425565     46.851130
     -2.237237     28.107583     28.107583     56.215166
     -2.227227     32.781248     32.781248     65.562495
     -2.217217     36.925633     36.925633     73.851266
     -2.207207     40.132643     40.132643     80.265285
     -2.197197     42.098737     42.098737     84.197473
     -2.187187     42.619591     42.619591     85.239183
     -2.177177     41.614092     41.614092     83.228185
     -2.167167     39.175097     39.175097     78.350194
     -2.157157     35.608779     35.608779     71.217559
     -2.147147     31.410765     31.410765     62.821531
     -2.137137     27.154346     27.154346     54.308691
     -2.127127     23.322308     23.322308     46.644615
     -2.117117     20.160604     20.160604     40.321209
     -2.107107     17.631599     17.631599     35.263199
     -2.097097     15.491989     15.491989     30.983977
     -2.087087     13.449963     13.449963     26.899926
     -2.077077     11.315426     11.315426     22.630852
     -2.067067      9.070963      9.070963     18.141926
     -2.057057      6.845106      6.845106     13.690212
     -2.047047      4.823943      4.823943      9.647887
     -2.037037      3.159464      3.159464      6.318928
     -2.027027      1.917963      1.917963      3.835927
     -2.017017      1.078599      1.078599      2.157198
     -2.007007      0.565303      0.565303      1.130606
     -1.996997      0.287196      0.287196      0.574391
     -1.986987      0.170251      0.170251      0.340502
     -1.976977      0.175344      0.175344      0.350688
     -1.966967      0.305956      0.305956      0.611912
     -1.956957      0.609741      0.609741      1.219482
     -1.946947      1.174161      1.174161      2.348323
     -1.936937      2.111986      2.111986      4.223971
     -1.926927      3.532012      3.532012      7.064024
     -1.916917      5.496123      5.496123     10.992247
     -1.906907      7.973810      7.973810     15.947620
     -1.896897     10.813359     10.813359     21.626718
     -1.886887     13.747932     13.747932     27.495865
     -1.876877     16.442585     16.442585     32.885170
     -1.866867     18.570899     18.570899     37.141798
     -1.856857     19.897347     19.897347     39.794694
     -1.846847     20.339541     20.339541     40.679081
     -1.836837     19.990837     19.990837     39.981674
     -1.826827     19.093148     19.093148     38.186295
     -1.816817     17.961534     17.961534     35.923068
     -1.806807     16.879174     16.879174     33.758349
     -1.796797     16.000688     16.000688     32.001375
     -1.786787     15.309878     15.309878     30.619756
     -1.776777     14.660153     14.660153     29.320307
     -1.766767     13.883940     13.883940     27.767881
     -1.756757     12.915034     12.915034     25.830069
     -1.746747     11.854912     11.854912     23.709824
     -1.736737     10.942813     10.942813     21.885627
     -1.726727     10.443583     10.443583     20.887166
     -1.716717     10.513885     10.513885     21.027771
     -1.706707     11.119406     11.119406     22.238811
     -1.696697     12.047378     12.047378     24.094755
     -1.686687     13.006521     13.006521     26.013043
     -1.676677     13.758436     13.758436     27.516871
     -1.666667     14.207242     14.207242     28.414483
     -1.656657     14.399295     14.399295     28.798591
     -1.646647     14.439688     14.439688     28.879375
     -1.636637     14.384218     14.384218     28.768436
     -1.626627     14.180660     14.180660     28.361321
