# EIG2DOS: Utility for SIESTA to obtain the electronic density of states
#  E. Artacho, Apr 1999, A. Garcia, Apr 2012
#  Nick R. Papior, Feb 2017
# ------------------------------------------
# Eigenvalues calculated from a non-polarized calculation
# Eigenvalues read from siesta.EIG
# Kpoint weights read from siesta.KP
# Using smearing parameter:   0.0500
# Using 1000 points in the energy range
# Selected bands: 1 to: 2981
# Emin, Emax in file for selected band(s):    -27.3179669    218.3966620
# Nbands, Nspin, Nk   =   2981     1     1
# E_F                 =    -4.1967 eV --> (shifted to ZERO)
# Broadening          =     0.0500 eV
#
#        E            N(up)  (=)   N(down)         Ntot
     -5.000000     31.352365     31.352365     62.704731
     -4.989990     36.535485     36.535485     73.070969
     -4.979980     41.487759     41.487759     82.975518
     -4.969970     45.348373     45.348373     90.696746
     -4.959960     47.377441     47.377441     94.754882
     -4.949950     47.203179     47.203179     94.406358
     -4.939940     44.951146     44.951146     89.902293
     -4.929930     41.217122     41.217122     82.434244
     -4.919920     36.917318     36.917318     73.834637
     -4.909910     33.085893     33.085893     66.171787
     -4.899900     30.675883     30.675883     61.351767
     -4.889890     30.382520     30.382520     60.765041
     -4.879880     32.489731     32.489731     64.979462
     -4.869870     36.759510     36.759510     73.519020
     -4.859860     42.416086     42.416086     84.832171
     -4.849850     48.278701     48.278701     96.557402
     -4.839840     53.046359     53.046359    106.092718
     -4.829830     55.658015     55.658015    111.316030
     -4.819820     55.595713     55.595713    111.191425
     -4.809810     53.008933     53.008933    106.017867
     -4.799800     48.615852     48.615852     97.231704
     -4.789790     43.437071     43.437071     86.874143
     -4.779780     38.482148     38.482148     76.964297
     -4.769770     34.506399     34.506399     69.012798
     -4.759760     31.897177     31.897177     63.794354
     -4.749750     30.678960     30.678960     61.357921
     -4.739740     30.587107     30.587107     61.174214
     -4.729730     31.163374     31.163374     62.326748
     -4.719720     31.853012     31.853012     63.706024
     -4.709710     32.104845     32.104845     64.209690
     -4.699700     31.477141     31.477141     62.954282
     -4.689690     29.738676     29.738676     59.477351
     -4.679680     26.941522     26.941522     53.883044
     -4.669670     23.441503     23.441503     46.883007
     -4.659660     19.854715     19.854715     39.709430
     -4.649650     16.955723     16.955723     33.911447
     -4.639640     15.534629     15.534629     31.069258
     -4.629630     16.232656     16.232656     32.465312
     -4.619620     19.376370     19.376370     38.752741
     -4.609610     24.839861     24.839861     49.679722
     -4.599600     31.982227     31.982227     63.964454
     -4.589590     39.715849     39.715849     79.431698
     -4.579580     46.734158     46.734158     93.468316
     -4.569570     51.860865     51.860865    103.721730
     -4.559560     54.406793     54.406793    108.813586
     -4.549550     54.387003     54.387003    108.774007
     -4.539540     52.493179     52.493179    104.986358
     -4.529530     49.820173     49.820173     99.640346
     -4.519520     47.456332     47.456332     94.912665
     -4.509510     46.105440     46.105440     92.210879
     -4.499499     45.886727     45.886727     91.773453
     -4.489489     46.374455     46.374455     92.748910
     -4.479479     46.834745     46.834745     93.669490
     -4.469469     46.542370     46.542370     93.084740
     -4.459459     45.043578     45.043578     90.087157
     -4.449449     42.273557     42.273557     84.547113
     -4.439439     38.513551     38.513551     77.027103
     -4.429429     34.244153     34.244153     68.488305
     -4.419419     29.983905     29.983905     59.967810
     -4.409409     26.183817     26.183817     52.367634
     -4.399399     23.194805     23.194805     46.389609
     -4.389389     21.273566     21.273566     42.547132
     -4.379379     20.577219     20.577219     41.154437
     -4.369369     21.125768     21.125768     42.251536
     -4.359359     22.758247     22.758247     45.516494
     -4.349349     25.133562     25.133562     50.267124
     -4.339339     27.808780     27.808780     55.617559
     -4.329329     30.378475     30.378475     60.756950
     -4.319319     32.614520     32.614520     65.229039
     -4.309309     34.536532     34.536532     69.073064
     -4.299299     36.372965     36.372965     72.745930
     -4.289289     38.421679     38.421679     76.843358
     -4.279279     40.862288     40.862288     81.724576
     -4.269269     43.595917     43.595917     87.191834
     -4.259259     46.186582     46.186582     92.373165
     -4.249249     47.949679     47.949679     95.899358
     -4.239239     48.177734     48.177734     96.355467
     -4.229229     46.426418     46.426418     92.852835
     -4.219219     42.738146     42.738146     85.476293
     -4.209209     37.691478     37.691478     75.382956
     -4.199199     32.238813     32.238813     64.477626
     -4.189189     27.396992     27.396992     54.793985
     -4.179179     23.926813     23.926813     47.853626
     -4.169169     22.137298     22.137298     44.274597
     -4.159159     21.883079     21.883079     43.766159
     -4.149149     22.730385     22.730385     45.460770
     -4.139139     24.197349     24.197349     48.394698
     -4.129129     25.954201     25.954201     51.908402
     -4.119119     27.897800     27.897800     55.795601
     -4.109109     30.076072     30.076072     60.152143
     -4.099099     32.508983     32.508983     65.017966
     -4.089089     35.008042     35.008042     70.016084
     -4.079079     37.107873     37.107873     74.215746
     -4.069069     38.174269     38.174269     76.348538
     -4.059059     37.657762     37.657762     75.315524
     -4.049049     35.371121     35.371121     70.742241
     -4.039039     31.642970     31.642970     63.285939
     -4.029029     27.260967     27.260967     54.521933
     -4.019019     23.230515     23.230515     46.461030
     -4.009009     20.467378     20.467378     40.934756
     -3.998999     19.560661     19.560661     39.121323
     -3.988989     20.685907     20.685907     41.371814
     -3.978979     23.662362     23.662362     47.324725
     -3.968969     28.088223     28.088223     56.176445
     -3.958959     33.479393     33.479393     66.958785
     -3.948949     39.369904     39.369904     78.739808
     -3.938939     45.371437     45.371437     90.742874
     -3.928929     51.205814     51.205814    102.411629
     -3.918919     56.713341     56.713341    113.426683
     -3.908909     61.822773     61.822773    123.645546
     -3.898899     66.472111     66.472111    132.944221
     -3.888889     70.499666     70.499666    140.999331
     -3.878879     73.560086     73.560086    147.120172
     -3.868869     75.128240     75.128240    150.256479
     -3.858859     74.620136     74.620136    149.240273
     -3.848849     71.600112     71.600112    143.200223
     -3.838839     65.992421     65.992421    131.984841
     -3.828829     58.203400     58.203400    116.406800
     -3.818819     49.094146     49.094146     98.188293
     -3.808809     39.804683     39.804683     79.609366
     -3.798799     31.488204     31.488204     62.976409
     -3.788789     25.043121     25.043121     50.086243
     -3.778779     20.923616     20.923616     41.847231
     -3.768769     19.075937     19.075937     38.151875
     -3.758759     19.005993     19.005993     38.011986
     -3.748749     19.949338     19.949338     39.898675
     -3.738739     21.094478     21.094478     42.188956
     -3.728729     21.803910     21.803910     43.607821
     -3.718719     21.781093     21.781093     43.562185
     -3.708709     21.142929     21.142929     42.285859
     -3.698699     20.375533     20.375533     40.751067
     -3.688689     20.176315     20.176315     40.352630
     -3.678679     21.216736     21.216736     42.433471
     -3.668669     23.891354     23.891354     47.782708
     -3.658659     28.137294     28.137294     56.274587
     -3.648649     33.398091     33.398091     66.796181
     -3.638639     38.759357     38.759357     77.518714
     -3.628629     43.213774     43.213774     86.427549
     -3.618619     45.953757     45.953757     91.907514
     -3.608609     46.578259     46.578259     93.156519
     -3.598599     45.146131     45.146131     90.292263
     -3.588589     42.084057     42.084057     84.168115
     -3.578579     38.014645     38.014645     76.029290
     -3.568569     33.579691     33.579691     67.159383
     -3.558559     29.304554     29.304554     58.609108
     -3.548549     25.516405     25.516405     51.032810
     -3.538539     22.316459     22.316459     44.632917
     -3.528529     19.608834     19.608834     39.217668
     -3.518519     17.184710     17.184710     34.369420
     -3.508509     14.840141     14.840141     29.680281
     -3.498498     12.483885     12.483885     24.967770
     -3.488488     10.190653     10.190653     20.381305
     -3.478478      8.181310      8.181310     16.362620
     -3.468468      6.747110      6.747110     13.494219
     -3.458458      6.155463      6.155463     12.310926
     -3.448448      6.570964      6.570964     13.141928
     -3.438438      8.008231      8.008231     16.016462
     -3.428428     10.319578     10.319578     20.639156
     -3.418418     13.217032     13.217032     26.434065
     -3.408408     16.328083     16.328083     32.656166
     -3.398398     19.278909     19.278909     38.557817
     -3.388388     21.787309     21.787309     43.574619
     -3.378378     23.738441     23.738441     47.476882
     -3.368368     25.217456     25.217456     50.434912
     -3.358358     26.484431     26.484431     52.968861
     -3.348348     27.892299     27.892299     55.784598
     -3.338338     29.762504     29.762504     59.525008
     -3.328328     32.245502     32.245502     64.491004
     -3.318318     35.206030     35.206030     70.412061
     -3.308308     38.182390     38.182390     76.364779
     -3.298298     40.462135     40.462135     80.924270
     -3.288288     41.280707     41.280707     82.561414
     -3.278278     40.089596     40.089596     80.179192
     -3.268268     36.788098     36.788098     73.576196
     -3.258258     31.808662     31.808662     63.617323
     -3.248248     26.005643     26.005643     52.011286
     -3.238238     20.390625     20.390625     40.781250
     -3.228228     15.826997     15.826997     31.653993
     -3.218218     12.802888     12.802888     25.605777
     -3.208208     11.351621     11.351621     22.703242
     -3.198198     11.122195     11.122195     22.244390
     -3.188188     11.554809     11.554809     23.109618
     -3.178178     12.097221     12.097221     24.194442
     -3.168168     12.397157     12.397157     24.794313
     -3.158158     12.415546     12.415546     24.831092
     -3.148148     12.425903     12.425903     24.851806
     -3.138138     12.898182     12.898182     25.796365
     -3.128128     14.303773     14.303773     28.607547
     -3.118118     16.907562     16.907562     33.815125
     -3.108108     20.621281     20.621281     41.242562
     -3.098098     24.975659     24.975659     49.951318
     -3.088088     29.230432     29.230432     58.460864
     -3.078078     32.590284     32.590284     65.180568
     -3.068068     34.448321     34.448321     68.896642
     -3.058058     34.559815     34.559815     69.119629
     -3.048048     33.074970     33.074970     66.149941
     -3.038038     30.425111     30.425111     60.850222
     -3.028028     27.129019     27.129019     54.258039
     -3.018018     23.621902     23.621902     47.243805
     -3.008008     20.185710     20.185710     40.371420
     -2.997998     16.992644     16.992644     33.985288
     -2.987988     14.208340     14.208340     28.416681
     -2.977978     12.076927     12.076927     24.153853
     -2.967968     10.933747     10.933747     21.867493
     -2.957958     11.138141     11.138141     22.276283
     -2.947948     12.956646     12.956646     25.913292
     -2.937938     16.441919     16.441919     32.883838
     -2.927928     21.350076     21.350076     42.700151
     -2.917918     27.129298     27.129298     54.258597
     -2.907908     32.997853     32.997853     65.995707
     -2.897898     38.105676     38.105676     76.211351
     -2.887888     41.740975     41.740975     83.481950
     -2.877878     43.514641     43.514641     87.029283
     -2.867868     43.449827     43.449827     86.899654
     -2.857858     41.933762     41.933762     83.867523
     -2.847848     39.546021     39.546021     79.092041
     -2.837838     36.835463     36.835463     73.670927
     -2.827828     34.144588     34.144588     68.289176
     -2.817818     31.556840     31.556840     63.113681
     -2.807808     28.978859     28.978859     57.957718
     -2.797798     26.299726     26.299726     52.599451
     -2.787788     23.532360     23.532360     47.064720
     -2.777778     20.859075     20.859075     41.718151
     -2.767768     18.563397     18.563397     37.126795
     -2.757758     16.897791     16.897791     33.795581
     -2.747748     15.972235     15.972235     31.944471
     -2.737738     15.731001     15.731001     31.462001
     -2.727728     16.025486     16.025486     32.050973
     -2.717718     16.726958     16.726958     33.453917
     -2.707708     17.796522     17.796522     35.593045
     -2.697698     19.260638     19.260638     38.521275
     -2.687688     21.110417     21.110417     42.220834
     -2.677678     23.203820     23.203820     46.407640
     -2.667668     25.255717     25.255717     50.511435
     -2.657658     26.942562     26.942562     53.885125
     -2.647648     28.064697     28.064697     56.129394
     -2.637638     28.661157     28.661157     57.322315
     -2.627628     28.997061     28.997061     57.994122
     -2.617618     29.425981     29.425981     58.851963
     -2.607608     30.209442     30.209442     60.418884
     -2.597598     31.395781     31.395781     62.791562
     -2.587588     32.811270     32.811270     65.622541
     -2.577578     34.140901     34.140901     68.281801
     -2.567568     35.033122     35.033122     70.066244
     -2.557558     35.177526     35.177526     70.355052
     -2.547548     34.351692     34.351692     68.703384
     -2.537538     32.464678     32.464678     64.929356
     -2.527528     29.612885     29.612885     59.225769
     -2.517518     26.125706     26.125706     52.251411
     -2.507508     22.554021     22.554021     45.108043
     -2.497497     19.570496     19.570496     39.140993
     -2.487487     17.797440     17.797440     35.594881
     -2.477477     17.622761     17.622761     35.245522
     -2.467467     19.078986     19.078986     38.157973
     -2.457457     21.838276     21.838276     43.676551
     -2.447447     25.330424     25.330424     50.660848
     -2.437437     28.940814     28.940814     57.881627
     -2.427427     32.209984     32.209984     64.419967
     -2.417417     34.951112     34.951112     69.902224
     -2.407407     37.232778     37.232778     74.465556
     -2.397397     39.233724     39.233724     78.467448
     -2.387387     41.039809     41.039809     82.079617
     -2.377377     42.489460     42.489460     84.978921
     -2.367367     43.159227     43.159227     86.318455
     -2.357357     42.515022     42.515022     85.030045
     -2.347347     40.166686     40.166686     80.333372
     -2.337337     36.101960     36.101960     72.203920
     -2.327327     30.780581     30.780581     61.561162
     -2.317317     25.040864     25.040864     50.081728
     -2.307307     19.866499     19.866499     39.732998
     -2.297297     16.121920     16.121920     32.243839
     -2.287287     14.359658     14.359658     28.719317
     -2.277277     14.748183     14.748183     29.496366
     -2.267267     17.106988     17.106988     34.213976
     -2.257257     21.001864     21.001864     42.003728
     -2.247247     25.853351     25.853351     51.706701
     -2.237237     31.029836     31.029836     62.059671
     -2.227227     35.916056     35.916056     71.832112
     -2.217217     39.960325     39.960325     79.920649
     -2.207207     42.710372     42.710372     85.420744
     -2.197197     43.849666     43.849666     87.699333
     -2.187187     43.241346     43.241346     86.482692
     -2.177177     40.972977     40.972977     81.945954
     -2.167167     37.376849     37.376849     74.753698
     -2.157157     32.991712     32.991712     65.983425
     -2.147147     28.448156     28.448156     56.896312
     -2.137137     24.300869     24.300869     48.601737
     -2.127127     20.873127     20.873127     41.746254
     -2.117117     18.188539     18.188539     36.377078
     -2.107107     16.027237     16.027237     32.054474
     -2.097097     14.078423     14.078423     28.156845
     -2.087087     12.110950     12.110950     24.221901
     -2.077077     10.081005     10.081005     20.162010
     -2.067067      8.138526      8.138526     16.277053
     -2.057057      6.549212      6.549212     13.098424
     -2.047047      5.581415      5.581415     11.162830
     -2.037037      5.405172      5.405172     10.810344
     -2.027027      6.028759      6.028759     12.057518
     -2.017017      7.279552      7.279552     14.559103
     -2.007007      8.830340      8.830340     17.660680
     -1.996997     10.271419     10.271419     20.542837
     -1.986987     11.219492     11.219492     22.438985
     -1.976977     11.435423     11.435423     22.870846
     -1.966967     10.908128     10.908128     21.816257
     -1.956957      9.867586      9.867586     19.735172
     -1.946947      8.717643      8.717643     17.435285
     -1.936937      7.913352      7.913352     15.826704
     -1.926927      7.827692      7.827692     15.655384
     -1.916917      8.650289      8.650289     17.300578
     -1.906907     10.343091     10.343091     20.686182
     -1.896897     12.657541     12.657541     25.315082
     -1.886887     15.202304     15.202304     30.404607
     -1.876877     17.541093     17.541093     35.082186
     -1.866867     19.295808     19.295808     38.591617
     -1.856857     20.231219     20.231219     40.462437
     -1.846847     20.302816     20.302816     40.605632
     -1.836837     19.656360     19.656360     39.312721
     -1.826827     18.575230     18.575230     37.150459
     -1.816817     17.383470     17.383470     34.766939
     -1.806807     16.330726     16.330726     32.661452
     -1.796797     15.502457     15.502457     31.004915
     -1.786787     14.798802     14.798802     29.597604
     -1.776777     13.998160     13.998160     27.996319
     -1.766767     12.877525     12.877525     25.755051
     -1.756757     11.329036     11.329036     22.658071
     -1.746747      9.415130      9.415130     18.830260
     -1.736737      7.342296      7.342296     14.684592
     -1.726727      5.379517      5.379517     10.759033
     -1.716717      3.771832      3.771832      7.543665
     -1.706707      2.689761      2.689761      5.379521
     -1.696697      2.223798      2.223798      4.447596
     -1.686687      2.403586      2.403586      4.807172
     -1.676677      3.211357      3.211357      6.422713
     -1.666667      4.571824      4.571824      9.143648
     -1.656657      6.325417      6.325417     12.650834
     -1.646647      8.212572      8.212572     16.425144
     -1.636637      9.899711      9.899711     19.799423
     -1.626627     11.058271     11.058271     22.116542
