# EIG2DOS: Utility for SIESTA to obtain the electronic density of states
#  E. Artacho, Apr 1999, A. Garcia, Apr 2012
#  Nick R. Papior, Feb 2017
# ------------------------------------------
# Eigenvalues calculated from a non-polarized calculation
# Eigenvalues read from siesta.EIG
# Kpoint weights read from siesta.KP
# Using smearing parameter:   0.0500
# Using 1000 points in the energy range
# Selected bands: 1 to: 2981
# Emin, Emax in file for selected band(s):    -27.0758866    218.3470100
# Nbands, Nspin, Nk   =   2981     1     1
# E_F                 =    -4.2567 eV --> (shifted to ZERO)
# Broadening          =     0.0500 eV
#
#        E            N(up)  (=)   N(down)         Ntot
     -5.000000     36.019132     36.019132     72.038264
     -4.989990     39.396358     39.396358     78.792716
     -4.979980     42.057011     42.057011     84.114022
     -4.969970     43.547831     43.547831     87.095661
     -4.959960     43.613042     43.613042     87.226085
     -4.949950     42.259113     42.259113     84.518227
     -4.939940     39.756771     39.756771     79.513542
     -4.929930     36.594063     36.594063     73.188126
     -4.919920     33.407947     33.407947     66.815893
     -4.909910     30.911126     30.911126     61.822251
     -4.899900     29.805135     29.805135     59.610271
     -4.889890     30.654818     30.654818     61.309635
     -4.879880     33.716893     33.716893     67.433785
     -4.869870     38.766176     38.766176     77.532352
     -4.859860     45.013121     45.013121     90.026241
     -4.849850     51.206991     51.206991    102.413981
     -4.839840     55.946461     55.946461    111.892922
     -4.829830     58.104672     58.104672    116.209343
     -4.819820     57.191719     57.191719    114.383438
     -4.809810     53.488466     53.488466    106.976932
     -4.799800     47.894778     47.894778     95.789556
     -4.789790     41.577354     41.577354     83.154707
     -4.779780     35.588871     35.588871     71.177742
     -4.769770     30.614496     30.614496     61.228992
     -4.759760     26.908839     26.908839     53.817679
     -4.749750     24.385696     24.385696     48.771393
     -4.739740     22.771864     22.771864     45.543728
     -4.729730     21.744972     21.744972     43.489945
     -4.719720     21.015512     21.015512     42.031024
     -4.709710     20.352929     20.352929     40.705858
     -4.699700     19.580150     19.580150     39.160299
     -4.689690     18.569108     18.569108     37.138215
     -4.679680     17.262344     17.262344     34.524687
     -4.669670     15.723825     15.723825     31.447649
     -4.659660     14.194903     14.194903     28.389806
     -4.649650     13.114662     13.114662     26.229324
     -4.639640     13.068952     13.068952     26.137904
     -4.629630     14.656896     14.656896     29.313792
     -4.619620     18.296609     18.296609     36.593218
     -4.609610     24.023602     24.023602     48.047204
     -4.599600     31.358221     31.358221     62.716443
     -4.589590     39.320077     39.320077     78.640154
     -4.579580     46.631844     46.631844     93.263687
     -4.569570     52.080021     52.080021    104.160042
     -4.559560     54.914610     54.914610    109.829220
     -4.549550     55.123992     55.123992    110.247984
     -4.539540     53.453819     53.453819    106.907639
     -4.529530     51.142847     51.142847    102.285693
     -4.519520     49.472624     49.472624     98.945249
     -4.509510     49.308563     49.308563     98.617126
     -4.499499     50.810090     50.810090    101.620181
     -4.489489     53.412456     53.412456    106.824913
     -4.479479     56.069666     56.069666    112.139333
     -4.469469     57.646548     57.646548    115.293096
     -4.459459     57.299697     57.299697    114.599393
     -4.449449     54.709993     54.709993    109.419986
     -4.439439     50.108865     50.108865    100.217730
     -4.429429     44.134417     44.134417     88.268833
     -4.419419     37.613846     37.613846     75.227692
     -4.409409     31.368922     31.368922     62.737844
     -4.399399     26.092876     26.092876     52.185751
     -4.389389     22.289634     22.289634     44.579268
     -4.379379     20.239320     20.239320     40.478639
     -4.369369     19.968865     19.968865     39.937731
     -4.359359     21.241456     21.241456     42.482912
     -4.349349     23.597831     23.597831     47.195662
     -4.339339     26.466532     26.466532     52.933064
     -4.329329     29.319580     29.319580     58.639161
     -4.319319     31.815895     31.815895     63.631791
     -4.309309     33.872978     33.872978     67.745956
     -4.299299     35.639158     35.639158     71.278316
     -4.289289     37.381756     37.381756     74.763512
     -4.279279     39.335559     39.335559     78.671118
     -4.269269     41.562658     41.562658     83.125316
     -4.259259     43.868350     43.868350     87.736700
     -4.249249     45.808163     45.808163     91.616325
     -4.239239     46.803607     46.803607     93.607214
     -4.229229     46.347461     46.347461     92.694922
     -4.219219     44.228130     44.228130     88.456261
     -4.209209     40.668744     40.668744     81.337488
     -4.199199     36.297011     36.297011     72.594023
     -4.189189     31.940932     31.940932     63.881864
     -4.179179     28.340175     28.340175     56.680350
     -4.169169     25.911240     25.911240     51.822479
     -4.159159     24.673720     24.673720     49.347440
     -4.149149     24.356397     24.356397     48.712793
     -4.139139     24.610884     24.610884     49.221769
     -4.129129     25.215328     25.215328     50.430656
     -4.119119     26.165516     26.165516     52.331033
     -4.109109     27.610685     27.610685     55.221369
     -4.099099     29.668874     29.668874     59.337747
     -4.089089     32.222340     32.222340     64.444681
     -4.079079     34.816746     34.816746     69.633491
     -4.069069     36.746978     36.746978     73.493957
     -4.059059     37.315411     37.315411     74.630822
     -4.049049     36.143953     36.143953     72.287907
     -4.039039     33.376663     33.376663     66.753325
     -4.029029     29.661895     29.661895     59.323790
     -4.019019     25.924181     25.924181     51.848363
     -4.009009     23.048597     23.048597     46.097194
     -3.998999     21.633166     21.633166     43.266332
     -3.988989     21.904231     21.904231     43.808462
     -3.978979     23.785318     23.785318     47.570637
     -3.968969     27.033588     27.033588     54.067175
     -3.958959     31.351954     31.351954     62.703909
     -3.948949     36.437567     36.437567     72.875134
     -3.938939     41.988551     41.988551     83.977102
     -3.928929     47.713527     47.713527     95.427054
     -3.918919     53.362627     53.362627    106.725253
     -3.908909     58.755545     58.755545    117.511090
     -3.898899     63.764451     63.764451    127.528902
     -3.888889     68.236083     68.236083    136.472167
     -3.878879     71.888865     71.888865    143.777729
     -3.868869     74.257257     74.257257    148.514513
     -3.858859     74.746669     74.746669    149.493338
     -3.848849     72.808465     72.808465    145.616930
     -3.838839     68.175450     68.175450    136.350900
     -3.828829     61.053695     61.053695    122.107389
     -3.818819     52.173810     52.173810    104.347621
     -3.808809     42.662475     42.662475     85.324950
     -3.798799     33.773263     33.773263     67.546527
     -3.788789     26.573928     26.573928     53.147857
     -3.778779     21.698174     21.698174     43.396348
     -3.768769     19.235071     19.235071     38.470143
     -3.758759     18.773207     18.773207     37.546413
     -3.748749     19.567899     19.567899     39.135798
     -3.738739     20.773705     20.773705     41.547411
     -3.728729     21.679917     21.679917     43.359833
     -3.718719     21.894880     21.894880     43.789760
     -3.708709     21.438426     21.438426     42.876852
     -3.698699     20.718926     20.718926     41.437852
     -3.688689     20.394548     20.394548     40.789096
     -3.678679     21.148027     21.148027     42.296053
     -3.668669     23.435836     23.435836     46.871671
     -3.658659     27.293513     27.293513     54.587027
     -3.648649     32.273031     32.273031     64.546063
     -3.638639     37.546698     37.546698     75.093396
     -3.628629     42.145705     42.145705     84.291411
     -3.618619     45.241524     45.241524     90.483049
     -3.608609     46.360683     46.360683     92.721366
     -3.598599     45.461388     45.461388     90.922777
     -3.588589     42.870417     42.870417     85.740835
     -3.578579     39.135841     39.135841     78.271682
     -3.568569     34.864376     34.864376     69.728751
     -3.558559     30.587685     30.587685     61.175369
     -3.548549     26.671995     26.671995     53.343990
     -3.538539     23.274616     23.274616     46.549232
     -3.528529     20.354931     20.354931     40.709862
     -3.518519     17.744107     17.744107     35.488213
     -3.508509     15.256170     15.256170     30.512340
     -3.498498     12.797503     12.797503     25.595006
     -3.488488     10.426649     10.426649     20.853299
     -3.478478      8.340184      8.340184     16.680367
     -3.468468      6.797035      6.797035     13.594069
     -3.458458      6.018166      6.018166     12.036331
     -3.448448      6.099820      6.099820     12.199641
     -3.438438      6.965392      6.965392     13.930784
     -3.428428      8.368034      8.368034     16.736068
     -3.418418      9.947845      9.947845     19.895691
     -3.408408     11.336623     11.336623     22.673246
     -3.398398     12.284324     12.284324     24.568648
     -3.388388     12.762355     12.762355     25.524711
     -3.378378     12.996754     12.996754     25.993508
     -3.368368     13.408813     13.408813     26.817626
     -3.358358     14.481097     14.481097     28.962195
     -3.348348     16.598230     16.598230     33.196459
     -3.338338     19.915100     19.915100     39.830201
     -3.328328     24.283487     24.283487     48.566974
     -3.318318     29.243315     29.243315     58.486629
     -3.308308     34.076349     34.076349     68.152698
     -3.298298     37.925115     37.925115     75.850231
     -3.288288     39.976043     39.976043     79.952086
     -3.278278     39.676875     39.676875     79.353750
     -3.268268     36.917935     36.917935     73.835869
     -3.258258     32.092800     32.092800     64.185601
     -3.248248     25.993587     25.993587     51.987175
     -3.238238     19.574432     19.574432     39.148864
     -3.228228     13.683287     13.683287     27.366575
     -3.218218      8.871608      8.871608     17.743217
     -3.208208      5.341212      5.341212     10.682424
     -3.198198      3.016101      3.016101      6.032201
     -3.188188      1.679540      1.679540      3.359080
     -3.178178      1.112069      1.112069      2.224138
     -3.168168      1.190836      1.190836      2.381672
     -3.158158      1.938124      1.938124      3.876247
     -3.148148      3.519587      3.519587      7.039173
     -3.138138      6.191686      6.191686     12.383373
     -3.128128     10.197100     10.197100     20.394200
     -3.118118     15.620350     15.620350     31.240700
     -3.108108     22.244497     22.244497     44.488994
     -3.098098     29.476524     29.476524     58.953047
     -3.088088     36.407192     36.407192     72.814383
     -3.078078     42.024156     42.024156     84.048313
     -3.068068     45.517970     45.517970     91.035941
     -3.058058     46.553347     46.553347     93.106695
     -3.048048     45.372036     45.372036     90.744072
     -3.038038     42.666386     42.666386     85.332772
     -3.028028     39.279701     39.279701     78.559401
     -3.018018     35.881834     35.881834     71.763668
     -3.008008     32.778488     32.778488     65.556975
     -2.997998     29.934000     29.934000     59.868000
     -2.987988     27.169467     27.169467     54.338935
     -2.977978     24.411035     24.411035     48.822069
     -2.967968     21.851856     21.851856     43.703711
     -2.957958     19.950606     19.950606     39.901213
     -2.947948     19.276434     19.276434     38.552868
     -2.937938     20.277258     20.277258     40.554515
     -2.927928     23.071009     23.071009     46.142019
     -2.917918     27.341189     27.341189     54.682379
     -2.907908     32.376431     32.376431     64.752863
     -2.897898     37.244893     37.244893     74.489787
     -2.887888     41.049100     41.049100     82.098199
     -2.877878     43.175946     43.175946     86.351892
     -2.867868     43.452373     43.452373     86.904745
     -2.857858     42.147877     42.147877     84.295755
     -2.847848     39.824478     39.824478     79.648957
     -2.837838     37.099285     37.099285     74.198571
     -2.827828     34.423080     34.423080     68.846159
     -2.817818     31.968309     31.968309     63.936618
     -2.807808     29.664140     29.664140     59.328280
     -2.797798     27.342375     27.342375     54.684750
     -2.787788     24.905174     24.905174     49.810347
     -2.777778     22.421903     22.421903     44.843806
     -2.767768     20.109388     20.109388     40.218776
     -2.757758     18.219991     18.219991     36.439983
     -2.747748     16.914639     16.914639     33.829277
     -2.737738     16.202148     16.202148     32.404297
     -2.727728     15.979477     15.979477     31.958954
     -2.717718     16.138853     16.138853     32.277706
     -2.707708     16.661684     16.661684     33.323368
     -2.697698     17.627478     17.627478     35.254957
     -2.687688     19.125753     19.125753     38.251506
     -2.677678     21.130804     21.130804     42.261608
     -2.667668     23.432735     23.432735     46.865470
     -2.657658     25.686166     25.686166     51.372331
     -2.647648     27.559010     27.559010     55.118021
     -2.637638     28.891673     28.891673     57.783346
     -2.627628     29.764692     29.764692     59.529385
     -2.617618     30.431584     30.431584     60.863169
     -2.607608     31.161993     31.161993     62.323985
     -2.597598     32.093902     32.093902     64.187805
     -2.587588     33.175396     33.175396     66.350792
     -2.577578     34.205975     34.205975     68.411950
     -2.567568     34.924105     34.924105     69.848210
     -2.557558     35.079073     35.079073     70.158145
     -2.547548     34.467848     34.467848     68.935697
     -2.537538     32.963768     32.963768     65.927535
     -2.527528     30.568134     30.568134     61.136267
     -2.517518     27.476860     27.476860     54.953721
     -2.507508     24.112427     24.112427     48.224853
     -2.497497     21.069304     21.069304     42.138608
     -2.487487     18.965197     18.965197     37.930394
     -2.477477     18.249232     18.249232     36.498463
     -2.467467     19.050950     19.050950     38.101899
     -2.457457     21.141040     21.141040     42.282079
     -2.447447     24.025538     24.025538     48.051076
     -2.437437     27.135694     27.135694     54.271388
     -2.427427     30.032823     30.032823     60.065646
     -2.417417     32.539288     32.539288     65.078576
     -2.407407     34.737434     34.737434     69.474867
     -2.397397     36.836379     36.836379     73.672758
     -2.387387     38.968235     38.968235     77.936470
     -2.377377     41.013404     41.013404     82.026808
     -2.367367     42.549545     42.549545     85.099090
     -2.357357     42.967171     42.967171     85.934342
     -2.347347     41.714950     41.714950     83.429900
     -2.337337     38.567239     38.567239     77.134477
     -2.327327     33.786332     33.786332     67.572663
     -2.317317     28.099763     28.099763     56.199527
     -2.307307     22.504161     22.504161     45.008322
     -2.297297     17.987275     17.987275     35.974550
     -2.287287     15.283176     15.283176     30.566352
     -2.277277     14.738016     14.738016     29.476033
     -2.267267     16.300084     16.300084     32.600168
     -2.257257     19.599688     19.599688     39.199376
     -2.247247     24.069477     24.069477     48.138954
     -2.237237     29.064883     29.064883     58.129766
     -2.227227     33.960014     33.960014     67.920028
     -2.217217     38.208015     38.208015     76.416030
     -2.207207     41.368279     41.368279     82.736558
     -2.197197     43.116657     43.116657     86.233313
     -2.187187     43.261842     43.261842     86.523683
     -2.177177     41.781353     41.781353     83.562705
     -2.167167     38.863938     38.863938     77.727877
     -2.157157     34.919077     34.919077     69.838154
     -2.147147     30.513451     30.513451     61.026903
     -2.137137     26.229836     26.229836     52.459671
     -2.127127     22.497175     22.497175     44.994349
     -2.117117     19.472733     19.472733     38.945467
     -2.107107     17.038987     17.038987     34.077973
     -2.097097     14.916376     14.916376     29.832753
     -2.087087     12.828787     12.828787     25.657574
     -2.077077     10.634737     10.634737     21.269474
     -2.067067      8.366786      8.366786     16.733572
     -2.057057      6.179859      6.179859     12.359719
     -2.047047      4.255809      4.255809      8.511618
     -2.037037      2.721248      2.721248      5.442496
     -2.027027      1.612217      1.612217      3.224433
     -2.017017      0.885749      0.885749      1.771497
     -2.007007      0.456942      0.456942      0.913884
     -1.996997      0.237885      0.237885      0.475770
     -1.986987      0.165104      0.165104      0.330207
     -1.976977      0.213857      0.213857      0.427714
     -1.966967      0.403378      0.403378      0.806757
     -1.956957      0.796044      0.796044      1.592089
     -1.946947      1.488944      1.488944      2.977888
     -1.936937      2.593197      2.593197      5.186394
     -1.926927      4.198583      4.198583      8.397166
     -1.916917      6.329120      6.329120     12.658240
     -1.906907      8.905066      8.905066     17.810132
     -1.896897     11.730885     11.730885     23.461771
     -1.886887     14.521508     14.521508     29.043015
     -1.876877     16.962838     16.962838     33.925675
     -1.866867     18.786958     18.786958     37.573917
     -1.856857     19.837408     19.837408     39.674816
     -1.846847     20.106237     20.106237     40.212473
     -1.836837     19.734520     19.734520     39.469040
     -1.826827     18.975183     18.975183     37.950366
     -1.816817     18.123541     18.123541     36.247082
     -1.806807     17.432418     17.432418     34.864837
     -1.796797     17.041846     17.041846     34.083692
     -1.786787     16.954297     16.954297     33.908594
     -1.776777     17.065434     17.065434     34.130867
     -1.766767     17.227419     17.227419     34.454837
     -1.756757     17.303162     17.303162     34.606324
     -1.746747     17.183554     17.183554     34.367108
     -1.736737     16.775733     16.775733     33.551466
     -1.726727     15.996943     15.996943     31.993887
     -1.716717     14.801332     14.801332     29.602665
     -1.706707     13.232448     13.232448     26.464895
     -1.696697     11.463039     11.463039     22.926078
     -1.686687      9.782601      9.782601     19.565203
     -1.676677      8.522041      8.522041     17.044082
     -1.666667      7.941384      7.941384     15.882768
     -1.656657      8.127266      8.127266     16.254533
     -1.646647      8.944161      8.944161     17.888323
     -1.636637     10.063170     10.063170     20.126339
     -1.626627     11.064308     11.064308     22.128616
