# EIG2DOS: Utility for SIESTA to obtain the electronic density of states
#  E. Artacho, Apr 1999, A. Garcia, Apr 2012
#  Nick R. Papior, Feb 2017
# ------------------------------------------
# Eigenvalues calculated from a non-polarized calculation
# Eigenvalues read from siesta.EIG
# Kpoint weights read from siesta.KP
# Using smearing parameter:   0.0500
# Using 1000 points in the energy range
# Selected bands: 1 to: 2981
# Emin, Emax in file for selected band(s):    -27.1995040    218.3881670
# Nbands, Nspin, Nk   =   2981     1     1
# E_F                 =    -4.2078 eV --> (shifted to ZERO)
# Broadening          =     0.0500 eV
#
#        E            N(up)  (=)   N(down)         Ntot
     -5.000000     35.200170     35.200170     70.400339
     -4.989990     39.582654     39.582654     79.165309
     -4.979980     43.140513     43.140513     86.281026
     -4.969970     45.266497     45.266497     90.532994
     -4.959960     45.591903     45.591903     91.183806
     -4.949950     44.108743     44.108743     88.217487
     -4.939940     41.179919     41.179919     82.359837
     -4.929930     37.454163     37.454163     74.908327
     -4.919920     33.737476     33.737476     67.474952
     -4.909910     30.865073     30.865073     61.730147
     -4.899900     29.581908     29.581908     59.163817
     -4.889890     30.412516     30.412516     60.825032
     -4.879880     33.512589     33.512589     67.025179
     -4.869870     38.541044     38.541044     77.082088
     -4.859860     44.632610     44.632610     89.265220
     -4.849850     50.541571     50.541571    101.083143
     -4.839840     54.955141     54.955141    109.910282
     -4.829830     56.877778     56.877778    113.755556
     -4.819820     55.929807     55.929807    111.859615
     -4.809810     52.429776     52.429776    104.859552
     -4.799800     47.230536     47.230536     94.461072
     -4.789790     41.395032     41.395032     82.790065
     -4.779780     35.861180     35.861180     71.722361
     -4.769770     31.225479     31.225479     62.450958
     -4.759760     27.695906     27.695906     55.391811
     -4.749750     25.180709     25.180709     50.361417
     -4.739740     23.435228     23.435228     46.870456
     -4.729730     22.193030     22.193030     44.386060
     -4.719720     21.241434     21.241434     42.482868
     -4.709710     20.440283     20.440283     40.880566
     -4.699700     19.710456     19.710456     39.420912
     -4.689690     19.026882     19.026882     38.053765
     -4.679680     18.437031     18.437031     36.874062
     -4.669670     18.096884     18.096884     36.193767
     -4.659660     18.290865     18.290865     36.581731
     -4.649650     19.399680     19.399680     38.799360
     -4.639640     21.804044     21.804044     43.608087
     -4.629630     25.746343     25.746343     51.492687
     -4.619620     31.194999     31.194999     62.389998
     -4.609610     37.759856     37.759856     75.519713
     -4.599600     44.697630     44.697630     89.395259
     -4.589590     51.029628     51.029628    102.059257
     -4.579580     55.765364     55.765364    111.530728
     -4.569570     58.181928     58.181928    116.363856
     -4.559560     58.065739     58.065739    116.131478
     -4.549550     55.812100     55.812100    111.624199
     -4.539540     52.321013     52.321013    104.642027
     -4.529530     48.712047     48.712047     97.424093
     -4.519520     45.962793     45.962793     91.925587
     -4.509510     44.609634     44.609634     89.219268
     -4.499499     44.619583     44.619583     89.239166
     -4.489489     45.466738     45.466738     90.933476
     -4.479479     46.364440     46.364440     92.728879
     -4.469469     46.550810     46.550810     93.101621
     -4.459459     45.519701     45.519701     91.039401
     -4.449449     43.127808     43.127808     86.255615
     -4.439439     39.570018     39.570018     79.140036
     -4.429429     35.268834     35.268834     70.537667
     -4.419419     30.745495     30.745495     61.490991
     -4.409409     26.523147     26.523147     53.046295
     -4.399399     23.071722     23.071722     46.143445
     -4.389389     20.770017     20.770017     41.540035
     -4.379379     19.857136     19.857136     39.714271
     -4.369369     20.373394     20.373394     40.746789
     -4.359359     22.124557     22.124557     44.249114
     -4.349349     24.711590     24.711590     49.423180
     -4.339339     27.639492     27.639492     55.278983
     -4.329329     30.471382     30.471382     60.942764
     -4.319319     32.961607     32.961607     65.923215
     -4.309309     35.106840     35.106840     70.213681
     -4.299299     37.092559     37.092559     74.185118
     -4.289289     39.158841     39.158841     78.317682
     -4.279279     41.439925     41.439925     82.879850
     -4.269269     43.838979     43.838979     87.677958
     -4.259259     45.989095     45.989095     91.978190
     -4.249249     47.329030     47.329030     94.658059
     -4.239239     47.285849     47.285849     94.571697
     -4.229229     45.508624     45.508624     91.017249
     -4.219219     42.057312     42.057312     84.114625
     -4.209209     37.450226     37.450226     74.900451
     -4.199199     32.528443     32.528443     65.056885
     -4.189189     28.184448     28.184448     56.368895
     -4.179179     25.073990     25.073990     50.147980
     -4.169169     23.439531     23.439531     46.879062
     -4.159159     23.115280     23.115280     46.230560
     -4.149149     23.693537     23.693537     47.387075
     -4.139139     24.759249     24.759249     49.518498
     -4.129129     26.076282     26.076282     52.152564
     -4.119119     27.638670     27.638670     55.277339
     -4.109109     29.566583     29.566583     59.133166
     -4.099099     31.904286     31.904286     63.808573
     -4.089089     34.434587     34.434587     68.869173
     -4.079079     36.629355     36.629355     73.258711
     -4.069069     37.793316     37.793316     75.586633
     -4.059059     37.351041     37.351041     74.702083
     -4.049049     35.135330     35.135330     70.270661
     -4.039039     31.521397     31.521397     63.042794
     -4.029029     27.331441     27.331441     54.662881
     -4.019019     23.559477     23.559477     47.118955
     -4.009009     21.056592     21.056592     42.113183
     -3.998999     20.319158     20.319158     40.638316
     -3.988989     21.446413     21.446413     42.892825
     -3.978979     24.236796     24.236796     48.473593
     -3.968969     28.335655     28.335655     56.671310
     -3.958959     33.354390     33.354390     66.708780
     -3.948949     38.931543     38.931543     77.863087
     -3.938939     44.754311     44.754311     89.508623
     -3.928929     50.570681     50.570681    101.141361
     -3.918919     56.198698     56.198698    112.397396
     -3.908909     61.511686     61.511686    123.023373
     -3.898899     66.378981     66.378981    132.757963
     -3.888889     70.575369     70.575369    141.150737
     -3.878879     73.711389     73.711389    147.422777
     -3.868869     75.245886     75.245886    150.491771
     -3.858859     74.608326     74.608326    149.216651
     -3.848849     71.399798     71.399798    142.799596
     -3.838839     65.593243     65.593243    131.186487
     -3.828829     57.643152     57.643152    115.286304
     -3.818819     48.447896     48.447896     96.895791
     -3.808809     39.166762     39.166762     78.333523
     -3.798799     30.950327     30.950327     61.900653
     -3.788789     24.672563     24.672563     49.345125
     -3.778779     20.746685     20.746685     41.493369
     -3.768769     19.072211     19.072211     38.144422
     -3.758759     19.116429     19.116429     38.232859
     -3.748749     20.096828     20.096828     40.193657
     -3.738739     21.210713     21.210713     42.421426
     -3.728729     21.853785     21.853785     43.707571
     -3.718719     21.776227     21.776227     43.552454
     -3.708709     21.138814     21.138814     42.277628
     -3.698699     20.451614     20.451614     40.903227
     -3.688689     20.404115     20.404115     40.808230
     -3.678679     21.626716     21.626716     43.253433
     -3.668669     24.452159     24.452159     48.904318
     -3.658659     28.758395     28.758395     57.516791
     -3.648649     33.957564     33.957564     67.915128
     -3.638639     39.145986     39.145986     78.291972
     -3.628629     43.364227     43.364227     86.728454
     -3.618619     45.867554     45.867554     91.735109
     -3.608609     46.305631     46.305631     92.611263
     -3.598599     44.758862     44.758862     89.517725
     -3.588589     41.646955     41.646955     83.293911
     -3.578579     37.570894     37.570894     75.141788
     -3.568569     33.151643     33.151643     66.303286
     -3.558559     28.901930     28.901930     57.803860
     -3.548549     25.142749     25.142749     50.285498
     -3.538539     21.970667     21.970667     43.941334
     -3.528529     19.285027     19.285027     38.570054
     -3.518519     16.875011     16.875011     33.750021
     -3.508509     14.541039     14.541039     29.082077
     -3.498498     12.202052     12.202052     24.404105
     -3.488488      9.942372      9.942372     19.884744
     -3.478478      7.981521      7.981521     15.963041
     -3.468468      6.587199      6.587199     13.174397
     -3.458458      5.971742      5.971742     11.943483
     -3.448448      6.209177      6.209177     12.418353
     -3.438438      7.195222      7.195222     14.390444
     -3.428428      8.660207      8.660207     17.320414
     -3.418418     10.236792     10.236792     20.473585
     -3.408408     11.572334     11.572334     23.144668
     -3.398398     12.455997     12.455997     24.911995
     -3.388388     12.913602     12.913602     25.827204
     -3.378378     13.225704     13.225704     26.451409
     -3.368368     13.853023     13.853023     27.706046
     -3.358358     15.293914     15.293914     30.587828
     -3.348348     17.925853     17.925853     35.851706
     -3.338338     21.881141     21.881141     43.762282
     -3.328328     26.983317     26.983317     53.966635
     -3.318318     32.747360     32.747360     65.494720
     -3.308308     38.439548     38.439548     76.879097
     -3.298298     43.196219     43.196219     86.392437
     -3.288288     46.195065     46.195065     92.390131
     -3.278278     46.848290     46.848290     93.696580
     -3.268268     44.958794     44.958794     89.917587
     -3.258258     40.777155     40.777155     81.554311
     -3.248248     34.931666     34.931666     69.863333
     -3.238238     28.258635     28.258635     56.517270
     -3.228228     21.600939     21.600939     43.201878
     -3.218218     15.646380     15.646380     31.292761
     -3.208208     10.847986     10.847986     21.695972
     -3.198198      7.428163      7.428163     14.856326
     -3.188188      5.438417      5.438417     10.876835
     -3.178178      4.834932      4.834932      9.669864
     -3.168168      5.536179      5.536179     11.072359
     -3.158158      7.445754      7.445754     14.891507
     -3.148148     10.443416     10.443416     20.886831
     -3.138138     14.360758     14.360758     28.721515
     -3.128128     18.959093     18.959093     37.918185
     -3.118118     23.918798     23.918798     47.837596
     -3.108108     28.841693     28.841693     57.683385
     -3.098098     33.269614     33.269614     66.539228
     -3.088088     36.729367     36.729367     73.458733
     -3.078078     38.812122     38.812122     77.624245
     -3.068068     39.274549     39.274549     78.549097
     -3.058058     38.120271     38.120271     76.240542
     -3.048048     35.610975     35.610975     71.221949
     -3.038038     32.185218     32.185218     64.370437
     -3.028028     28.317312     28.317312     56.634625
     -3.018018     24.389242     24.389242     48.778485
     -3.008008     20.642117     20.642117     41.284233
     -2.997998     17.222322     17.222322     34.444643
     -2.987988     14.278806     14.278806     28.557611
     -2.977978     12.042166     12.042166     24.084331
     -2.967968     10.835083     10.835083     21.670165
     -2.957958     11.006112     11.006112     22.012224
     -2.947948     12.814743     12.814743     25.629486
     -2.937938     16.310528     16.310528     32.621057
     -2.927928     21.247839     21.247839     42.495678
     -2.917918     27.070058     27.070058     54.140115
     -2.907908     32.984013     32.984013     65.968026
     -2.897898     38.121701     38.121701     76.243403
     -2.887888     41.752053     41.752053     83.504105
     -2.877878     43.473992     43.473992     86.947984
     -2.867868     43.314204     43.314204     86.628408
     -2.857858     41.682080     41.682080     83.364160
     -2.847848     39.193388     39.193388     78.386776
     -2.837838     36.435794     36.435794     72.871589
     -2.827828     33.779352     33.779352     67.558704
     -2.817818     31.313357     31.313357     62.626714
     -2.807808     28.925997     28.925997     57.851993
     -2.797798     26.469646     26.469646     52.939292
     -2.787788     23.913880     23.913880     47.827761
     -2.777778     21.403183     21.403183     42.806366
     -2.767768     19.197290     19.197290     38.394579
     -2.757758     17.542367     17.542367     35.084734
     -2.747748     16.558907     16.558907     33.117814
     -2.737738     16.215071     16.215071     32.430143
     -2.727728     16.393677     16.393677     32.787354
     -2.717718     16.996421     16.996421     33.992841
     -2.707708     18.003983     18.003983     36.007967
     -2.697698     19.444305     19.444305     38.888610
     -2.687688     21.292189     21.292189     42.584379
     -2.677678     23.381243     23.381243     46.762486
     -2.667668     25.409075     25.409075     50.818151
     -2.657658     27.053803     27.053803     54.107606
     -2.647648     28.136932     28.136932     56.273863
     -2.637638     28.726043     28.726043     57.452086
     -2.627628     29.104145     29.104145     58.208290
     -2.617618     29.619003     29.619003     59.238006
     -2.607608     30.502512     30.502512     61.005023
     -2.597598     31.762162     31.762162     63.524323
     -2.587588     33.189753     33.189753     66.379507
     -2.577578     34.455129     34.455129     68.910259
     -2.567568     35.214080     35.214080     70.428160
     -2.557558     35.181082     35.181082     70.362164
     -2.547548     34.168575     34.168575     68.337150
     -2.537538     32.124286     32.124286     64.248573
     -2.527528     29.182125     29.182125     58.364249
     -2.517518     25.701293     25.701293     51.402586
     -2.507508     22.245418     22.245418     44.490835
     -2.497497     19.473379     19.473379     38.946759
     -2.487487     17.963204     17.963204     35.926409
     -2.477477     18.034465     18.034465     36.068930
     -2.467467     19.644904     19.644904     39.289809
     -2.457457     22.409254     22.409254     44.818508
     -2.447447     25.738087     25.738087     51.476173
     -2.437437     29.044392     29.044392     58.088783
     -2.427427     31.935277     31.935277     63.870555
     -2.417417     34.308519     34.308519     68.617038
     -2.407407     36.310491     36.310491     72.620983
     -2.397397     38.171530     38.171530     76.343060
     -2.387387     39.993614     39.993614     79.987229
     -2.377377     41.596268     41.596268     83.192536
     -2.367367     42.509735     42.509735     85.019469
     -2.357357     42.138929     42.138929     84.277858
     -2.347347     40.033690     40.033690     80.067380
     -2.337337     36.137719     36.137719     72.275438
     -2.327327     30.891933     30.891933     61.783866
     -2.317317     25.141388     25.141388     50.282777
     -2.307307     19.894596     19.894596     39.789192
     -2.297297     16.048330     16.048330     32.096660
     -2.287287     14.186141     14.186141     28.372283
     -2.277277     14.500936     14.500936     29.001873
     -2.267267     16.827427     16.827427     33.654853
     -2.257257     20.735989     20.735989     41.471978
     -2.247247     25.641072     25.641072     51.282144
     -2.237237     30.896770     30.896770     61.793541
     -2.227227     35.870559     35.870559     71.741118
     -2.217217     39.996642     39.996642     79.993284
     -2.207207     42.815859     42.815859     85.631719
     -2.197197     44.012130     44.012130     88.024259
     -2.187187     43.453015     43.453015     86.906030
     -2.177177     41.229903     41.229903     82.459806
     -2.167167     37.674911     37.674911     75.349821
     -2.157157     33.321705     33.321705     66.643411
     -2.147147     28.792392     28.792392     57.584783
     -2.137137     24.632877     24.632877     49.265755
     -2.127127     21.160866     21.160866     42.321732
     -2.117117     18.399967     18.399967     36.799934
     -2.107107     16.135334     16.135334     32.270667
     -2.097097     14.061210     14.061210     28.122419
     -2.087087     11.941937     11.941937     23.883873
     -2.077077      9.707737      9.707737     19.415474
     -2.067067      7.451913      7.451913     14.903826
     -2.057057      5.353285      5.353285     10.706569
     -2.047047      3.580122      3.580122      7.160243
     -2.037037      2.225921      2.225921      4.451842
     -2.027027      1.296887      1.296887      2.593775
     -2.017017      0.740620      0.740620      1.481240
     -2.007007      0.491747      0.491747      0.983494
     -1.996997      0.513275      0.513275      1.026550
     -1.986987      0.822320      0.822320      1.644639
     -1.976977      1.496100      1.496100      2.992200
     -1.966967      2.656178      2.656178      5.312355
     -1.956957      4.429892      4.429892      8.859785
     -1.946947      6.893265      6.893265     13.786530
     -1.936937     10.010261     10.010261     20.020521
     -1.926927     13.593413     13.593413     27.186826
     -1.916917     17.310767     17.310767     34.621535
     -1.906907     20.748228     20.748228     41.496457
     -1.896897     23.509839     23.509839     47.019679
     -1.886887     25.316882     25.316882     50.633764
     -1.876877     26.065708     26.065708     52.131417
     -1.866867     25.826779     25.826779     51.653557
     -1.856857     24.798622     24.798622     49.597244
     -1.846847     23.247990     23.247990     46.495981
     -1.836837     21.459757     21.459757     42.919513
     -1.826827     19.697481     19.697481     39.394962
     -1.816817     18.161678     18.161678     36.323357
     -1.806807     16.942472     16.942472     33.884944
     -1.796797     15.986935     15.986935     31.973870
     -1.786787     15.112668     15.112668     30.225335
     -1.776777     14.080613     14.080613     28.161226
     -1.766767     12.701884     12.701884     25.403768
     -1.756757     10.925992     10.925992     21.851984
     -1.746747      8.865142      8.865142     17.730284
     -1.736737      6.747075      6.747075     13.494149
     -1.726727      4.829426      4.829426      9.658852
     -1.716717      3.323955      3.323955      6.647909
     -1.706707      2.362772      2.362772      4.725543
     -1.696697      2.006581      2.006581      4.013161
     -1.686687      2.269694      2.269694      4.539388
     -1.676677      3.132038      3.132038      6.264076
     -1.666667      4.523927      4.523927      9.047855
     -1.656657      6.294044      6.294044     12.588088
     -1.646647      8.190131      8.190131     16.380261
     -1.636637      9.883189      9.883189     19.766377
     -1.626627     11.045959     11.045959     22.091917
