# EIG2DOS: Utility for SIESTA to obtain the electronic density of states
#  E. Artacho, Apr 1999, A. Garcia, Apr 2012
#  Nick R. Papior, Feb 2017
# ------------------------------------------
# Eigenvalues calculated from a non-polarized calculation
# Eigenvalues read from siesta.EIG
# Kpoint weights read from siesta.KP
# Using smearing parameter:   0.0500
# Using 1000 points in the energy range
# Selected bands: 1 to: 2981
# Emin, Emax in file for selected band(s):    -27.0593803    218.3304150
# Nbands, Nspin, Nk   =   2981     1     1
# E_F                 =    -4.2763 eV --> (shifted to ZERO)
# Broadening          =     0.0500 eV
#
#        E            N(up)  (=)   N(down)         Ntot
     -5.000000     37.164358     37.164358     74.328715
     -4.989990     39.604346     39.604346     79.208691
     -4.979980     41.853202     41.853202     83.706403
     -4.969970     43.417297     43.417297     86.834594
     -4.959960     43.880778     43.880778     87.761557
     -4.949950     43.042545     43.042545     86.085090
     -4.939940     40.982788     40.982788     81.965576
     -4.929930     38.054925     38.054925     76.109850
     -4.919920     34.827511     34.827511     69.655022
     -4.909910     32.003839     32.003839     64.007679
     -4.899900     30.326553     30.326553     60.653106
     -4.889890     30.451527     30.451527     60.903055
     -4.879880     32.777535     32.777535     65.555069
     -4.869870     37.257842     37.257842     74.515684
     -4.859860     43.274574     43.274574     86.549148
     -4.849850     49.678014     49.678014     99.356027
     -4.839840     55.043122     55.043122    110.086245
     -4.829830     58.085712     58.085712    116.171423
     -4.819820     58.075677     58.075677    116.151354
     -4.809810     55.060691     55.060691    110.121382
     -4.799800     49.798808     49.798808     99.597616
     -4.789790     43.444753     43.444753     86.889506
     -4.779780     37.150019     37.150019     74.300037
     -4.769770     31.752834     31.752834     63.505667
     -4.759760     27.654430     27.654430     55.308861
     -4.749750     24.868237     24.868237     49.736475
     -4.739740     23.159135     23.159135     46.318270
     -4.729730     22.186179     22.186179     44.372358
     -4.719720     21.600929     21.600929     43.201858
     -4.709710     21.096176     21.096176     42.192352
     -4.699700     20.424567     20.424567     40.849135
     -4.689690     19.412262     19.412262     38.824524
     -4.679680     17.985312     17.985312     35.970624
     -4.669670     16.210549     16.210549     32.421098
     -4.659660     14.334439     14.334439     28.668878
     -4.649650     12.792195     12.792195     25.584391
     -4.639640     12.162406     12.162406     24.324812
     -4.629630     13.057526     13.057526     26.115053
     -4.619620     15.960762     15.960762     31.921525
     -4.609610     21.041355     21.041355     42.082710
     -4.599600     28.002731     28.002731     56.005463
     -4.589590     36.033950     36.033950     72.067900
     -4.579580     43.925397     43.925397     87.850795
     -4.569570     50.358521     50.358521    100.717043
     -4.559560     54.296618     54.296618    108.593236
     -4.549550     55.332484     55.332484    110.664969
     -4.539540     53.840203     53.840203    107.680406
     -4.529530     50.851397     50.851397    101.702794
     -4.519520     47.697828     47.697828     95.395657
     -4.509510     45.565798     45.565798     91.131595
     -4.499499     45.137705     45.137705     90.275411
     -4.489489     46.441837     46.441837     92.883673
     -4.479479     48.930092     48.930092     97.860184
     -4.469469     51.712494     51.712494    103.424988
     -4.459459     53.838604     53.838604    107.677208
     -4.449449     54.534406     54.534406    109.068812
     -4.439439     53.351615     53.351615    106.703230
     -4.429429     50.229205     50.229205    100.458410
     -4.419419     45.484558     45.484558     90.969115
     -4.409409     39.747744     39.747744     79.495488
     -4.399399     33.844326     33.844326     67.688651
     -4.389389     28.634457     28.634457     57.268914
     -4.379379     24.831586     24.831586     49.663173
     -4.369369     22.843250     22.843250     45.686500
     -4.359359     22.684614     22.684614     45.369228
     -4.349349     24.001347     24.001347     48.002693
     -4.339339     26.202364     26.202364     52.404729
     -4.329329     28.659362     28.659362     57.318724
     -4.319319     30.901145     30.901145     61.802291
     -4.309309     32.733280     32.733280     65.466560
     -4.299299     34.246334     34.246334     68.492669
     -4.289289     35.720130     35.720130     71.440260
     -4.279279     37.464594     37.464594     74.929187
     -4.269269     39.650734     39.650734     79.301467
     -4.259259     42.184312     42.184312     84.368625
     -4.249249     44.668594     44.668594     89.337188
     -4.239239     46.487311     46.487311     92.974622
     -4.229229     47.002756     47.002756     94.005513
     -4.219219     45.807799     45.807799     91.615599
     -4.209209     42.923561     42.923561     85.847122
     -4.199199     38.837804     38.837804     77.675609
     -4.189189     34.348683     34.348683     68.697365
     -4.179179     30.280687     30.280687     60.561375
     -4.169169     27.209548     27.209548     54.419096
     -4.159159     25.323997     25.323997     50.647994
     -4.149149     24.472607     24.472607     48.945214
     -4.139139     24.346464     24.346464     48.692929
     -4.129129     24.688935     24.688935     49.377869
     -4.119119     25.424651     25.424651     50.849302
     -4.109109     26.648678     26.648678     53.297355
     -4.099099     28.486494     28.486494     56.972987
     -4.089089     30.900292     30.900292     61.800585
     -4.079079     33.552826     33.552826     67.105652
     -4.069069     35.824392     35.824392     71.648784
     -4.059059     37.005925     37.005925     74.011849
     -4.049049     36.591044     36.591044     73.182088
     -4.039039     34.521345     34.521345     69.042689
     -4.029029     31.252700     31.252700     62.505400
     -4.019019     27.605355     27.605355     55.210711
     -4.009009     24.478608     24.478608     48.957216
     -3.998999     22.575837     22.575837     45.151674
     -3.988989     22.259720     22.259720     44.519439
     -3.978979     23.566455     23.566455     47.132910
     -3.968969     26.318186     26.318186     52.636372
     -3.958959     30.241150     30.241150     60.482300
     -3.948949     35.031891     35.031891     70.063782
     -3.938939     40.375884     40.375884     80.751767
     -3.928929     45.959830     45.959830     91.919660
     -3.918919     51.506310     51.506310    103.012620
     -3.908909     56.816409     56.816409    113.632817
     -3.898899     61.775606     61.775606    123.551212
     -3.888889     66.290772     66.290772    132.581543
     -3.878879     70.175672     70.175672    140.351345
     -3.868869     73.052859     73.052859    146.105717
     -3.858859     74.352389     74.352389    148.704777
     -3.848849     73.447738     73.447738    146.895477
     -3.838839     69.895066     69.895066    139.790132
     -3.828829     63.675565     63.675565    127.351130
     -3.818819     55.322599     55.322599    110.645197
     -3.808809     45.860056     45.860056     91.720111
     -3.798799     36.563149     36.563149     73.126297
     -3.788789     28.630985     28.630985     57.261971
     -3.778779     22.891190     22.891190     45.782381
     -3.768769     19.631377     19.631377     39.262753
     -3.758759     18.593555     18.593555     37.187110
     -3.748749     19.110204     19.110204     38.220408
     -3.738739     20.326875     20.326875     40.653750
     -3.728729     21.447623     21.447623     42.895247
     -3.718719     21.945827     21.945827     43.891653
     -3.708709     21.694661     21.694661     43.389323
     -3.698699     20.986246     20.986246     41.972491
     -3.688689     20.428997     20.428997     40.857995
     -3.678679     20.741385     20.741385     41.482769
     -3.668669     22.494018     22.494018     44.988036
     -3.658659     25.880050     25.880050     51.760099
     -3.648649     30.599298     30.599298     61.198597
     -3.638639     35.910733     35.910733     71.821466
     -3.628629     40.843786     40.843786     81.687572
     -3.618619     44.488545     44.488545     88.977091
     -3.608609     46.248430     46.248430     92.496860
     -3.598599     45.962038     45.962038     91.924076
     -3.588589     43.870599     43.870599     87.741198
     -3.578579     40.478400     40.478400     80.956800
     -3.568569     36.382687     36.382687     72.765375
     -3.558559     32.130462     32.130462     64.260925
     -3.548549     28.122654     28.122654     56.245308
     -3.538539     24.565403     24.565403     49.130806
     -3.528529     21.469900     21.469900     42.939799
     -3.518519     18.705643     18.705643     37.411286
     -3.508509     16.098210     16.098210     32.196421
     -3.498498     13.537480     13.537480     27.074960
     -3.488488     11.049630     11.049630     22.099260
     -3.478478      8.801697      8.801697     17.603393
     -3.468468      7.041603      7.041603     14.083205
     -3.458458      6.004908      6.004908     12.009817
     -3.448448      5.826067      5.826067     11.652134
     -3.438438      6.480986      6.480986     12.961972
     -3.428428      7.774421      7.774421     15.548842
     -3.418418      9.378141      9.378141     18.756282
     -3.408408     10.918314     10.918314     21.836629
     -3.398398     12.094696     12.094696     24.189392
     -3.388388     12.793149     12.793149     25.586297
     -3.378378     13.143251     13.143251     26.286501
     -3.368368     13.488964     13.488964     26.977928
     -3.358358     14.278709     14.278709     28.557419
     -3.348348     15.918199     15.918199     31.836397
     -3.338338     18.639998     18.639998     37.279997
     -3.328328     22.423608     22.423608     44.847216
     -3.318318     26.969694     26.969694     53.939389
     -3.308308     31.719407     31.719407     63.438814
     -3.298298     35.921126     35.921126     71.842251
     -3.288288     38.760049     38.760049     77.520097
     -3.278278     39.550864     39.550864     79.101728
     -3.268268     37.947542     37.947542     75.895083
     -3.258258     34.082577     34.082577     68.165153
     -3.248248     28.555731     28.555731     57.111462
     -3.238238     22.259134     22.259134     44.518267
     -3.228228     16.110798     16.110798     32.221596
     -3.218218     10.813142     10.813142     21.626284
     -3.208208      6.728940      6.728940     13.457881
     -3.198198      3.897354      3.897354      7.794707
     -3.188188      2.147077      2.147077      4.294153
     -3.178178      1.237875      1.237875      2.475749
     -3.168168      0.976471      0.976471      1.952942
     -3.158158      1.283968      1.283968      2.567937
     -3.148148      2.215313      2.215313      4.430626
     -3.138138      3.937992      3.937992      7.875985
     -3.128128      6.674000      6.674000     13.348000
     -3.118118     10.608583     10.608583     21.217166
     -3.108108     15.779070     15.779070     31.558140
     -3.098098     21.974419     21.974419     43.948839
     -3.088088     28.689126     28.689126     57.378252
     -3.078078     35.169723     35.169723     70.339445
     -3.068068     40.562214     40.562214     81.124429
     -3.058058     44.123608     44.123608     88.247216
     -3.048048     45.423436     45.423436     90.846872
     -3.038038     44.456399     44.456399     88.912799
     -3.028028     41.623385     41.623385     83.246771
     -3.018018     37.597383     37.597383     75.194766
     -3.008008     33.138530     33.138530     66.277060
     -2.997998     28.931416     28.931416     57.862832
     -2.987988     25.488934     25.488934     50.977868
     -2.977978     23.126569     23.126569     46.253139
     -2.967968     21.985928     21.985928     43.971855
     -2.957958     22.081915     22.081915     44.163830
     -2.947948     23.351287     23.351287     46.702573
     -2.937938     25.681085     25.681085     51.362170
     -2.927928     28.900177     28.900177     57.800353
     -2.917918     32.737291     32.737291     65.474582
     -2.907908     36.780065     36.780065     73.560130
     -2.897898     40.486819     40.486819     80.973638
     -2.887888     43.282945     43.282945     86.565889
     -2.877878     44.721105     44.721105     89.442209
     -2.867868     44.633140     44.633140     89.266280
     -2.857858     43.190238     43.190238     86.380476
     -2.847848     40.829209     40.829209     81.658418
     -2.837838     38.073358     38.073358     76.146716
     -2.827828     35.333713     35.333713     70.667425
     -2.817818     32.786487     32.786487     65.572974
     -2.807808     30.380362     30.380362     60.760724
     -2.797798     27.957171     27.957171     55.914343
     -2.787788     25.410887     25.410887     50.821774
     -2.777778     22.794110     22.794110     45.588219
     -2.767768     20.316134     20.316134     40.632268
     -2.757758     18.241629     18.241629     36.483258
     -2.747748     16.756920     16.756920     33.513840
     -2.737738     15.888103     15.888103     31.776207
     -2.727728     15.521037     15.521037     31.042073
     -2.717718     15.507504     15.507504     31.015008
     -2.707708     15.784946     15.784946     31.569892
     -2.697698     16.426156     16.426156     32.852312
     -2.687688     17.579886     17.579886     35.159772
     -2.677678     19.336698     19.336698     38.673396
     -2.667668     21.608837     21.608837     43.217675
     -2.657658     24.110097     24.110097     48.220194
     -2.647648     26.459753     26.459753     52.919505
     -2.637638     28.352833     28.352833     56.705665
     -2.627628     29.692945     29.692945     59.385891
     -2.617618     30.607304     30.607304     61.214608
     -2.607608     31.341176     31.341176     62.682352
     -2.597598     32.105135     32.105135     64.210270
     -2.587588     32.968506     32.968506     65.937013
     -2.577578     33.846062     33.846062     67.692125
     -2.567568     34.554675     34.554675     69.109350
     -2.557558     34.880504     34.880504     69.761008
     -2.547548     34.618778     34.618778     69.237557
     -2.537538     33.597563     33.597563     67.195126
     -2.527528     31.721716     31.721716     63.443432
     -2.517518     29.048637     29.048637     58.097275
     -2.507508     25.858116     25.858116     51.716231
     -2.497497     22.653471     22.653471     45.306941
     -2.487487     20.057572     20.057572     40.115144
     -2.477477     18.628524     18.628524     37.257048
     -2.467467     18.672568     18.672568     37.345137
     -2.457457     20.141659     20.141659     40.283319
     -2.447447     22.665994     22.665994     45.331987
     -2.437437     25.709230     25.709230     51.418461
     -2.427427     28.777187     28.777187     57.554375
     -2.417417     31.585179     31.585179     63.170358
     -2.407407     34.106993     34.106993     68.213986
     -2.397397     36.483575     36.483575     72.967150
     -2.387387     38.837880     38.837880     77.675759
     -2.377377     41.091579     41.091579     82.183158
     -2.367367     42.884076     42.884076     85.768152
     -2.357357     43.649148     43.649148     87.298296
     -2.347347     42.828385     42.828385     85.656769
     -2.337337     40.129521     40.129521     80.259041
     -2.327327     35.709388     35.709388     71.418776
     -2.317317     30.193759     30.193759     60.387519
     -2.307307     24.523966     24.523966     49.047931
     -2.297297     19.699309     19.699309     39.398619
     -2.287287     16.521357     16.521357     33.042713
     -2.277277     15.427173     15.427173     30.854347
     -2.267267     16.445320     16.445320     32.890639
     -2.257257     19.256980     19.256980     38.513961
     -2.247247     23.317801     23.317801     46.635602
     -2.237237     27.993544     27.993544     55.987089
     -2.227227     32.672855     32.672855     65.345711
     -2.217217     36.835303     36.835303     73.670606
     -2.207207     40.071791     40.071791     80.143582
     -2.197197     42.075767     42.075767     84.151533
     -2.187187     42.637835     42.637835     85.275671
     -2.177177     41.670424     41.670424     83.340847
     -2.167167     39.259961     39.259961     78.519922
     -2.157157     35.708072     35.708072     71.416143
     -2.147147     31.509307     31.509307     63.018614
     -2.137137     27.239913     27.239913     54.479826
     -2.127127     23.388706     23.388706     46.777413
     -2.117117     20.208524     20.208524     40.417047
     -2.107107     17.666921     17.666921     35.333841
     -2.097097     15.522415     15.522415     31.044830
     -2.087087     13.481579     13.481579     26.963158
     -2.077077     11.350668     11.350668     22.701337
     -2.067067      9.108599      9.108599     18.217198
     -2.057057      6.881757      6.881757     13.763513
     -2.047047      4.856065      4.856065      9.712131
     -2.037037      3.184798      3.184798      6.369596
     -2.027027      1.936003      1.936003      3.872006
     -2.017017      1.090241      1.090241      2.180481
     -2.007007      0.572133      0.572133      1.144266
     -1.996997      0.290847      0.290847      0.581694
     -1.986987      0.172027      0.172027      0.344053
     -1.976977      0.176110      0.176110      0.352219
     -1.966967      0.306185      0.306185      0.612369
     -1.956957      0.609597      0.609597      1.219194
     -1.946947      1.173549      1.173549      2.347097
     -1.936937      2.110539      2.110539      4.221078
     -1.926927      3.529060      3.529060      7.058119
     -1.916917      5.490688      5.490688     10.981377
     -1.906907      7.964752      7.964752     15.929504
     -1.896897     10.799738     10.799738     21.599476
     -1.886887     13.729587     13.729587     27.459174
     -1.876877     16.420757     16.420757     32.841514
     -1.866867     18.548584     18.548584     37.097168
     -1.856857     19.879030     19.879030     39.758060
     -1.846847     20.330175     20.330175     40.660351
     -1.836837     19.994276     19.994276     39.988551
     -1.826827     19.110497     19.110497     38.220993
     -1.816817     17.989908     17.989908     35.979816
     -1.806807     16.910954     16.910954     33.821908
     -1.796797     16.022870     16.022870     32.045740
     -1.786787     15.302837     15.302837     30.605674
     -1.776777     14.595527     14.595527     29.191054
     -1.766767     13.722651     13.722651     27.445303
     -1.756757     12.608300     12.608300     25.216600
     -1.746747     11.352308     11.352308     22.704617
     -1.736737     10.210163     10.210163     20.420326
     -1.726727      9.488366      9.488366     18.976733
     -1.716717      9.408354      9.408354     18.816708
     -1.706707     10.006372     10.006372     20.012744
     -1.696697     11.116679     11.116679     22.233359
     -1.686687     12.443298     12.443298     24.886595
     -1.676677     13.681607     13.681607     27.363214
     -1.666667     14.626385     14.626385     29.252770
     -1.656657     15.211772     15.211772     30.423544
     -1.646647     15.469595     15.469595     30.939191
     -1.636637     15.443308     15.443308     30.886616
     -1.626627     15.122466     15.122466     30.244931
