# EIG2DOS: Utility for SIESTA to obtain the electronic density of states
#  E. Artacho, Apr 1999, A. Garcia, Apr 2012
#  Nick R. Papior, Feb 2017
# ------------------------------------------
# Eigenvalues calculated from a non-polarized calculation
# Eigenvalues read from siesta.EIG
# Kpoint weights read from siesta.KP
# Using smearing parameter:   0.0500
# Using 1000 points in the energy range
# Selected bands: 1 to: 2981
# Emin, Emax in file for selected band(s):    -27.1326767    218.3360110
# Nbands, Nspin, Nk   =   2981     1     1
# E_F                 =    -4.2713 eV --> (shifted to ZERO)
# Broadening          =     0.0500 eV
#
#        E            N(up)  (=)   N(down)         Ntot
     -5.000000     35.916382     35.916382     71.832764
     -4.989990     38.783183     38.783183     77.566367
     -4.979980     41.298415     41.298415     82.596831
     -4.969970     42.966685     42.966685     85.933369
     -4.959960     43.425582     43.425582     86.851163
     -4.949950     42.544254     42.544254     85.088508
     -4.939940     40.459975     40.459975     80.919949
     -4.929930     37.556578     37.556578     75.113157
     -4.919920     34.407515     34.407515     68.815031
     -4.909910     31.704194     31.704194     63.408388
     -4.899900     30.169831     30.169831     60.339663
     -4.889890     30.439185     30.439185     60.878369
     -4.879880     32.890693     32.890693     65.781386
     -4.869870     37.459526     37.459526     74.919052
     -4.859860     43.514582     43.514582     87.029163
     -4.849850     49.901722     49.901722     99.803444
     -4.839840     55.203342     55.203342    110.406683
     -4.829830     58.153919     58.153919    116.307838
     -4.819820     58.047910     58.047910    116.095819
     -4.809810     54.955279     54.955279    109.910559
     -4.799800     49.647021     49.647021     99.294043
     -4.789790     43.278806     43.278806     86.557612
     -4.779780     36.993602     36.993602     73.987204
     -4.769770     31.617159     31.617159     63.234318
     -4.759760     27.539513     27.539513     55.079026
     -4.749750     24.767038     24.767038     49.534077
     -4.739740     23.062130     23.062130     46.124259
     -4.729730     22.085127     22.085127     44.170255
     -4.719720     21.491646     21.491646     42.983291
     -4.709710     20.980317     20.980317     41.960635
     -4.699700     20.310359     20.310359     40.620719
     -4.689690     19.314349     19.314349     38.628698
     -4.679680     17.924398     17.924398     35.848796
     -4.669670     16.213377     16.213377     32.426755
     -4.659660     14.433259     14.433259     28.866518
     -4.649650     13.020865     13.020865     26.041729
     -4.639640     12.545583     12.545583     25.091166
     -4.629630     13.592178     13.592178     27.184356
     -4.619620     16.595777     16.595777     33.191555
     -4.609610     21.668349     21.668349     43.336697
     -4.599600     28.473040     28.473040     56.946080
     -4.589590     36.208464     36.208464     72.416928
     -4.579580     43.746695     43.746695     87.493390
     -4.569570     49.918337     49.918337     99.836673
     -4.559560     53.867738     53.867738    107.735477
     -4.549550     55.346604     55.346604    110.693209
     -4.539540     54.813469     54.813469    109.626938
     -4.529530     53.273603     53.273603    106.547206
     -4.519520     51.903784     51.903784    103.807568
     -4.509510     51.606452     51.606452    103.212904
     -4.499499     52.676126     52.676126    105.352252
     -4.489489     54.714713     54.714713    109.429426
     -4.479479     56.821187     56.821187    113.642374
     -4.469469     57.959513     57.959513    115.919026
     -4.459459     57.338257     57.338257    114.676513
     -4.449449     54.649834     54.649834    109.299668
     -4.439439     50.102723     50.102723    100.205446
     -4.429429     44.283401     44.283401     88.566802
     -4.419419     37.948852     37.948852     75.897704
     -4.409409     31.847981     31.847981     63.695963
     -4.399399     26.617152     26.617152     53.234303
     -4.389389     22.734939     22.734939     45.469878
     -4.379379     20.494226     20.494226     40.988452
     -4.369369     19.966801     19.966801     39.933603
     -4.359359     20.974610     20.974610     41.949220
     -4.349349     23.106619     23.106619     46.213239
     -4.339339     25.808754     25.808754     51.617508
     -4.329329     28.533733     28.533733     57.067466
     -4.319319     30.897542     30.897542     61.795084
     -4.309309     32.778111     32.778111     65.556221
     -4.299299     34.315925     34.315925     68.631850
     -4.289289     35.818056     35.818056     71.636113
     -4.279279     37.601803     37.601803     75.203605
     -4.269269     39.829780     39.829780     79.659560
     -4.259259     42.389485     42.389485     84.778971
     -4.249249     44.864445     44.864445     89.728890
     -4.239239     46.627075     46.627075     93.254151
     -4.229229     47.044560     47.044560     94.089119
     -4.219219     45.732008     45.732008     91.464016
     -4.209209     42.742581     42.742581     85.485163
     -4.199199     38.592557     38.592557     77.185114
     -4.189189     34.092892     34.092892     68.185785
     -4.179179     30.060758     30.060758     60.121517
     -4.169169     27.049794     27.049794     54.099589
     -4.159159     25.223265     25.223265     50.446531
     -4.149149     24.411744     24.411744     48.823488
     -4.139139     24.300947     24.300947     48.601894
     -4.129129     24.639839     24.639839     49.279677
     -4.119119     25.363626     25.363626     50.727253
     -4.109109     26.576482     26.576482     53.152964
     -4.099099     28.407776     28.407776     56.815553
     -4.089089     30.818576     30.818576     61.637152
     -4.079079     33.468820     33.468820     66.937640
     -4.069069     35.738390     35.738390     71.476781
     -4.059059     36.922292     36.922292     73.844584
     -4.049049     36.521219     36.521219     73.042438
     -4.039039     34.482476     34.482476     68.964952
     -4.029029     31.261673     31.261673     62.523346
     -4.019019     27.670951     27.670951     55.341902
     -4.009009     24.595971     24.595971     49.191941
     -3.998999     22.726444     22.726444     45.452888
     -3.988989     22.417205     22.417205     44.834410
     -3.978979     23.705609     23.705609     47.411218
     -3.968969     26.423010     26.423010     52.846020
     -3.958959     30.308712     30.308712     60.617424
     -3.948949     35.071235     35.071235     70.142470
     -3.938939     40.403525     40.403525     80.807050
     -3.928929     45.994085     45.994085     91.988171
     -3.918919     51.561910     51.561910    103.123821
     -3.908909     56.900002     56.900002    113.800004
     -3.898899     61.882883     61.882883    123.765766
     -3.888889     66.406571     66.406571    132.813143
     -3.878879     70.277961     70.277961    140.555922
     -3.868869     73.119426     73.119426    146.238853
     -3.858859     74.367068     74.367068    148.734136
     -3.848849     73.403104     73.403104    146.806209
     -3.838839     69.791301     69.791301    139.582601
     -3.828829     63.518070     63.518070    127.036139
     -3.818819     55.121242     55.121242    110.242483
     -3.808809     45.630364     45.630364     91.260728
     -3.798799     36.326929     36.326929     72.653859
     -3.788789     28.413644     28.413644     56.827288
     -3.778779     22.715578     22.715578     45.431156
     -3.768769     19.510948     19.510948     39.021897
     -3.758759     18.528443     18.528443     37.056887
     -3.748749     19.088149     19.088149     38.176298
     -3.738739     20.328373     20.328373     40.656745
     -3.728729     21.452922     21.452922     42.905843
     -3.718719     21.941150     21.941150     43.882299
     -3.708709     21.675810     21.675810     43.351619
     -3.698699     20.958814     20.958814     41.917628
     -3.688689     20.405453     20.405453     40.810907
     -3.678679     20.736142     20.736142     41.472284
     -3.668669     22.518269     22.518269     45.036539
     -3.658659     25.938243     25.938243     51.876485
     -3.648649     30.688476     30.688476     61.376951
     -3.638639     36.022560     36.022560     72.045120
     -3.628629     40.967674     40.967674     81.935348
     -3.618619     44.613775     44.613775     89.227550
     -3.608609     46.364171     46.364171     92.728343
     -3.598599     46.056078     46.056078     92.112157
     -3.588589     43.928994     43.928994     87.857989
     -3.578579     40.487830     40.487830     80.975660
     -3.568569     36.335140     36.335140     72.670279
     -3.558559     32.027660     32.027660     64.055321
     -3.548549     27.977210     27.977210     55.954420
     -3.538539     24.397544     24.397544     48.795088
     -3.528529     21.301340     21.301340     42.602679
     -3.518519     18.553752     18.553752     37.107503
     -3.508509     15.973075     15.973075     31.946149
     -3.498498     13.442436     13.442436     26.884871
     -3.488488     10.983956     10.983956     21.967911
     -3.478478      8.763488      8.763488     17.526976
     -3.468468      7.029372      7.029372     14.058744
     -3.458458      6.017474      6.017474     12.034948
     -3.448448      5.861166      5.861166     11.722333
     -3.438438      6.533559      6.533559     13.067118
     -3.428428      7.835679      7.835679     15.671358
     -3.418418      9.436321      9.436321     18.872642
     -3.408408     10.961346     10.961346     21.922692
     -3.398398     12.113989     12.113989     24.227978
     -3.388388     12.786905     12.786905     25.573810
     -3.378378     13.117701     13.117701     26.235402
     -3.368368     13.456844     13.456844     26.913687
     -3.358358     14.255589     14.255589     28.511177
     -3.348348     15.918093     15.918093     31.836186
     -3.338338     18.671608     18.671608     37.343216
     -3.328328     22.487881     22.487881     44.975761
     -3.318318     27.058890     27.058890     54.117780
     -3.308308     31.817862     31.817862     63.635724
     -3.298298     36.008092     36.008092     72.016184
     -3.288288     38.814645     38.814645     77.629289
     -3.278278     39.558150     39.558150     79.116299
     -3.268268     37.903694     37.903694     75.807388
     -3.258258     33.997254     33.997254     67.994508
     -3.248248     28.451459     28.451459     56.902918
     -3.238238     22.170209     22.170209     44.340418
     -3.228228     16.086207     16.086207     32.172415
     -3.218218     10.927789     10.927789     21.855578
     -3.208208      7.104315      7.104315     14.208629
     -3.198198      4.726731      4.726731      9.453461
     -3.188188      3.712723      3.712723      7.425447
     -3.178178      3.901816      3.901816      7.803631
     -3.168168      5.127454      5.127454     10.254907
     -3.158158      7.236191      7.236191     14.472382
     -3.148148     10.078598     10.078598     20.157196
     -3.138138     13.504335     13.504335     27.008669
     -3.128128     17.375323     17.375323     34.750647
     -3.118118     21.582998     21.582998     43.165996
     -3.108108     26.041459     26.041459     52.082918
     -3.098098     30.642044     30.642044     61.284089
     -3.088088     35.188293     35.188293     70.376585
     -3.078078     39.356653     39.356653     78.713306
     -3.068068     42.722758     42.722758     85.445516
     -3.058058     44.855154     44.855154     89.710308
     -3.048048     45.434963     45.434963     90.869925
     -3.038038     44.343748     44.343748     88.687496
     -3.028028     41.684199     41.684199     83.368399
     -3.018018     37.740271     37.740271     75.480543
     -3.008008     32.913315     32.913315     65.826629
     -2.997998     27.670003     27.670003     55.340006
     -2.987988     22.513841     22.513841     45.027683
     -2.977978     17.967413     17.967413     35.934826
     -2.967968     14.544414     14.544414     29.088829
     -2.957958     12.699005     12.699005     25.398011
     -2.947948     12.753966     12.753966     25.507933
     -2.937938     14.820101     14.820101     29.640202
     -2.927928     18.727304     18.727304     37.454609
     -2.917918     23.994919     23.994919     47.989839
     -2.907908     29.871052     29.871052     59.742105
     -2.897898     35.457439     35.457439     70.914879
     -2.887888     39.904227     39.904227     79.808454
     -2.877878     42.619415     42.619415     85.238831
     -2.867868     43.414690     43.414690     86.829380
     -2.857858     42.523132     42.523132     85.046265
     -2.847848     40.474807     40.474807     80.949613
     -2.837838     37.880106     37.880106     75.760211
     -2.827828     35.214156     35.214156     70.428312
     -2.817818     32.694017     32.694017     65.388034
     -2.807808     30.293258     30.293258     60.586516
     -2.797798     27.869789     27.869789     55.739578
     -2.787788     25.328337     25.328337     50.656673
     -2.777778     22.727254     22.727254     45.454507
     -2.767768     20.276136     20.276136     40.552273
     -2.757758     18.235521     18.235521     36.471043
     -2.747748     16.786321     16.786321     33.572641
     -2.737738     15.952069     15.952069     31.904138
     -2.727728     15.621671     15.621671     31.243342
     -2.717718     15.654653     15.654653     31.309306
     -2.707708     15.995620     15.995620     31.991240
     -2.697698     16.716339     16.716339     33.432678
     -2.687688     17.950772     17.950772     35.901545
     -2.677678     19.762030     19.762030     39.524060
     -2.667668     22.031704     22.031704     44.063408
     -2.657658     24.454168     24.454168     48.908336
     -2.647648     26.652439     26.652439     53.304877
     -2.637638     28.350532     28.350532     56.701064
     -2.627628     29.496375     29.496375     58.992749
     -2.617618     30.259859     30.259859     60.519718
     -2.607608     30.912305     30.912305     61.824611
     -2.597598     31.667851     31.667851     63.335701
     -2.587588     32.581079     32.581079     65.162158
     -2.577578     33.543175     33.543175     67.086350
     -2.567568     34.347266     34.347266     68.694531
     -2.557558     34.760421     34.760421     69.520841
     -2.547548     34.565074     34.565074     69.130148
     -2.537538     33.583471     33.583471     67.166943
     -2.527528     31.722303     31.722303     63.444605
     -2.517518     29.048188     29.048188     58.096376
     -2.507508     25.854916     25.854916     51.709832
     -2.497497     22.659515     22.659515     45.319030
     -2.487487     20.092463     20.092463     40.184926
     -2.477477     18.709419     18.709419     37.418839
     -2.467467     18.804039     18.804039     37.608079
     -2.457457     20.309776     20.309776     40.619551
     -2.447447     22.839558     22.839558     45.679116
     -2.437437     25.848255     25.848255     51.696511
     -2.427427     28.845430     28.845430     57.690859
     -2.417417     31.561357     31.561357     63.122714
     -2.407407     33.989738     33.989738     67.979476
     -2.397397     36.288465     36.288465     72.576931
     -2.387387     38.589320     38.589320     77.178640
     -2.377377     40.814898     40.814898     81.629796
     -2.367367     42.602014     42.602014     85.204028
     -2.357357     43.382814     43.382814     86.765628
     -2.347347     42.599059     42.599059     85.198117
     -2.337337     39.957400     39.957400     79.914801
     -2.327327     35.608674     35.608674     71.217348
     -2.317317     30.167377     30.167377     60.334755
     -2.307307     24.562372     24.562372     49.124744
     -2.297297     19.785228     19.785228     39.570457
     -2.287287     16.638076     16.638076     33.276153
     -2.277277     15.565433     15.565433     31.130867
     -2.267267     16.604582     16.604582     33.209165
     -2.257257     19.440335     19.440335     38.880670
     -2.247247     23.523597     23.523597     47.047195
     -2.237237     28.208843     28.208843     56.417686
     -2.227227     32.872825     32.872825     65.745651
     -2.217217     36.989441     36.989441     73.978883
     -2.207207     40.154151     40.154151     80.308303
     -2.197197     42.074369     42.074369     84.148738
     -2.187187     42.559106     42.559106     85.118213
     -2.177177     41.537158     41.537158     83.074316
     -2.167167     39.104168     39.104168     78.208336
     -2.157157     35.561718     35.561718     71.123436
     -2.147147     31.396083     31.396083     62.792166
     -2.137137     27.170280     27.170280     54.340560
     -2.127127     23.359252     23.359252     46.718504
     -2.117117     20.205380     20.205380     40.410760
     -2.107107     17.671843     17.671843     35.343686
     -2.097097     15.519311     15.519311     31.038622
     -2.087087     13.461223     13.461223     26.922446
     -2.077077     11.312195     11.312195     22.624389
     -2.067067      9.057776      9.057776     18.115553
     -2.057057      6.827365      6.827365     13.654731
     -2.047047      4.806216      4.806216      9.612431
     -2.037037      3.144605      3.144605      6.289211
     -2.027027      1.907071      1.907071      3.814143
     -2.017017      1.071503      1.071503      2.143006
     -2.007007      0.561225      0.561225      1.122450
     -1.996997      0.285320      0.285320      0.570641
     -1.986987      0.170096      0.170096      0.340193
     -1.976977      0.176972      0.176972      0.353944
     -1.966967      0.310073      0.310073      0.620145
     -1.956957      0.617679      0.617679      1.235359
     -1.946947      1.187666      1.187666      2.375333
     -1.936937      2.132682      2.132682      4.265365
     -1.926927      3.560550      3.560550      7.121101
     -1.916917      5.531227      5.531227     11.062453
     -1.906907      8.011715      8.011715     16.023429
     -1.896897     10.848204     10.848204     21.696409
     -1.886887     13.773390     13.773390     27.546781
     -1.876877     16.454484     16.454484     32.908968
     -1.866867     18.570173     18.570173     37.140346
     -1.856857     19.892798     19.892798     39.785596
     -1.846847     20.350830     20.350830     40.701661
     -1.836837     20.053483     20.053483     40.106966
     -1.826827     19.268124     19.268124     38.536248
     -1.816817     18.351043     18.351043     36.702086
     -1.806807     17.646066     17.646066     35.292131
     -1.796797     17.381762     17.381762     34.763524
     -1.786787     17.605545     17.605545     35.211089
     -1.776777     18.180586     18.180586     36.361172
     -1.766767     18.842434     18.842434     37.684867
     -1.756757     19.285515     19.285515     38.571030
     -1.746747     19.244229     19.244229     38.488458
     -1.736737     18.549258     18.549258     37.098515
     -1.726727     17.159255     17.159255     34.318510
     -1.716717     15.174046     15.174046     30.348092
     -1.706707     12.828013     12.828013     25.656027
     -1.696697     10.455864     10.455864     20.911727
     -1.686687      8.428219      8.428219     16.856439
     -1.676677      7.068100      7.068100     14.136201
     -1.666667      6.569665      6.569665     13.139330
     -1.656657      6.941499      6.941499     13.882998
     -1.646647      7.991484      7.991484     15.982968
     -1.636637      9.363412      9.363412     18.726825
     -1.626627     10.625695     10.625695     21.251391
