# EIG2DOS: Utility for SIESTA to obtain the electronic density of states
#  E. Artacho, Apr 1999, A. Garcia, Apr 2012
#  Nick R. Papior, Feb 2017
# ------------------------------------------
# Eigenvalues calculated from a non-polarized calculation
# Eigenvalues read from siesta.EIG
# Kpoint weights read from siesta.KP
# Using smearing parameter:   0.0500
# Using 1000 points in the energy range
# Selected bands: 1 to: 2981
# Emin, Emax in file for selected band(s):    -27.0808146    218.3241210
# Nbands, Nspin, Nk   =   2981     1     1
# E_F                 =    -4.2841 eV --> (shifted to ZERO)
# Broadening          =     0.0500 eV
#
#        E            N(up)  (=)   N(down)         Ntot
     -5.000000     45.000143     45.000143     90.000285
     -4.989990     46.834805     46.834805     93.669610
     -4.979980     47.618614     47.618614     95.237228
     -4.969970     47.342659     47.342659     94.685319
     -4.959960     46.041935     46.041935     92.083871
     -4.949950     43.817295     43.817295     87.634590
     -4.939940     40.868055     40.868055     81.736110
     -4.929930     37.518166     37.518166     75.036332
     -4.919920     34.225001     34.225001     68.450001
     -4.909910     31.562569     31.562569     63.125138
     -4.899900     30.164905     30.164905     60.329810
     -4.889890     30.610128     30.610128     61.220256
     -4.879880     33.241096     33.241096     66.482192
     -4.869870     37.963482     37.963482     75.926965
     -4.859860     44.114569     44.114569     88.229138
     -4.849850     50.509789     50.509789    101.019578
     -4.839840     55.714567     55.714567    111.429134
     -4.829830     58.472466     58.472466    116.944932
     -4.819820     58.116144     58.116144    116.232288
     -4.809810     54.771891     54.771891    109.543781
     -4.799800     49.264554     49.264554     98.529109
     -4.789790     42.781910     42.781910     85.563821
     -4.779780     36.469234     36.469234     72.938469
     -4.769770     31.130514     31.130514     62.261028
     -4.759760     27.123963     27.123963     54.247926
     -4.749750     24.427758     24.427758     48.855515
     -4.739740     22.787287     22.787287     45.574573
     -4.729730     21.857815     21.857815     43.715629
     -4.719720     21.298377     21.298377     42.596753
     -4.709710     20.814823     20.814823     41.629646
     -4.699700     20.172995     20.172995     40.345989
     -4.689690     19.208029     19.208029     38.416058
     -4.679680     17.848635     17.848635     35.697270
     -4.669670     16.158950     16.158950     32.317900
     -4.659660     14.380679     14.380679     28.761359
     -4.649650     12.945289     12.945289     25.890579
     -4.639640     12.428693     12.428693     24.857386
     -4.629630     13.437917     13.437917     26.875834
     -4.619620     16.442682     16.442682     32.885363
     -4.609610     21.588636     21.588636     43.177272
     -4.599600     28.550669     28.550669     57.101337
     -4.589590     36.496436     36.496436     72.992872
     -4.579580     44.215320     44.215320     88.430641
     -4.569570     50.414121     50.414121    100.828242
     -4.559560     54.100809     54.100809    108.201618
     -4.549550     54.913848     54.913848    109.827697
     -4.539540     53.253152     53.253152    106.506304
     -4.529530     50.143794     50.143794    100.287588
     -4.519520     46.880729     46.880729     93.761459
     -4.509510     44.599251     44.599251     89.198501
     -4.499499     43.940597     43.940597     87.881193
     -4.489489     44.926306     44.926306     89.852611
     -4.479479     47.053576     47.053576     94.107152
     -4.469469     49.532365     49.532365     99.064730
     -4.459459     51.546541     51.546541    103.093082
     -4.449449     52.445985     52.445985    104.891970
     -4.439439     51.838672     51.838672    103.677344
     -4.429429     49.609006     49.609006     99.218013
     -4.419419     45.908053     45.908053     91.816106
     -4.409409     41.138979     41.138979     82.277958
     -4.399399     35.922694     35.922694     71.845388
     -4.389389     31.010210     31.010210     62.020420
     -4.379379     27.128811     27.128811     54.257623
     -4.369369     24.796258     24.796258     49.592516
     -4.359359     24.175636     24.175636     48.351272
     -4.349349     25.041547     25.041547     50.083094
     -4.339339     26.881970     26.881970     53.763941
     -4.329329     29.095790     29.095790     58.191580
     -4.319319     31.201844     31.201844     62.403688
     -4.309309     32.975570     32.975570     65.951141
     -4.299299     34.469263     34.469263     68.938527
     -4.289289     35.924355     35.924355     71.848710
     -4.279279     37.620308     37.620308     75.240616
     -4.269269     39.714713     39.714713     79.429426
     -4.259259     42.123414     42.123414     84.246827
     -4.249249     44.481525     44.481525     88.963051
     -4.239239     46.214478     46.214478     92.428957
     -4.229229     46.718365     46.718365     93.436731
     -4.219219     45.597059     45.597059     91.194117
     -4.209209     42.855211     42.855211     85.710421
     -4.199199     38.943627     38.943627     77.887254
     -4.189189     34.616887     34.616887     69.233775
     -4.179179     30.662874     30.662874     61.325748
     -4.169169     27.635896     27.635896     55.271792
     -4.159159     25.720360     25.720360     51.440720
     -4.149149     24.775279     24.775279     49.550558
     -4.139139     24.513061     24.513061     49.026123
     -4.129129     24.705087     24.705087     49.410173
     -4.119119     25.305894     25.305894     50.611787
     -4.109109     26.436242     26.436242     52.872485
     -4.099099     28.236402     28.236402     56.472803
     -4.089089     30.667863     30.667863     61.335726
     -4.079079     33.378010     33.378010     66.756021
     -4.069069     35.724369     35.724369     71.448738
     -4.059059     36.978310     36.978310     73.956619
     -4.049049     36.624995     36.624995     73.249989
     -4.039039     34.608769     34.608769     69.217537
     -4.029029     31.391693     31.391693     62.783386
     -4.019019     27.793575     27.793575     55.587151
     -4.009009     24.701887     24.701887     49.403774
     -3.998999     22.801447     22.801447     45.602893
     -3.988989     22.441063     22.441063     44.882126
     -3.978979     23.658296     23.658296     47.316592
     -3.968969     26.294296     26.294296     52.588591
     -3.958959     30.104590     30.104590     60.209180
     -3.948949     34.812916     34.812916     69.625831
     -3.938939     40.119737     40.119737     80.239474
     -3.928929     45.711431     45.711431     91.422862
     -3.918919     51.298527     51.298527    102.597054
     -3.908909     56.665016     56.665016    113.330032
     -3.898899     61.680341     61.680341    123.360683
     -3.888889     66.240176     66.240176    132.480352
     -3.878879     70.153233     70.153233    140.306466
     -3.868869     73.042339     73.042339    146.084679
     -3.858859     74.340851     74.340851    148.681702
     -3.848849     73.425982     73.425982    146.851964
     -3.838839     69.856769     69.856769    139.713539
     -3.828829     63.617133     63.617133    127.234266
     -3.818819     55.244692     55.244692    110.489384
     -3.808809     45.769690     45.769690     91.539380
     -3.798799     36.473936     36.473936     72.947872
     -3.788789     28.559879     28.559879     57.119758
     -3.778779     22.852452     22.852452     45.704904
     -3.768769     19.630572     19.630572     39.261144
     -3.758759     18.624697     18.624697     37.249395
     -3.748749     19.157604     19.157604     38.315208
     -3.738739     20.370997     20.370997     40.741993
     -3.728729     21.472544     21.472544     42.945087
     -3.718719     21.945408     21.945408     43.890816
     -3.708709     21.675157     21.675157     43.350314
     -3.698699     20.964325     20.964325     41.928650
     -3.688689     20.425676     20.425676     40.851351
     -3.678679     20.773809     20.773809     41.547617
     -3.668669     22.568122     22.568122     45.136245
     -3.658659     25.987224     25.987224     51.974449
     -3.648649     30.718926     30.718926     61.437852
     -3.638639     36.017862     36.017862     72.035725
     -3.628629     40.918510     40.918510     81.837021
     -3.618619     44.522517     44.522517     89.045034
     -3.608609     46.245484     46.245484     92.490969
     -3.598599     45.933325     45.933325     91.866650
     -3.588589     43.827725     43.827725     87.655450
     -3.578579     40.428655     40.428655     80.857311
     -3.568569     36.328280     36.328280     72.656560
     -3.558559     32.070658     32.070658     64.141316
     -3.548549     28.056217     28.056217     56.112434
     -3.538539     24.491607     24.491607     48.983213
     -3.528529     21.388374     21.388374     42.776748
     -3.518519     18.616489     18.616489     37.232978
     -3.508509     16.003281     16.003281     32.006561
     -3.498498     13.442272     13.442272     26.884544
     -3.488488     10.964334     10.964334     21.928669
     -3.478478      8.740263      8.740263     17.480526
     -3.468468      7.018705      7.018705     14.037410
     -3.458458      6.031565      6.031565     12.063130
     -3.448448      5.905048      5.905048     11.810095
     -3.438438      6.603340      6.603340     13.206681
     -3.428428      7.918688      7.918688     15.837377
     -3.418418      9.513624      9.513624     19.027247
     -3.408408     11.012638     11.012638     22.025276
     -3.398398     12.123833     12.123833     24.247666
     -3.388388     12.750313     12.750313     25.500627
     -3.378378     13.043019     13.043019     26.086038
     -3.368368     13.364875     13.364875     26.729750
     -3.358358     14.175241     14.175241     28.350482
     -3.348348     15.879645     15.879645     31.759291
     -3.338338     18.698856     18.698856     37.397712
     -3.328328     22.590493     22.590493     45.180986
     -3.318318     27.226945     27.226945     54.453889
     -3.308308     32.021153     32.021153     64.042306
     -3.298298     36.202222     36.202222     72.404445
     -3.288288     38.953348     38.953348     77.906695
     -3.278278     39.607722     39.607722     79.215444
     -3.268268     37.853291     37.853291     75.706582
     -3.258258     33.859903     33.859903     67.719807
     -3.248248     28.254528     28.254528     56.509056
     -3.238238     21.938059     21.938059     43.876119
     -3.228228     15.819225     15.819225     31.638449
     -3.218218     10.580629     10.580629     21.161258
     -3.208208      6.564578      6.564578     13.129155
     -3.198198      3.796853      3.796853      7.593705
     -3.188188      2.103873      2.103873      4.207747
     -3.178178      1.255822      1.255822      2.511644
     -3.168168      1.083921      1.083921      2.167843
     -3.158158      1.549616      1.549616      3.099233
     -3.148148      2.763333      2.763333      5.526666
     -3.138138      4.953914      4.953914      9.907828
     -3.128128      8.386665      8.386665     16.773330
     -3.118118     13.233754     13.233754     26.467509
     -3.108108     19.423363     19.423363     38.846727
     -3.098098     26.524713     26.524713     53.049425
     -3.088088     33.740840     33.740840     67.481680
     -3.078078     40.055586     40.055586     80.111172
     -3.068068     44.512945     44.512945     89.025891
     -3.058058     46.526895     46.526895     93.053789
     -3.048048     46.079929     46.079929     92.159858
     -3.038038     43.705994     43.705994     87.411987
     -3.028028     40.257694     40.257694     80.515389
     -3.018018     36.570100     36.570100     73.140200
     -3.008008     33.184991     33.184991     66.369982
     -2.997998     30.259136     30.259136     60.518273
     -2.987988     27.675754     27.675754     55.351509
     -2.977978     25.274186     25.274186     50.548373
     -2.967968     23.064923     23.064923     46.129845
     -2.957958     21.321171     21.321171     42.642342
     -2.947948     20.509181     20.509181     41.018363
     -2.937938     21.096240     21.096240     42.192480
     -2.927928     23.324798     23.324798     46.649596
     -2.917918     27.050504     27.050504     54.101008
     -2.907908     31.714415     31.714415     63.428830
     -2.897898     36.467970     36.467970     72.935939
     -2.887888     40.410594     40.410594     80.821188
     -2.877878     42.853973     42.853973     85.707946
     -2.867868     43.512777     43.512777     87.025553
     -2.857858     42.548443     42.548443     85.096885
     -2.847848     40.452707     40.452707     80.905415
     -2.837838     37.825862     37.825862     75.651724
     -2.827828     35.149081     35.149081     70.298162
     -2.817818     32.648231     32.648231     65.296463
     -2.807808     30.298440     30.298440     60.596879
     -2.797798     27.948102     27.948102     55.896204
     -2.787788     25.483951     25.483951     50.967901
     -2.777778     22.944477     22.944477     45.888954
     -2.767768     20.524415     20.524415     41.048831
     -2.757758     18.478250     18.478250     36.956501
     -2.747748     16.989112     16.989112     33.978223
     -2.737738     16.087270     16.087270     32.174540
     -2.727728     15.668686     15.668686     31.337372
     -2.717718     15.598381     15.598381     31.196762
     -2.707708     15.826550     15.826550     31.653100
     -2.697698     16.434681     16.434681     32.869361
     -2.687688     17.573867     17.573867     35.147734
     -2.677678     19.330789     19.330789     38.661578
     -2.667668     21.610296     21.610296     43.220593
     -2.657658     24.119329     24.119329     48.238657
     -2.647648     26.474121     26.474121     52.948242
     -2.637638     28.371149     28.371149     56.742298
     -2.627628     29.717739     29.717739     59.435479
     -2.617618     30.643460     30.643460     61.286919
     -2.607608     31.391906     31.391906     62.783812
     -2.597598     32.168045     32.168045     64.336089
     -2.587588     33.034467     33.034467     66.068934
     -2.577578     33.901793     33.901793     67.803586
     -2.567568     34.587604     34.587604     69.175208
     -2.557558     34.883287     34.883287     69.766573
     -2.547548     34.591530     34.591530     69.183060
     -2.537538     33.547679     33.547679     67.095357
     -2.527528     31.662507     31.662507     63.325014
     -2.517518     28.997856     28.997856     57.995712
     -2.507508     25.836162     25.836162     51.672323
     -2.497497     22.680009     22.680009     45.360018
     -2.487487     20.145697     20.145697     40.291394
     -2.477477     18.777425     18.777425     37.554849
     -2.467467     18.861730     18.861730     37.723460
     -2.457457     20.330379     20.330379     40.660758
     -2.447447     22.800474     22.800474     45.600947
     -2.437437     25.736206     25.736206     51.472413
     -2.427427     28.659667     28.659667     57.319335
     -2.417417     31.314453     31.314453     62.628905
     -2.407407     33.706532     33.706532     67.413064
     -2.397397     36.003914     36.003914     72.007828
     -2.387387     38.344908     38.344908     76.689816
     -2.377377     40.652225     40.652225     81.304449
     -2.367367     42.552951     42.552951     85.105902
     -2.357357     43.458554     43.458554     86.917108
     -2.347347     42.783207     42.783207     85.566415
     -2.337337     40.207974     40.207974     80.415948
     -2.327327     35.869661     35.869661     71.739322
     -2.317317     30.385045     30.385045     60.770090
     -2.307307     24.698837     24.698837     49.397675
     -2.297297     19.823947     19.823947     39.647894
     -2.287287     16.581005     16.581005     33.162010
     -2.277277     15.425899     15.425899     30.851798
     -2.267267     16.400770     16.400770     32.801541
     -2.257257     19.192160     19.192160     38.384320
     -2.247247     23.252758     23.252758     46.505515
     -2.237237     27.940046     27.940046     55.880091
     -2.227227     32.633990     32.633990     65.267979
     -2.217217     36.809544     36.809544     73.619088
     -2.207207     40.058601     40.058601     80.117202
     -2.197197     42.079045     42.079045     84.158090
     -2.187187     42.665173     42.665173     85.330346
     -2.177177     41.729020     41.729020     83.458039
     -2.167167     39.352069     39.352069     78.704139
     -2.157157     35.828702     35.828702     71.657405
     -2.147147     31.647103     31.647103     63.294206
     -2.137137     27.380250     27.380250     54.760500
     -2.127127     23.517303     23.517303     47.034606
     -2.117117     20.314256     20.314256     40.628512
     -2.107107     17.743368     17.743368     35.486736
     -2.097097     15.568232     15.568232     31.136464
     -2.087087     13.499931     13.499931     26.999861
     -2.077077     11.347941     11.347941     22.695883
     -2.067067      9.092649      9.092649     18.185297
     -2.057057      6.860101      6.860101     13.720201
     -2.047047      4.834507      4.834507      9.669014
     -2.037037      3.166809      3.166809      6.333619
     -2.027027      1.922890      1.922890      3.845780
     -2.017017      1.081839      1.081839      2.163677
     -2.007007      0.567689      0.567689      1.135378
     -1.996997      0.289844      0.289844      0.579687
     -1.986987      0.174891      0.174891      0.349782
     -1.976977      0.184841      0.184841      0.369681
     -1.966967      0.324878      0.324878      0.649757
     -1.956957      0.644604      0.644604      1.289209
     -1.946947      1.232755      1.232755      2.465510
     -1.936937      2.201243      2.201243      4.402486
     -1.926927      3.654413      3.654413      7.308826
     -1.916917      5.645680      5.645680     11.291359
     -1.906907      8.133760      8.133760     16.267520
     -1.896897     10.957908     10.957908     21.915816
     -1.886887     13.849027     13.849027     27.698054
     -1.876877     16.480079     16.480079     32.960158
     -1.866867     18.541988     18.541988     37.083976
     -1.856857     19.820598     19.820598     39.641195
     -1.846847     20.250822     20.250822     40.501645
     -1.836837     19.932006     19.932006     39.864013
     -1.826827     19.097395     19.097395     38.194791
     -1.816817     18.040438     18.040438     36.080875
     -1.806807     17.015552     17.015552     34.031105
     -1.796797     16.149056     16.149056     32.298112
     -1.786787     15.403560     15.403560     30.807119
     -1.776777     14.621803     14.621803     29.243606
     -1.766767     13.635699     13.635699     27.271397
     -1.756757     12.386748     12.386748     24.773496
     -1.746747     10.993150     10.993150     21.986301
     -1.736737      9.726163      9.726163     19.452326
     -1.726727      8.906558      8.906558     17.813115
     -1.716717      8.771976      8.771976     17.543951
     -1.706707      9.377444      9.377444     18.754888
     -1.696697     10.572736     10.572736     21.145471
     -1.686687     12.063528     12.063528     24.127057
     -1.676677     13.524681     13.524681     27.049361
     -1.666667     14.709604     14.709604     29.419208
     -1.656657     15.502969     15.502969     31.005937
     -1.646647     15.897180     15.897180     31.794361
     -1.636637     15.919982     15.919982     31.839965
     -1.626627     15.571119     15.571119     31.142238
