# EIG2DOS: Utility for SIESTA to obtain the electronic density of states
#  E. Artacho, Apr 1999, A. Garcia, Apr 2012
#  Nick R. Papior, Feb 2017
# ------------------------------------------
# Eigenvalues calculated from a non-polarized calculation
# Eigenvalues read from siesta.EIG
# Kpoint weights read from siesta.KP
# Using smearing parameter:   0.0500
# Using 1000 points in the energy range
# Selected bands: 1 to: 2981
# Emin, Emax in file for selected band(s):    -27.0520136    218.3149610
# Nbands, Nspin, Nk   =   2981     1     1
# E_F                 =    -4.2948 eV --> (shifted to ZERO)
# Broadening          =     0.0500 eV
#
#        E            N(up)  (=)   N(down)         Ntot
     -5.000000     45.735544     45.735544     91.471088
     -4.989990     48.568335     48.568335     97.136670
     -4.979980     49.941827     49.941827     99.883654
     -4.969970     49.816208     49.816208     99.632415
     -4.959960     48.323276     48.323276     96.646552
     -4.949950     45.721964     45.721964     91.443929
     -4.939940     42.357323     42.357323     84.714646
     -4.929930     38.640867     38.640867     77.281734
     -4.919920     35.052537     35.052537     70.105073
     -4.909910     32.145609     32.145609     64.291217
     -4.899900     30.521763     30.521763     61.043527
     -4.889890     30.741774     30.741774     61.483548
     -4.879880     33.159544     33.159544     66.319088
     -4.869870     37.717373     37.717373     75.434746
     -4.859860     43.797351     43.797351     87.594702
     -4.849850     50.243188     50.243188    100.486376
     -4.839840     55.612219     55.612219    111.224438
     -4.829830     58.600165     58.600165    117.200330
     -4.819820     58.468538     58.468538    116.937076
     -4.809810     55.277323     55.277323    110.554646
     -4.799800     49.814793     49.814793     99.629587
     -4.789790     43.271397     43.271397     86.542795
     -4.779780     36.826461     36.826461     73.652921
     -4.769770     31.331680     31.331680     62.663360
     -4.759760     27.189363     27.189363     54.378725
     -4.749750     24.407546     24.407546     48.815091
     -4.739740     22.743614     22.743614     45.487227
     -4.729730     21.847857     21.847857     43.695713
     -4.719720     21.361013     21.361013     42.722026
     -4.709710     20.963302     20.963302     41.926604
     -4.699700     20.395031     20.395031     40.790062
     -4.689690     19.472257     19.472257     38.944514
     -4.679680     18.113443     18.113443     36.226887
     -4.669670     16.378885     16.378885     32.757769
     -4.659660     14.507930     14.507930     29.015859
     -4.649650     12.927974     12.927974     25.855947
     -4.639640     12.211119     12.211119     24.422237
     -4.629630     12.968590     12.968590     25.937181
     -4.619620     15.692602     15.692602     31.385203
     -4.609610     20.575959     20.575959     41.151918
     -4.599600     27.360670     27.360670     54.721341
     -4.589590     35.282232     35.282232     70.564464
     -4.579580     43.169385     43.169385     86.338770
     -4.569570     49.713708     49.713708     99.427416
     -4.559560     53.846105     53.846105    107.692209
     -4.549550     55.086018     55.086018    110.172035
     -4.539540     53.713108     53.713108    107.426216
     -4.529530     50.673093     50.673093    101.346187
     -4.519520     47.244282     47.244282     94.488565
     -4.509510     44.598645     44.598645     89.197290
     -4.499499     43.433944     43.433944     86.867887
     -4.489489     43.812379     43.812379     87.624759
     -4.479479     45.242962     45.242962     90.485925
     -4.469469     46.941680     46.941680     93.883360
     -4.459459     48.142831     48.142831     96.285662
     -4.449449     48.336767     48.336767     96.673533
     -4.439439     47.362832     47.362832     94.725663
     -4.429429     45.360390     45.360390     90.720780
     -4.419419     42.640225     42.640225     85.280451
     -4.409409     39.557871     39.557871     79.115741
     -4.399399     36.444255     36.444255     72.888510
     -4.389389     33.596311     33.596311     67.192622
     -4.379379     31.286084     31.286084     62.572167
     -4.369369     29.741581     29.741581     59.483162
     -4.359359     29.088339     29.088339     58.176677
     -4.349349     29.287697     29.287697     58.575395
     -4.339339     30.126580     30.126580     60.253160
     -4.329329     31.287139     31.287139     62.574278
     -4.319319     32.472665     32.472665     64.945329
     -4.309309     33.527876     33.527876     67.055753
     -4.299299     34.493205     34.493205     68.986411
     -4.289289     35.568051     35.568051     71.136101
     -4.279279     36.999785     36.999785     73.999571
     -4.269269     38.941064     38.941064     77.882127
     -4.259259     41.325514     41.325514     82.651027
     -4.249249     43.810261     43.810261     87.620522
     -4.239239     45.823848     45.823848     91.647695
     -4.229229     46.728958     46.728958     93.457916
     -4.219219     46.056753     46.056753     92.113506
     -4.209209     43.716210     43.716210     87.432419
     -4.199199     40.069838     40.069838     80.139676
     -4.189189     35.821841     35.821841     71.643682
     -4.179179     31.763226     31.763226     63.526451
     -4.169169     28.498271     28.498271     56.996542
     -4.159159     26.283972     26.283972     52.567944
     -4.149149     25.045536     25.045536     50.091072
     -4.139139     24.534420     24.534420     49.068840
     -4.129129     24.528808     24.528808     49.057615
     -4.119119     24.968340     24.968340     49.936680
     -4.109109     25.957235     25.957235     51.914471
     -4.099099     27.637000     27.637000     55.274000
     -4.089089     29.996081     29.996081     59.992163
     -4.079079     32.724618     32.724618     65.449235
     -4.069069     35.214027     35.214027     70.428053
     -4.059059     36.734470     36.734470     73.468940
     -4.049049     36.723416     36.723416     73.446832
     -4.039039     35.043462     35.043462     70.086925
     -4.029029     32.071657     32.071657     64.143314
     -4.019019     28.571809     28.571809     57.143618
     -4.009009     25.421169     25.421169     50.842337
     -3.998999     23.335126     23.335126     46.670253
     -3.988989     22.714194     22.714194     45.428389
     -3.978979     23.647867     23.647867     47.295734
     -3.968969     26.017231     26.017231     52.034462
     -3.958959     29.603342     29.603342     59.206685
     -3.948949     34.143126     34.143126     68.286252
     -3.938939     39.339134     39.339134     78.678268
     -3.928929     44.868684     44.868684     89.737368
     -3.918919     50.424734     50.424734    100.849468
     -3.908909     55.774075     55.774075    111.548149
     -3.898899     60.782655     60.782655    121.565310
     -3.888889     65.366305     65.366305    130.732610
     -3.878879     69.374903     69.374903    138.749805
     -3.868869     72.474905     72.474905    144.949811
     -3.858859     74.118303     74.118303    148.236607
     -3.848849     73.654407     73.654407    147.308813
     -3.838839     70.566238     70.566238    141.132477
     -3.828829     64.735777     64.735777    129.471555
     -3.818819     56.608982     56.608982    113.217964
     -3.808809     47.167347     47.167347     94.334694
     -3.798799     37.701192     37.701192     75.402384
     -3.788789     29.470956     29.470956     58.941912
     -3.778779     23.386291     23.386291     46.772582
     -3.768769     19.811527     19.811527     39.623053
     -3.758759     18.542898     18.542898     37.085797
     -3.748749     18.938008     18.938008     37.876016
     -3.738739     20.139333     20.139333     40.278666
     -3.728729     21.324590     21.324590     42.649181
     -3.718719     21.924969     21.924969     43.849939
     -3.708709     21.765340     21.765340     43.530680
     -3.698699     21.095014     21.095014     42.190028
     -3.688689     20.496718     20.496718     40.993435
     -3.678679     20.688748     20.688748     41.377496
     -3.668669     22.268817     22.268817     44.537634
     -3.658659     25.477565     25.477565     50.955131
     -3.648649     30.068224     30.068224     60.136449
     -3.638639     35.341686     35.341686     70.683372
     -3.628629     40.344200     40.344200     80.688400
     -3.618619     44.153357     44.153357     88.306714
     -3.608609     46.137183     46.137183     92.274366
     -3.598599     46.089102     46.089102     92.178204
     -3.588589     44.208790     44.208790     88.417580
     -3.578579     40.971394     40.971394     81.942788
     -3.568569     36.960566     36.960566     73.921133
     -3.558559     32.724454     32.724454     65.448907
     -3.548549     28.677027     28.677027     57.354055
     -3.538539     25.045085     25.045085     50.090169
     -3.528529     21.862402     21.862402     43.724804
     -3.518519     19.016910     19.016910     38.033820
     -3.508509     16.344139     16.344139     32.688277
     -3.498498     13.734749     13.734749     27.469498
     -3.488488     11.209496     11.209496     22.418992
     -3.478478      8.928448      8.928448     17.856896
     -3.468468      7.134844      7.134844     14.269688
     -3.458458      6.063377      6.063377     12.126754
     -3.448448      5.850785      5.850785     11.701569
     -3.438438      6.476589      6.476589     12.953177
     -3.428428      7.748501      7.748501     15.497002
     -3.418418      9.338938      9.338938     18.677876
     -3.408408     10.871372     10.871372     21.742744
     -3.398398     12.039432     12.039432     24.078864
     -3.388388     12.720611     12.720611     25.441223
     -3.378378     13.036199     13.036199     26.072399
     -3.368368     13.324618     13.324618     26.649235
     -3.358358     14.033488     14.033488     28.066977
     -3.348348     15.573363     15.573363     31.146727
     -3.338338     18.187660     18.187660     36.375321
     -3.328328     21.873331     21.873331     43.746661
     -3.318318     26.355338     26.355338     52.710675
     -3.308308     31.103436     31.103436     62.206872
     -3.298298     35.391097     35.391097     70.782194
     -3.288288     38.412797     38.412797     76.825594
     -3.278278     39.465749     39.465749     78.931498
     -3.268268     38.158249     38.158249     76.316497
     -3.258258     34.561197     34.561197     69.122395
     -3.248248     29.218641     29.218641     58.437281
     -3.238238     22.993158     22.993158     45.986316
     -3.228228     16.807559     16.807559     33.615119
     -3.218218     11.396316     11.396316     22.792631
     -3.208208      7.164759      7.164759     14.329518
     -3.198198      4.188233      4.188233      8.376467
     -3.188188      2.315319      2.315319      4.630637
     -3.178178      1.307877      1.307877      2.615754
     -3.168168      0.961062      0.961062      1.922124
     -3.158158      1.176841      1.176841      2.353682
     -3.148148      1.989670      1.989670      3.979340
     -3.138138      3.551607      3.551607      7.103213
     -3.128128      6.081380      6.081380     12.162759
     -3.118118      9.779906      9.779906     19.559811
     -3.108108     14.722306     14.722306     29.444612
     -3.098098     20.752966     20.752966     41.505932
     -3.088088     27.425231     27.425231     54.850462
     -3.078078     34.026851     34.026851     68.053703
     -3.068068     39.707695     39.707695     79.415389
     -3.058058     43.682991     43.682991     87.365982
     -3.048048     45.444090     45.444090     90.888180
     -3.038038     44.895337     44.895337     89.790673
     -3.028028     42.363600     42.363600     84.727200
     -3.018018     38.484179     38.484179     76.968358
     -3.008008     34.019957     34.019957     68.039913
     -2.997998     29.688675     29.688675     59.377350
     -2.987988     26.050499     26.050499     52.100997
     -2.977978     23.467585     23.467585     46.935170
     -2.967968     22.118055     22.118055     44.236111
     -2.957958     22.038804     22.038804     44.077608
     -2.947948     23.174217     23.174217     46.348434
     -2.937938     25.409144     25.409144     50.818287
     -2.927928     28.568001     28.568001     57.136003
     -2.917918     32.379523     32.379523     64.759045
     -2.907908     36.436997     36.436997     72.873994
     -2.897898     40.204276     40.204276     80.408552
     -2.887888     43.103236     43.103236     86.206472
     -2.877878     44.668757     44.668757     89.337514
     -2.867868     44.703968     44.703968     89.407936
     -2.857858     43.351587     43.351587     86.703174
     -2.847848     41.033310     41.033310     82.066620
     -2.837838     38.278293     38.278293     76.556587
     -2.827828     35.521852     35.521852     71.043703
     -2.817818     32.970888     32.970888     65.941776
     -2.807808     30.595415     30.595415     61.190831
     -2.797798     28.237871     28.237871     56.475741
     -2.787788     25.771302     25.771302     51.542604
     -2.777778     23.216269     23.216269     46.432537
     -2.767768     20.754757     20.754757     41.509515
     -2.757758     18.641119     18.641119     37.282237
     -2.747748     17.070096     17.070096     34.140192
     -2.737738     16.085818     16.085818     32.171635
     -2.727728     15.588445     15.588445     31.176890
     -2.717718     15.432277     15.432277     30.864553
     -2.707708     15.548833     15.548833     31.097665
     -2.697698     16.009686     16.009686     32.019371
     -2.687688     16.980901     16.980901     33.961801
     -2.677678     18.592277     18.592277     37.184554
     -2.667668     20.804506     20.804506     41.609012
     -2.657658     23.364955     23.364955     46.729909
     -2.647648     25.889851     25.889851     51.779703
     -2.637638     28.029479     28.029479     56.058959
     -2.627628     29.617642     29.617642     59.235284
     -2.617618     30.716305     30.716305     61.432609
     -2.607608     31.535665     31.535665     63.071330
     -2.597598     32.289694     32.289694     64.579389
     -2.587588     33.079769     33.079769     66.159539
     -2.577578     33.863890     33.863890     67.727779
     -2.567568     34.499827     34.499827     68.999654
     -2.557558     34.806316     34.806316     69.612632
     -2.547548     34.599493     34.599493     69.198986
     -2.537538     33.710650     33.710650     67.421300
     -2.527528     32.023075     32.023075     64.046151
     -2.517518     29.547311     29.547311     59.094622
     -2.507508     26.503057     26.503057     53.006113
     -2.497497     23.342031     23.342031     46.684062
     -2.487487     20.664470     20.664470     41.328939
     -2.477477     19.042864     19.042864     38.085728
     -2.467467     18.826715     18.826715     37.653431
     -2.457457     20.021168     20.021168     40.042336
     -2.447447     22.300044     22.300044     44.600088
     -2.437437     25.149851     25.149851     50.299702
     -2.427427     28.078975     28.078975     56.157951
     -2.417417     30.794773     30.794773     61.589546
     -2.407407     33.265334     33.265334     66.530667
     -2.397397     35.637269     35.637269     71.274538
     -2.387387     38.051591     38.051591     76.103183
     -2.377377     40.452745     40.452745     80.905490
     -2.367367     42.494144     42.494144     84.988288
     -2.357357     43.600941     43.600941     87.201881
     -2.347347     43.175691     43.175691     86.351381
     -2.337337     40.860444     40.860444     81.720888
     -2.327327     36.736275     36.736275     73.472550
     -2.317317     31.367301     31.367301     62.734603
     -2.307307     25.668675     25.668675     51.337349
     -2.297297     20.657335     20.657335     41.314669
     -2.287287     17.187718     17.187718     34.375437
     -2.277277     15.764150     15.764150     31.528301
     -2.267267     16.473842     16.473842     32.947684
     -2.257257     19.032838     19.032838     38.065677
     -2.247247     22.905749     22.905749     45.811499
     -2.237237     27.451339     27.451339     54.902678
     -2.227227     32.050715     32.050715     64.101430
     -2.217217     36.187130     36.187130     72.374259
     -2.207207     39.467163     39.467163     78.934326
     -2.197197     41.600607     41.600607     83.201215
     -2.187187     42.378219     42.378219     84.756439
     -2.177177     41.684854     41.684854     83.369708
     -2.167167     39.554080     39.554080     79.108160
     -2.157157     36.226568     36.226568     72.453136
     -2.147147     32.151793     32.151793     64.303585
     -2.137137     27.895106     27.895106     55.790212
     -2.127127     23.971487     23.971487     47.942974
     -2.117117     20.682936     20.682936     41.365873
     -2.107107     18.045909     18.045909     36.091818
     -2.097097     15.847374     15.847374     31.694748
     -2.087087     13.794492     13.794492     27.588984
     -2.077077     11.673287     11.673287     23.346573
     -2.067067      9.436823      9.436823     18.873647
     -2.057057      7.193916      7.193916     14.387832
     -2.047047      5.127198      5.127198     10.254396
     -2.037037      3.398367      3.398367      6.796733
     -2.027027      2.088484      2.088484      4.176969
     -2.017017      1.189042      1.189042      2.378084
     -2.007007      0.630214      0.630214      1.260428
     -1.996997      0.321482      0.321482      0.642965
     -1.986987      0.185532      0.185532      0.371064
     -1.976977      0.178630      0.178630      0.357261
     -1.966967      0.299779      0.299779      0.599558
     -1.956957      0.592829      0.592829      1.185658
     -1.946947      1.142247      1.142247      2.284494
     -1.936937      2.058787      2.058787      4.117575
     -1.926927      3.450625      3.450625      6.901251
     -1.916917      5.380937      5.380937     10.761875
     -1.906907      7.822794      7.822794     15.645587
     -1.896897     10.630306     10.630306     21.260612
     -1.886887     13.544097     13.544097     27.088195
     -1.876877     16.237038     16.237038     32.474076
     -1.866867     18.388862     18.388862     36.777724
     -1.856857     19.765986     19.765986     39.531971
     -1.846847     20.281509     20.281509     40.563019
     -1.836837     20.017235     20.017235     40.034470
     -1.826827     19.198600     19.198600     38.397200
     -1.816817     18.123599     18.123599     36.247199
     -1.806807     17.061796     17.061796     34.123593
     -1.796797     16.158022     16.158022     32.316045
     -1.786787     15.384816     15.384816     30.769632
     -1.776777     14.573146     14.573146     29.146292
     -1.766767     13.512939     13.512939     27.025878
     -1.756757     12.075368     12.075368     24.150735
     -1.746747     10.296064     10.296064     20.592128
     -1.736737      8.382569      8.382569     16.765138
     -1.726727      6.652739      6.652739     13.305477
     -1.716717      5.442769      5.442769     10.885537
     -1.706707      5.025409      5.025409     10.050818
     -1.696697      5.557485      5.557485     11.114970
     -1.686687      7.053147      7.053147     14.106294
     -1.676677      9.372709      9.372709     18.745417
     -1.666667     12.226031     12.226031     24.452063
     -1.656657     15.200169     15.200169     30.400339
     -1.646647     17.820401     17.820401     35.640802
     -1.636637     19.640632     19.640632     39.281265
     -1.626627     20.343081     20.343081     40.686162
