# EIG2DOS: Utility for SIESTA to obtain the electronic density of states
#  E. Artacho, Apr 1999, A. Garcia, Apr 2012
#  Nick R. Papior, Feb 2017
# ------------------------------------------
# Eigenvalues calculated from a non-polarized calculation
# Eigenvalues read from siesta.EIG
# Kpoint weights read from siesta.KP
# Using smearing parameter:   0.0500
# Using 1000 points in the energy range
# Selected bands: 1 to: 2981
# Emin, Emax in file for selected band(s):    -27.0507165    218.3217260
# Nbands, Nspin, Nk   =   2981     1     1
# E_F                 =    -4.2861 eV --> (shifted to ZERO)
# Broadening          =     0.0500 eV
#
#        E            N(up)  (=)   N(down)         Ntot
     -5.000000     40.002145     40.002145     80.004289
     -4.989990     41.770162     41.770162     83.540324
     -4.979980     43.235671     43.235671     86.471342
     -4.969970     44.087970     44.087970     88.175940
     -4.959960     44.022864     44.022864     88.045728
     -4.949950     42.873806     42.873806     85.747612
     -4.939940     40.695827     40.695827     81.391653
     -4.929930     37.784358     37.784358     75.568716
     -4.919920     34.642709     34.642709     69.285418
     -4.909910     31.919959     31.919959     63.839918
     -4.899900     30.324953     30.324953     60.649905
     -4.889890     30.501698     30.501698     61.003396
     -4.879880     32.854655     32.854655     65.709310
     -4.869870     37.352013     37.352013     74.704026
     -4.859860     43.390136     43.390136     86.780273
     -4.849850     49.824644     49.824644     99.649287
     -4.839840     55.223919     55.223919    110.447838
     -4.829830     58.289051     58.289051    116.578102
     -4.819820     58.275456     58.275456    116.550911
     -4.809810     55.224569     55.224569    110.449137
     -4.799800     49.899500     49.899500     99.799000
     -4.789790     43.468404     43.468404     86.936808
     -4.779780     37.098522     37.098522     74.197044
     -4.769770     31.640973     31.640973     63.281946
     -4.759760     27.504873     27.504873     55.009745
     -4.749750     24.706803     24.706803     49.413606
     -4.739740     23.010911     23.010911     46.021822
     -4.729730     22.072011     22.072011     44.144023
     -4.719720     21.534278     21.534278     43.068555
     -4.709710     21.081208     21.081208     42.162415
     -4.699700     20.456409     20.456409     40.912817
     -4.689690     19.479272     19.479272     38.958544
     -4.679680     18.072028     18.072028     36.144056
     -4.669670     16.299710     16.299710     32.599420
     -4.659660     14.407360     14.407360     28.814720
     -4.649650     12.828117     12.828117     25.656235
     -4.639640     12.138423     12.138423     24.276846
     -4.629630     12.950863     12.950863     25.901725
     -4.619620     15.754422     15.754422     31.508843
     -4.609610     20.732490     20.732490     41.464980
     -4.599600     27.610725     27.610725     55.221449
     -4.589590     35.603272     35.603272     71.206543
     -4.579580     43.518586     43.518586     87.037173
     -4.569570     50.038205     50.038205    100.076410
     -4.559560     54.101283     54.101283    108.202567
     -4.549550     55.255325     55.255325    110.510650
     -4.539540     53.820234     53.820234    107.640468
     -4.529530     50.780517     50.780517    101.561033
     -4.519520     47.440073     47.440073     94.880146
     -4.509510     44.981101     44.981101     89.962203
     -4.499499     44.105117     44.105117     88.210235
     -4.489489     44.883873     44.883873     89.767746
     -4.479479     46.843595     46.843595     93.687191
     -4.469469     49.205545     49.205545     98.411090
     -4.459459     51.158632     51.158632    102.317265
     -4.449449     52.060578     52.060578    104.121155
     -4.439439     51.529265     51.529265    103.058530
     -4.429429     49.450907     49.450907     98.901813
     -4.419419     45.958507     45.958507     91.917014
     -4.409409     41.413990     41.413990     82.827980
     -4.399399     36.384141     36.384141     72.768282
     -4.389389     31.573037     31.573037     63.146074
     -4.379379     27.687279     27.687279     55.374558
     -4.369369     25.257497     25.257497     50.514995
     -4.359359     24.484941     24.484941     48.969882
     -4.349349     25.188986     25.188986     50.377972
     -4.339339     26.890247     26.890247     53.780495
     -4.329329     28.998446     28.998446     57.996891
     -4.319319     31.024182     31.024182     62.048364
     -4.309309     32.727342     32.727342     65.454684
     -4.299299     34.150870     34.150870     68.301739
     -4.289289     35.541219     35.541219     71.082438
     -4.279279     37.196504     37.196504     74.393009
     -4.269269     39.298100     39.298100     78.596200
     -4.259259     41.779110     41.779110     83.558219
     -4.249249     44.275900     44.275900     88.551799
     -4.239239     46.195465     46.195465     92.390930
     -4.229229     46.898998     46.898998     93.797995
     -4.219219     45.948071     45.948071     91.896141
     -4.209209     43.309973     43.309973     86.619946
     -4.199199     39.414895     39.414895     78.829789
     -4.189189     35.020514     35.020514     70.041028
     -4.179179     30.940491     30.940491     61.880981
     -4.169169     27.768455     27.768455     55.536910
     -4.159159     25.727908     25.727908     51.455817
     -4.149149     24.703708     24.703708     49.407417
     -4.139139     24.413314     24.413314     48.826627
     -4.129129     24.612848     24.612848     49.225695
     -4.119119     25.229703     25.229703     50.459406
     -4.109109     26.359281     26.359281     52.718563
     -4.099099     28.131941     28.131941     56.263882
     -4.089089     30.521544     30.521544     61.043087
     -4.079079     33.205052     33.205052     66.410104
     -4.069069     35.570610     35.570610     71.141220
     -4.059059     36.902109     36.902109     73.804219
     -4.049049     36.668587     36.668587     73.337175
     -4.039039     34.775082     34.775082     69.550163
     -4.029029     31.640172     31.640172     63.280344
     -4.019019     28.057254     28.057254     56.114508
     -4.009009     24.915325     24.915325     49.830650
     -3.998999     22.923773     22.923773     45.847547
     -3.988989     22.463244     22.463244     44.926488
     -3.978979     23.594573     23.594573     47.189146
     -3.968969     26.166586     26.166586     52.333172
     -3.958959     29.930050     29.930050     59.860101
     -3.948949     34.599539     34.599539     69.199078
     -3.938939     39.868167     39.868167     79.736334
     -3.928929     45.418403     45.418403     90.836805
     -3.918919     50.959524     50.959524    101.919048
     -3.908909     56.277523     56.277523    112.555046
     -3.898899     61.250201     61.250201    122.500402
     -3.888889     65.790649     65.790649    131.581298
     -3.878879     69.731951     69.731951    139.463902
     -3.868869     72.719515     72.719515    145.439029
     -3.858859     74.195121     74.195121    148.390241
     -3.848849     73.520748     73.520748    147.041496
     -3.838839     70.215933     70.215933    140.431865
     -3.828829     64.210877     64.210877    128.421754
     -3.818819     55.992220     55.992220    111.984439
     -3.808809     46.558585     46.558585     93.117170
     -3.798799     37.189030     37.189030     74.378061
     -3.788789     29.111444     29.111444     58.222889
     -3.778779     23.195058     23.195058     46.390117
     -3.768769     19.768403     19.768403     39.536806
     -3.758759     18.603842     18.603842     37.207685
     -3.748749     19.049046     19.049046     38.098091
     -3.738739     20.249358     20.249358     40.498717
     -3.728729     21.395737     21.395737     42.791475
     -3.718719     21.939771     21.939771     43.879543
     -3.708709     21.729604     21.729604     43.459208
     -3.698699     21.035311     21.035311     42.070622
     -3.688689     20.452274     20.452274     40.904549
     -3.678679     20.699176     20.699176     41.398351
     -3.668669     22.360858     22.360858     44.721716
     -3.658659     25.655046     25.655046     51.310092
     -3.648649     30.308898     30.308898     60.617796
     -3.638639     35.602473     35.602473     71.204946
     -3.628629     40.573137     40.573137     81.146274
     -3.618619     44.303901     44.303901     88.607802
     -3.608609     46.179790     46.179790     92.359580
     -3.598599     46.016669     46.016669     92.033339
     -3.588589     44.035412     44.035412     88.070823
     -3.578579     40.726277     40.726277     81.452554
     -3.568569     36.679762     36.679762     73.359525
     -3.558559     32.442670     32.442670     64.885341
     -3.548549     28.421082     28.421082     56.842164
     -3.538539     24.830137     24.830137     49.660273
     -3.528529     21.691640     21.691640     43.383279
     -3.518519     18.884494     18.884494     37.768988
     -3.508509     16.240039     16.240039     32.480078
     -3.498498     13.649414     13.649414     27.298828
     -3.488488     11.136614     11.136614     22.273228
     -3.478478      8.865268      8.865268     17.730536
     -3.468468      7.080821      7.080821     14.161641
     -3.458458      6.018491      6.018491     12.036983
     -3.448448      5.814628      5.814628     11.629257
     -3.438438      6.448511      6.448511     12.897022
     -3.428428      7.728428      7.728428     15.456856
     -3.418418      9.328227      9.328227     18.656455
     -3.408408     10.873225     10.873225     21.746449
     -3.398398     12.058742     12.058742     24.117484
     -3.388388     12.763402     12.763402     25.526803
     -3.378378     13.108880     13.108880     26.217760
     -3.368368     13.433257     13.433257     26.866515
     -3.358358     14.183131     14.183131     28.366262
     -3.348348     15.767197     15.767197     31.534394
     -3.338338     18.425582     18.425582     36.851164
     -3.328328     22.149433     22.149433     44.298867
     -3.318318     26.654487     26.654487     53.308975
     -3.308308     31.398478     31.398478     62.796957
     -3.298298     35.643482     35.643482     71.286965
     -3.288288     38.579049     38.579049     77.158097
     -3.278278     39.509442     39.509442     79.018884
     -3.268268     38.063227     38.063227     76.126453
     -3.258258     34.339543     34.339543     68.679087
     -3.248248     28.908635     28.908635     57.817271
     -3.238238     22.647550     22.647550     45.295100
     -3.228228     16.477583     16.477583     32.955166
     -3.218218     11.118647     11.118647     22.237295
     -3.208208      6.956157      6.956157     13.912314
     -3.198198      4.048147      4.048147      8.096294
     -3.188188      2.233254      2.233254      4.466508
     -3.178178      1.271339      1.271339      2.542677
     -3.168168      0.960935      0.960935      1.921869
     -3.158158      1.208474      1.208474      2.416949
     -3.148148      2.048654      2.048654      4.097309
     -3.138138      3.623572      3.623572      7.247144
     -3.128128      6.126520      6.126520     12.253041
     -3.118118      9.716656      9.716656     19.433311
     -3.108108     14.420138     14.420138     28.840276
     -3.098098     20.048021     20.048021     40.096042
     -3.088088     26.168578     26.168578     52.337156
     -3.078078     32.159857     32.159857     64.319714
     -3.068068     37.336283     37.336283     74.672566
     -3.058058     41.106518     41.106518     82.213036
     -3.048048     43.102016     43.102016     86.204033
     -3.038038     43.231363     43.231363     86.462727
     -3.028028     41.656435     41.656435     83.312869
     -3.018018     38.725018     38.725018     77.450037
     -3.008008     34.904234     34.904234     69.808468
     -2.997998     30.735929     30.735929     61.471858
     -2.987988     26.801763     26.801763     53.603527
     -2.977978     23.671446     23.671446     47.342892
     -2.967968     21.823748     21.823748     43.647496
     -2.957958     21.560001     21.560001     43.120001
     -2.947948     22.945652     22.945652     45.891304
     -2.937938     25.802991     25.802991     51.605982
     -2.927928     29.749583     29.749583     59.499166
     -2.917918     34.258495     34.258495     68.516989
     -2.907908     38.722883     38.722883     77.445765
     -2.897898     42.528356     42.528356     85.056712
     -2.887888     45.145974     45.145974     90.291948
     -2.877878     46.241719     46.241719     92.483438
     -2.867868     45.766663     45.766663     91.533326
     -2.857858     43.975791     43.975791     87.951581
     -2.847848     41.344119     41.344119     82.688237
     -2.837838     38.399807     38.399807     76.799615
     -2.827828     35.543569     35.543569     71.087139
     -2.817818     32.938143     32.938143     65.876286
     -2.807808     30.518574     30.518574     61.037148
     -2.797798     28.111080     28.111080     56.222160
     -2.787788     25.591148     25.591148     51.182296
     -2.777778     22.992953     22.992953     45.985905
     -2.767768     20.512811     20.512811     41.025621
     -2.757758     18.411866     18.411866     36.823733
     -2.747748     16.881796     16.881796     33.763592
     -2.737738     15.957665     15.957665     31.915330
     -2.727728     15.531258     15.531258     31.062516
     -2.717718     15.453752     15.453752     30.907504
     -2.707708     15.657870     15.657870     31.315740
     -2.697698     16.214759     16.214759     32.429517
     -2.687688     17.281688     17.281688     34.563377
     -2.677678     18.969266     18.969266     37.938532
     -2.667668     21.214336     21.214336     42.428673
     -2.657658     23.747341     23.747341     47.494682
     -2.647648     26.185423     26.185423     52.370846
     -2.637638     28.200713     28.200713     56.401426
     -2.627628     29.662115     29.662115     59.324230
     -2.617618     30.665332     30.665332     61.330665
     -2.607608     31.439662     31.439662     62.879324
     -2.597598     32.198557     32.198557     64.397115
     -2.587588     33.027541     33.027541     66.055082
     -2.577578     33.862133     33.862133     67.724267
     -2.567568     34.538255     34.538255     69.076511
     -2.557558     34.857041     34.857041     69.714082
     -2.547548     34.623321     34.623321     69.246642
     -2.537538     33.666439     33.666439     67.332877
     -2.527528     31.880572     31.880572     63.761144
     -2.517518     29.300175     29.300175     58.600350
     -2.507508     26.175815     26.175815     52.351630
     -2.497497     22.986062     22.986062     45.972124
     -2.487487     20.343541     20.343541     40.687082
     -2.477477     18.814445     18.814445     37.628889
     -2.467467     18.727266     18.727266     37.454532
     -2.457457     20.060910     20.060910     40.121821
     -2.447447     22.467470     22.467470     44.934941
     -2.437437     25.421724     25.421724     50.843449
     -2.427427     28.429904     28.429904     56.859809
     -2.417417     31.201837     31.201837     62.403674
     -2.407407     33.706533     33.706533     67.413066
     -2.397397     36.085957     36.085957     72.171914
     -2.387387     38.471059     38.471059     76.942119
     -2.377377     40.795092     40.795092     81.590185
     -2.367367     42.705821     42.705821     85.411642
     -2.357357     43.634646     43.634646     87.269292
     -2.347347     43.005379     43.005379     86.010758
     -2.337337     40.493924     40.493924     80.987848
     -2.327327     36.219474     36.219474     72.438949
     -2.317317     30.776736     30.776736     61.553471
     -2.307307     25.093488     25.093488     50.186976
     -2.297297     20.177177     20.177177     40.354354
     -2.287287     16.854773     16.854773     33.709546
     -2.277277     15.595665     15.595665     31.191330
     -2.267267     16.456684     16.456684     32.913368
     -2.257257     19.136430     19.136430     38.272859
     -2.247247     23.096551     23.096551     46.193103
     -2.237237     27.702029     27.702029     55.404058
     -2.227227     32.340429     32.340429     64.680858
     -2.217217     36.494353     36.494353     72.988705
     -2.207207     39.761430     39.761430     79.522860
     -2.197197     41.840306     41.840306     83.680612
     -2.187187     42.518262     42.518262     85.036524
     -2.177177     41.691673     41.691673     83.383346
     -2.167167     39.420218     39.420218     78.840436
     -2.157157     35.976427     35.976427     71.952854
     -2.147147     31.834461     31.834461     63.668923
     -2.137137     27.567026     27.567026     55.134052
     -2.127127     23.677063     23.677063     47.354127
     -2.117117     20.442075     20.442075     40.884151
     -2.107107     17.853467     17.853467     35.706933
     -2.097097     15.683134     15.683134     31.366268
     -2.087087     13.637246     13.637246     27.274491
     -2.077077     11.511608     11.511608     23.023216
     -2.067067      9.272252      9.272252     18.544503
     -2.057057      7.037033      7.037033     14.074066
     -2.047047      4.990513      4.990513      9.981026
     -2.037037      3.290342      3.290342      6.580684
     -2.027027      2.011096      2.011096      4.022192
     -2.017017      1.138720      1.138720      2.277439
     -2.007007      0.600500      0.600500      1.200999
     -1.996997      0.305662      0.305662      0.611324
     -1.986987      0.178291      0.178291      0.356583
     -1.976977      0.176662      0.176662      0.353325
     -1.966967      0.301724      0.301724      0.603448
     -1.956957      0.598975      0.598975      1.197950
     -1.946947      1.154208      1.154208      2.308415
     -1.936937      2.079168      2.079168      4.158335
     -1.926927      3.482569      3.482569      6.965139
     -1.916917      5.427455      5.427455     10.854910
     -1.906907      7.885818      7.885818     15.771635
     -1.896897     10.709545     10.709545     21.419091
     -1.886887     13.635883     13.635883     27.271766
     -1.876877     16.333563     16.333563     32.667127
     -1.866867     18.478393     18.478393     36.956786
     -1.856857     19.834574     19.834574     39.669147
     -1.846847     20.316235     20.316235     40.632471
     -1.836837     20.010146     20.010146     40.020291
     -1.826827     19.149746     19.149746     38.299493
     -1.816817     18.041656     18.041656     36.083312
     -1.806807     16.961835     16.961835     33.923669
     -1.796797     16.057643     16.057643     32.115285
     -1.786787     15.301035     15.301035     30.602071
     -1.776777     14.522519     14.522519     29.045038
     -1.766767     13.516361     13.516361     27.032722
     -1.756757     12.167224     12.167224     24.334449
     -1.746747     10.534992     10.534992     21.069983
     -1.736737      8.858101      8.858101     17.716202
     -1.726727      7.479372      7.479372     14.958744
     -1.716717      6.733081      6.733081     13.466162
     -1.706707      6.840309      6.840309     13.680618
     -1.696697      7.845440      7.845440     15.690880
     -1.686687      9.605846      9.605846     19.211692
     -1.676677     11.830349     11.830349     23.660698
     -1.666667     14.150715     14.150715     28.301430
     -1.656657     16.202368     16.202368     32.404736
     -1.646647     17.689145     17.689145     35.378291
     -1.636637     18.417367     18.417367     36.834733
     -1.626627     18.303562     18.303562     36.607123
