# EIG2DOS: Utility for SIESTA to obtain the electronic density of states
#  E. Artacho, Apr 1999, A. Garcia, Apr 2012
#  Nick R. Papior, Feb 2017
# ------------------------------------------
# Eigenvalues calculated from a non-polarized calculation
# Eigenvalues read from siesta.EIG
# Kpoint weights read from siesta.KP
# Using smearing parameter:   0.0500
# Using 1000 points in the energy range
# Selected bands: 1 to: 2981
# Emin, Emax in file for selected band(s):    -27.0216433    218.3068650
# Nbands, Nspin, Nk   =   2981     1     1
# E_F                 =    -4.3094 eV --> (shifted to ZERO)
# Broadening          =     0.0500 eV
#
#        E            N(up)  (=)   N(down)         Ntot
     -5.000000     39.065942     39.065942     78.131883
     -4.989990     44.067770     44.067770     88.135540
     -4.979980     48.434914     48.434914     96.869829
     -4.969970     51.578500     51.578500    103.157000
     -4.959960     52.993947     52.993947    105.987893
     -4.949950     52.418493     52.418493    104.836985
     -4.939940     49.941936     49.941936     99.883872
     -4.929930     46.027393     46.027393     92.054787
     -4.919920     41.439675     41.439675     82.879351
     -4.909910     37.113558     37.113558     74.227117
     -4.899900     33.999079     33.999079     67.998158
     -4.889890     32.898530     32.898530     65.797060
     -4.879880     34.291063     34.291063     68.582125
     -4.869870     38.157375     38.157375     76.314750
     -4.859860     43.865324     43.865324     87.730648
     -4.849850     50.211051     50.211051    100.422102
     -4.839840     55.677154     55.677154    111.354309
     -4.829830     58.864086     58.864086    117.728172
     -4.819820     58.934417     58.934417    117.868833
     -4.809810     55.869694     55.869694    111.739388
     -4.799800     50.419686     50.419686    100.839372
     -4.789790     43.780500     43.780500     87.561000
     -4.779780     37.169544     37.169544     74.339089
     -4.769770     31.489493     31.489493     62.978985
     -4.759760     27.189141     27.189141     54.378281
     -4.749750     24.308360     24.308360     48.616721
     -4.739740     22.618069     22.618069     45.236138
     -4.729730     21.763917     21.763917     43.527835
     -4.719720     21.366563     21.366563     42.733126
     -4.709710     21.076464     21.076464     42.152927
     -4.699700     20.602832     20.602832     41.205665
     -4.689690     19.737395     19.737395     39.474791
     -4.679680     18.385099     18.385099     36.770199
     -4.669670     16.601843     16.601843     33.203687
     -4.659660     14.626409     14.626409     29.252817
     -4.649650     12.885336     12.885336     25.770671
     -4.639640     11.951024     11.951024     23.902047
     -4.629630     12.444064     12.444064     24.888127
     -4.619620     14.885625     14.885625     29.771249
     -4.609610     19.522474     19.522474     39.044949
     -4.599600     26.168002     26.168002     52.336004
     -4.589590     34.123361     34.123361     68.246722
     -4.579580     42.245585     42.245585     84.491171
     -4.569570     49.192740     49.192740     98.385480
     -4.559560     53.799409     53.799409    107.598818
     -4.549550     55.454290     55.454290    110.908581
     -4.539540     54.319332     54.319332    108.638664
     -4.529530     51.280177     51.280177    102.560354
     -4.519520     47.633300     47.633300     95.266600
     -4.509510     44.634866     44.634866     89.269733
     -4.499499     43.094465     43.094465     86.188929
     -4.489489     43.165508     43.165508     86.331016
     -4.479479     44.386943     44.386943     88.773887
     -4.469469     45.923622     45.923622     91.847243
     -4.459459     46.887032     46.887032     93.774064
     -4.449449     46.615079     46.615079     93.230157
     -4.439439     44.835061     44.835061     89.670123
     -4.429429     41.694459     41.694459     83.388919
     -4.419419     37.688341     37.688341     75.376682
     -4.409409     33.526403     33.526403     67.052806
     -4.399399     29.973312     29.973312     59.946623
     -4.389389     27.682337     27.682337     55.364674
     -4.379379     27.041509     27.041509     54.083018
     -4.369369     28.065249     28.065249     56.130499
     -4.359359     30.375264     30.375264     60.750528
     -4.349349     33.300248     33.300248     66.600495
     -4.339339     36.079349     36.079349     72.158698
     -4.329329     38.101540     38.101540     76.203080
     -4.319319     39.087970     39.087970     78.175939
     -4.309309     39.147835     39.147835     78.295670
     -4.299299     38.697450     38.697450     77.394901
     -4.289289     38.289381     38.289381     76.578761
     -4.279279     38.421141     38.421141     76.842282
     -4.269269     39.378217     39.378217     78.756434
     -4.259259     41.138738     41.138738     82.277477
     -4.249249     43.353057     43.353057     86.706113
     -4.239239     45.412177     45.412177     90.824353
     -4.229229     46.611532     46.611532     93.223064
     -4.219219     46.381459     46.381459     92.762919
     -4.209209     44.505194     44.505194     89.010388
     -4.199199     41.221604     41.221604     82.443208
     -4.189189     37.148360     37.148360     74.296721
     -4.179179     33.051361     33.051361     66.102723
     -4.169169     29.571473     29.571473     59.142946
     -4.159159     27.040824     27.040824     54.081647
     -4.149149     25.464603     25.464603     50.929206
     -4.139139     24.651000     24.651000     49.302000
     -4.129129     24.399993     24.399993     48.799987
     -4.119119     24.644831     24.644831     49.289662
     -4.109109     25.474442     25.474442     50.948884
     -4.099099     27.027206     27.027206     54.054411
     -4.089089     29.311737     29.311737     58.623474
     -4.079079     32.055401     32.055401     64.110803
     -4.069069     34.682106     34.682106     69.364212
     -4.059059     36.464176     36.464176     72.928352
     -4.049049     36.797429     36.797429     73.594857
     -4.039039     35.467479     35.467479     70.934958
     -4.029029     32.766222     32.766222     65.532443
     -4.019019     29.395269     29.395269     58.790538
     -4.009009     26.211466     26.211466     52.422933
     -3.998999     23.950807     23.950807     47.901615
     -3.988989     23.059809     23.059809     46.119619
     -3.978979     23.680397     23.680397     47.360794
     -3.968969     25.739448     25.739448     51.478897
     -3.958959     29.052077     29.052077     58.104153
     -3.948949     33.376713     33.376713     66.753426
     -3.938939     38.424262     38.424262     76.848523
     -3.928929     43.866556     43.866556     87.733111
     -3.918919     49.379795     49.379795     98.759591
     -3.908909     54.711529     54.711529    109.423058
     -3.898899     59.719466     59.719466    119.438931
     -3.888889     64.333430     64.333430    128.666860
     -3.878879     68.439798     68.439798    136.879597
     -3.868869     71.749027     71.749027    143.498054
     -3.858859     73.738906     73.738906    147.477812
     -3.848849     73.742609     73.742609    147.485219
     -3.838839     71.177428     71.177428    142.354856
     -3.828829     65.825302     65.825302    131.650604
     -3.818819     58.030716     58.030716    116.061433
     -3.808809     48.707696     48.707696     97.415392
     -3.798799     39.135067     39.135067     78.270135
     -3.788789     30.618082     30.618082     61.236164
     -3.778779     24.149037     24.149037     48.298074
     -3.768769     20.185631     20.185631     40.371261
     -3.758759     18.603173     18.603173     37.206346
     -3.748749     18.807553     18.807553     37.615105
     -3.738739     19.952275     19.952275     39.904549
     -3.728729     21.191080     21.191080     42.382160
     -3.718719     21.905246     21.905246     43.810491
     -3.708709     21.857819     21.857819     43.715639
     -3.698699     21.241090     21.241090     42.482181
     -3.688689     20.601660     20.601660     41.203320
     -3.678679     20.653872     20.653872     41.307743
     -3.668669     22.026003     22.026003     44.052007
     -3.658659     25.015006     25.015006     50.030013
     -3.648649     29.437941     29.437941     58.875881
     -3.638639     34.645563     34.645563     69.291126
     -3.628629     39.704053     39.704053     79.408107
     -3.618619     43.677385     43.677385     87.354770
     -3.608609     45.895767     45.895767     91.791535
     -3.598599     46.106663     46.106663     92.213326
     -3.588589     44.469512     44.469512     88.939023
     -3.578579     41.431299     41.431299     82.862598
     -3.568569     37.559395     37.559395     75.118790
     -3.558559     33.395579     33.395579     66.791157
     -3.548549     29.356891     29.356891     58.713782
     -3.538539     25.682741     25.682741     51.365482
     -3.528529     22.426644     22.426644     44.853287
     -3.518519     19.497295     19.497295     38.994589
     -3.508509     16.744779     16.744779     33.489558
     -3.498498     14.063959     14.063959     28.127918
     -3.488488     11.470691     11.470691     22.941382
     -3.478478      9.116472      9.116472     18.232943
     -3.468468      7.238590      7.238590     14.477181
     -3.458458      6.072709      6.072709     12.145418
     -3.448448      5.764662      5.764662     11.529324
     -3.438438      6.309405      6.309405     12.618810
     -3.428428      7.531929      7.531929     15.063857
     -3.418418      9.117208      9.117208     18.234415
     -3.408408     10.689738     10.689738     21.379477
     -3.398398     11.928763     11.928763     23.857526
     -3.388388     12.683964     12.683964     25.367928
     -3.378378     13.043534     13.043534     26.087068
     -3.368368     13.318526     13.318526     26.637052
     -3.358358     13.943870     13.943870     27.887740
     -3.348348     15.335780     15.335780     30.671560
     -3.338338     17.760559     17.760559     35.521119
     -3.328328     21.252050     21.252050     42.504100
     -3.318318     25.582200     25.582200     51.164399
     -3.308308     30.271283     30.271283     60.542565
     -3.298298     34.634522     34.634522     69.269044
     -3.288288     37.882164     37.882164     75.764328
     -3.278278     39.286719     39.286719     78.573438
     -3.268268     38.390343     38.390343     76.780686
     -3.258258     35.174482     35.174482     70.348965
     -3.248248     30.101574     30.101574     60.203149
     -3.238238     23.989350     23.989350     47.978700
     -3.228228     17.764475     17.764475     35.528951
     -3.218218     12.204534     12.204534     24.409069
     -3.208208      7.774067      7.774067     15.548135
     -3.198198      4.600121      4.600121      9.200243
     -3.188188      2.561403      2.561403      5.122806
     -3.178178      1.425899      1.425899      2.851798
     -3.168168      0.975901      0.975901      1.951801
     -3.158158      1.088092      1.088092      2.176184
     -3.148148      1.763538      1.763538      3.527075
     -3.138138      3.114294      3.114294      6.228588
     -3.128128      5.313097      5.313097     10.626195
     -3.118118      8.512014      8.512014     17.024029
     -3.108108     12.744256     12.744256     25.488512
     -3.098098     17.839212     17.839212     35.678423
     -3.088088     23.392010     23.392010     46.784021
     -3.078078     28.820008     28.820008     57.640016
     -3.068068     33.503362     33.503362     67.006724
     -3.058058     36.958723     36.958723     73.917445
     -3.048048     38.964543     38.964543     77.929086
     -3.038038     39.572222     39.572222     79.144445
     -3.028028     39.000345     39.000345     78.000690
     -3.018018     37.483266     37.483266     74.966533
     -3.008008     35.177031     35.177031     70.354063
     -2.997998     32.186598     32.186598     64.373196
     -2.987988     28.692199     28.692199     57.384399
     -2.977978     25.080437     25.080437     50.160874
     -2.967968     21.977802     21.977802     43.955603
     -2.957958     20.141803     20.141803     40.283606
     -2.947948     20.244291     20.244291     40.488582
     -2.937938     22.634180     22.634180     45.268359
     -2.927928     27.173108     27.173108     54.346216
     -2.917918     33.208150     33.208150     66.416300
     -2.907908     39.699903     39.699903     79.399806
     -2.897898     45.475062     45.475062     90.950124
     -2.887888     49.529404     49.529404     99.058807
     -2.877878     51.283720     51.283720    102.567439
     -2.867868     50.705975     50.705975    101.411951
     -2.857858     48.259590     48.259590     96.519179
     -2.847848     44.702826     44.702826     89.405652
     -2.837838     40.819367     40.819367     81.638735
     -2.827828     37.181809     37.181809     74.363618
     -2.817818     34.030616     34.030616     68.061233
     -2.807808     31.300412     31.300412     62.600824
     -2.797798     28.763990     28.763990     57.527980
     -2.787788     26.217045     26.217045     52.434091
     -2.777778     23.613906     23.613906     47.227811
     -2.767768     21.093845     21.093845     42.187690
     -2.757758     18.896498     18.896498     37.792996
     -2.747748     17.224272     17.224272     34.448544
     -2.737738     16.136999     16.136999     32.273999
     -2.727728     15.542291     15.542291     31.084583
     -2.717718     15.284923     15.284923     30.569847
     -2.707708     15.275208     15.275208     30.550416
     -2.697698     15.569412     15.569412     31.138824
     -2.687688     16.343672     16.343672     32.687345
     -2.677678     17.770856     17.770856     35.541712
     -2.667668     19.875036     19.875036     39.750072
     -2.657658     22.457968     22.457968     44.915936
     -2.647648     25.150782     25.150782     50.301563
     -2.637638     27.566101     27.566101     55.132203
     -2.627628     29.461259     29.461259     58.922519
     -2.617618     30.816423     30.816423     61.632847
     -2.607608     31.788425     31.788425     63.576850
     -2.597598     32.581927     32.581927     65.163854
     -2.587588     33.325823     33.325823     66.651646
     -2.577578     34.022719     34.022719     68.045437
     -2.567568     34.574809     34.574809     69.149617
     -2.557558     34.837266     34.837266     69.674533
     -2.547548     34.652054     34.652054     69.304108
     -2.537538     33.860472     33.860472     67.720943
     -2.527528     32.331295     32.331295     64.662589
     -2.517518     30.031766     30.031766     60.063531
     -2.507508     27.118664     27.118664     54.237329
     -2.497497     23.984075     23.984075     47.968151
     -2.487487     21.198012     21.198012     42.396024
     -2.477477     19.347159     19.347159     38.694317
     -2.467467     18.835116     18.835116     37.670232
     -2.457457     19.739389     19.739389     39.478777
     -2.447447     21.796447     21.796447     43.592895
     -2.437437     24.524263     24.524263     49.048527
     -2.427427     27.425354     27.425354     54.850707
     -2.417417     30.174465     30.174465     60.348929
     -2.407407     32.701606     32.701606     65.403212
     -2.397397     35.131123     35.131123     70.262245
     -2.387387     37.608624     37.608624     75.217248
     -2.377377     40.105778     40.105778     80.211557
     -2.367367     42.308638     42.308638     84.617276
     -2.357357     43.658588     43.658588     87.317175
     -2.347347     43.542181     43.542181     87.084362
     -2.337337     41.551593     41.551593     83.103187
     -2.327327     37.698599     37.698599     75.397198
     -2.317317     32.483162     32.483162     64.966325
     -2.307307     26.784699     26.784699     53.569399
     -2.297297     21.623934     21.623934     43.247867
     -2.287287     17.893295     17.893295     35.786590
     -2.277277     16.152057     16.152057     32.304115
     -2.267267     16.539860     16.539860     33.079721
     -2.257257     18.809891     18.809891     37.619781
     -2.247247     22.446343     22.446343     44.892686
     -2.237237     26.816264     26.816264     53.632529
     -2.227227     31.306987     31.306987     62.613974
     -2.217217     35.412022     35.412022     70.824044
     -2.207207     38.751107     38.751107     77.502213
     -2.197197     41.041580     41.041580     82.083159
     -2.187187     42.064582     42.064582     84.129163
     -2.177177     41.670829     41.670829     83.341659
     -2.167167     39.838544     39.838544     79.677087
     -2.157157     36.747323     36.747323     73.494646
     -2.147147     32.801926     32.801926     65.603852
     -2.137137     28.557340     28.557340     57.114680
     -2.127127     24.556394     24.556394     49.112787
     -2.117117     21.153792     21.153792     42.307583
     -2.107107     18.419397     18.419397     36.838794
     -2.097097     16.171939     16.171939     32.343877
     -2.087087     14.119293     14.119293     28.238586
     -2.077077     12.023896     12.023896     24.047792
     -2.067067      9.807756      9.807756     19.615511
     -2.057057      7.557586      7.557586     15.115171
     -2.047047      5.450778      5.450778     10.901555
     -2.037037      3.658425      3.658425      7.316850
     -2.027027      2.277445      2.277445      4.554891
     -2.017017      1.313386      1.313386      2.626773
     -2.007007      0.704162      0.704162      1.408324
     -1.996997      0.360344      0.360344      0.720688
     -1.986987      0.201140      0.201140      0.402280
     -1.976977      0.177203      0.177203      0.354406
     -1.966967      0.281458      0.281458      0.562916
     -1.956957      0.552156      0.552156      1.104311
     -1.946947      1.069482      1.069482      2.138963
     -1.936937      1.942481      1.942481      3.884963
     -1.926927      3.281733      3.281733      6.563467
     -1.916917      5.157881      5.157881     10.315761
     -1.906907      7.555728      7.555728     15.111457
     -1.896897     10.342302     10.342302     20.684604
     -1.886887     13.267696     13.267696     26.535393
     -1.876877     16.006614     16.006614     32.013228
     -1.866867     18.231245     18.231245     36.462490
     -1.856857     19.692722     19.692722     39.385444
     -1.846847     20.285486     20.285486     40.570971
     -1.836837     20.074915     20.074915     40.149831
     -1.826827     19.277545     19.277545     38.555090
     -1.816817     18.193473     18.193473     36.386946
     -1.806807     17.105498     17.105498     34.210997
     -1.796797     16.178395     16.178395     32.356790
     -1.786787     15.402863     15.402863     30.805725
     -1.776777     14.616665     14.616665     29.233329
     -1.766767     13.598608     13.598608     27.197215
     -1.756757     12.189762     12.189762     24.379524
     -1.746747     10.379884     10.379884     20.759768
     -1.736737      8.318853      8.318853     16.637707
     -1.726727      6.258350      6.258350     12.516700
     -1.716717      4.466563      4.466563      8.933126
     -1.706707      3.165184      3.165184      6.330369
     -1.696697      2.513551      2.513551      5.027102
     -1.686687      2.629240      2.629240      5.258481
     -1.676677      3.610123      3.610123      7.220245
     -1.666667      5.522423      5.522423     11.044846
     -1.656657      8.342250      8.342250     16.684499
     -1.646647     11.873524     11.873524     23.747047
     -1.636637     15.695047     15.695047     31.390093
     -1.626627     19.193159     19.193159     38.386318
