# EIG2DOS: Utility for SIESTA to obtain the electronic density of states
#  E. Artacho, Apr 1999, A. Garcia, Apr 2012
#  Nick R. Papior, Feb 2017
# ------------------------------------------
# Eigenvalues calculated from a non-polarized calculation
# Eigenvalues read from siesta.EIG
# Kpoint weights read from siesta.KP
# Using smearing parameter:   0.0500
# Using 1000 points in the energy range
# Selected bands: 1 to: 2981
# Emin, Emax in file for selected band(s):    -27.3363507    218.3964340
# Nbands, Nspin, Nk   =   2981     1     1
# E_F                 =    -4.2063 eV --> (shifted to ZERO)
# Broadening          =     0.0500 eV
#
#        E            N(up)  (=)   N(down)         Ntot
     -5.000000     37.120337     37.120337     74.240674
     -4.989990     41.196175     41.196175     82.392350
     -4.979980     44.169265     44.169265     88.338530
     -4.969970     45.532109     45.532109     91.064218
     -4.959960     45.074721     45.074721     90.149441
     -4.949950     42.954106     42.954106     85.908212
     -4.939940     39.655765     39.655765     79.311531
     -4.929930     35.884850     35.884850     71.769699
     -4.919920     32.440359     32.440359     64.880717
     -4.909910     30.101521     30.101521     60.203041
     -4.899900     29.517915     29.517915     59.035830
     -4.889890     31.081297     31.081297     62.162594
     -4.879880     34.785008     34.785008     69.570015
     -4.869870     40.126446     40.126446     80.252892
     -4.859860     46.133896     46.133896     92.267791
     -4.849850     51.566167     51.566167    103.132334
     -4.839840     55.249892     55.249892    110.499785
     -4.829830     56.434913     56.434913    112.869825
     -4.819820     55.020366     55.020366    110.040732
     -4.809810     51.555216     51.555216    103.110433
     -4.799800     47.018424     47.018424     94.036848
     -4.789790     42.477436     42.477436     84.954872
     -4.779780     38.761502     38.761502     77.523004
     -4.769770     36.259784     36.259784     72.519569
     -4.759760     34.890324     34.890324     69.780648
     -4.749750     34.221094     34.221094     68.442187
     -4.739740     33.680086     33.680086     67.360173
     -4.729730     32.772072     32.772072     65.544144
     -4.719720     31.225366     31.225366     62.450733
     -4.709710     29.025147     29.025147     58.050294
     -4.699700     26.344412     26.344412     52.688825
     -4.689690     23.434615     23.434615     46.869229
     -4.679680     20.552017     20.552017     41.104034
     -4.669670     17.959956     17.959956     35.919911
     -4.659660     15.984643     15.984643     31.969287
     -4.649650     15.056433     15.056433     30.112867
     -4.639640     15.669670     15.669670     31.339340
     -4.629630     18.239757     18.239757     36.479515
     -4.619620     22.898880     22.898880     45.797759
     -4.609610     29.320416     29.320416     58.640833
     -4.599600     36.672987     36.672987     73.345973
     -4.589590     43.766593     43.766593     87.533186
     -4.579580     49.372561     49.372561     98.745123
     -4.569570     52.608725     52.608725    105.217450
     -4.559560     53.231738     53.231738    106.463475
     -4.549550     51.706107     51.706107    103.412215
     -4.539540     49.016601     49.016601     98.033202
     -4.529530     46.304774     46.304774     92.609549
     -4.519520     44.480087     44.480087     88.960173
     -4.509510     43.951441     43.951441     87.902882
     -4.499499     44.560209     44.560209     89.120418
     -4.489489     45.710264     45.710264     91.420528
     -4.479479     46.621754     46.621754     93.243508
     -4.469469     46.604216     46.604216     93.208433
     -4.459459     45.255017     45.255017     90.510035
     -4.449449     42.531920     42.531920     85.063840
     -4.439439     38.704847     38.704847     77.409694
     -4.429429     34.237364     34.237364     68.474728
     -4.419419     29.662690     29.662690     59.325380
     -4.409409     25.497427     25.497427     50.994853
     -4.399399     22.195469     22.195469     44.390939
     -4.389389     20.114317     20.114317     40.228635
     -4.379379     19.468059     19.468059     38.936118
     -4.369369     20.271670     20.271670     40.543340
     -4.359359     22.312328     22.312328     44.624656
     -4.349349     25.186139     25.186139     50.372277
     -4.339339     28.406843     28.406843     56.813687
     -4.329329     31.548717     31.548717     63.097433
     -4.319319     34.361189     34.361189     68.722379
     -4.309309     36.804730     36.804730     73.609460
     -4.299299     38.996258     38.996258     77.992517
     -4.289289     41.092090     41.092090     82.184181
     -4.279279     43.157276     43.157276     86.314552
     -4.269269     45.070671     45.070671     90.141341
     -4.259259     46.504448     46.504448     93.008895
     -4.249249     46.999065     46.999065     93.998129
     -4.239239     46.125086     46.125086     92.250173
     -4.229229     43.681522     43.681522     87.363044
     -4.219219     39.845303     39.845303     79.690606
     -4.209209     35.188240     35.188240     70.376480
     -4.199199     30.530456     30.530456     61.060911
     -4.189189     26.680875     26.680875     53.361750
     -4.179179     24.177863     24.177863     48.355726
     -4.169169     23.146949     23.146949     46.293897
     -4.159159     23.334841     23.334841     46.669682
     -4.149149     24.292795     24.292795     48.585590
     -4.139139     25.612790     25.612790     51.225581
     -4.129129     27.098300     27.098300     54.196599
     -4.119119     28.785231     28.785231     57.570461
     -4.109109     30.803925     30.803925     61.607849
     -4.099099     33.158979     33.158979     66.317959
     -4.089089     35.558541     35.558541     71.117081
     -4.079079     37.411893     37.411893     74.823786
     -4.069069     38.027707     38.027707     76.055414
     -4.059059     36.926763     36.926763     73.853526
     -4.049049     34.105235     34.105235     68.210469
     -4.039039     30.102933     30.102933     60.205867
     -4.029029     25.838144     25.838144     51.676289
     -4.019019     22.297991     22.297991     44.595982
     -4.009009     20.239952     20.239952     40.479905
     -3.998999     20.031650     20.031650     40.063300
     -3.988989     21.662849     21.662849     43.325699
     -3.978979     24.872056     24.872056     49.744113
     -3.968969     29.293174     29.293174     58.586347
     -3.958959     34.554173     34.554173     69.108345
     -3.948949     40.316405     40.316405     80.632809
     -3.938939     46.283825     46.283825     92.567650
     -3.928929     52.210820     52.210820    104.421640
     -3.918919     57.907639     57.907639    115.815278
     -3.908909     63.219380     63.219380    126.438760
     -3.898899     67.964758     67.964758    135.929516
     -3.888889     71.858069     71.858069    143.716138
     -3.878879     74.468824     74.468824    148.937647
     -3.868869     75.268575     75.268575    150.537150
     -3.858859     73.772061     73.772061    147.544123
     -3.848849     69.726374     69.726374    139.452747
     -3.838839     63.269879     63.269879    126.539758
     -3.828829     54.988816     54.988816    109.977632
     -3.818819     45.838189     45.838189     91.676378
     -3.808809     36.944953     36.944953     73.889907
     -3.798799     29.353540     29.353540     58.707080
     -3.788789     23.791682     23.791682     47.583364
     -3.778779     20.524577     20.524577     41.049154
     -3.768769     19.334467     19.334467     38.668935
     -3.758759     19.624010     19.624010     39.248021
     -3.748749     20.608507     20.608507     41.217013
     -3.738739     21.542522     21.542522     43.085043
     -3.728729     21.922388     21.922388     43.844776
     -3.718719     21.614830     21.614830     43.229660
     -3.708709     20.879498     20.879498     41.758996
     -3.698699     20.276897     20.276897     40.553794
     -3.688689     20.481238     20.481238     40.962476
     -3.678679     22.046537     22.046537     44.093074
     -3.668669     25.195628     25.195628     50.391256
     -3.658659     29.704100     29.704100     59.408200
     -3.648649     34.926115     34.926115     69.852231
     -3.638639     39.959876     39.959876     79.919752
     -3.628629     43.895837     43.895837     87.791673
     -3.618619     46.057736     46.057736     92.115472
     -3.608609     46.154222     46.154222     92.308444
     -3.598599     44.303222     44.303222     88.606443
     -3.588589     40.945346     40.945346     81.890692
     -3.578579     36.696005     36.696005     73.392010
     -3.568569     32.187130     32.187130     64.374260
     -3.558559     27.932365     27.932365     55.864730
     -3.548549     24.235940     24.235940     48.471880
     -3.538539     21.162237     21.162237     42.324474
     -3.528529     18.578235     18.578235     37.156471
     -3.518519     16.261397     16.261397     32.522794
     -3.508509     14.035882     14.035882     28.071763
     -3.498498     11.881770     11.881770     23.763541
     -3.488488      9.972089      9.972089     19.944178
     -3.478478      8.625686      8.625686     17.251372
     -3.468468      8.197889      8.197889     16.395778
     -3.458458      8.947233      8.947233     17.894467
     -3.448448     10.916324     10.916324     21.832647
     -3.438438     13.860999     13.860999     27.721998
     -3.428428     17.259777     17.259777     34.519555
     -3.418418     20.424545     20.424545     40.849090
     -3.408408     22.700690     22.700690     45.401381
     -3.398398     23.696633     23.696633     47.393265
     -3.388388     23.448872     23.448872     46.897744
     -3.378378     22.440800     22.440800     44.881599
     -3.368368     21.454350     21.454350     42.908701
     -3.358358     21.309550     21.309550     42.619099
     -3.348348     22.592429     22.592429     45.184859
     -3.338338     25.464610     25.464610     50.929220
     -3.328328     29.603837     29.603837     59.207675
     -3.318318     34.278284     34.278284     68.556569
     -3.308308     38.529481     38.529481     77.058961
     -3.298298     41.423351     41.423351     82.846702
     -3.288288     42.309941     42.309941     84.619883
     -3.278278     41.011401     41.011401     82.022802
     -3.268268     37.859871     37.859871     75.719742
     -3.258258     33.555350     33.555350     67.110701
     -3.248248     28.896784     28.896784     57.793568
     -3.238238     24.508008     24.508008     49.016016
     -3.228228     20.683086     20.683086     41.366173
     -3.218218     17.405640     17.405640     34.811280
     -3.208208     14.499788     14.499788     28.999577
     -3.198198     11.810087     11.810087     23.620174
     -3.188188      9.317063      9.317063     18.634126
     -3.178178      7.154911      7.154911     14.309822
     -3.168168      5.559518      5.559518     11.119036
     -3.158158      4.798720      4.798720      9.597441
     -3.148148      5.118231      5.118231     10.236462
     -3.138138      6.701652      6.701652     13.403304
     -3.128128      9.623349      9.623349     19.246699
     -3.118118     13.783544     13.783544     27.567088
     -3.108108     18.846221     18.846221     37.692442
     -3.098098     24.226450     24.226450     48.452901
     -3.088088     29.169371     29.169371     58.338742
     -3.078078     32.922091     32.922091     65.844183
     -3.068068     34.942344     34.942344     69.884688
     -3.058058     35.051902     35.051902     70.103804
     -3.048048     33.458927     33.458927     66.917854
     -3.038038     30.639300     30.639300     61.278601
     -3.028028     27.143434     27.143434     54.286868
     -3.018018     23.431534     23.431534     46.863067
     -3.008008     19.812713     19.812713     39.625426
     -2.997998     16.493183     16.493183     32.986365
     -2.987988     13.675310     13.675310     27.350620
     -2.977978     11.631320     11.631320     23.262640
     -2.967968     10.703995     10.703995     21.407989
     -2.957958     11.233027     11.233027     22.466055
     -2.947948     13.439320     13.439320     26.878640
     -2.937938     17.310632     17.310632     34.621265
     -2.927928     22.528873     22.528873     45.057746
     -2.917918     28.471189     28.471189     56.942377
     -2.907908     34.302987     34.302987     68.605974
     -2.897898     39.155196     39.155196     78.310392
     -2.887888     42.342277     42.342277     84.684554
     -2.877878     43.547387     43.547387     87.094775
     -2.867868     42.898102     42.898102     85.796203
     -2.857858     40.891767     40.891767     81.783534
     -2.847848     38.193524     38.193524     76.387048
     -2.837838     35.391332     35.391332     70.782665
     -2.827828     32.815837     32.815837     65.631674
     -2.817818     30.501226     30.501226     61.002451
     -2.807808     28.290499     28.290499     56.580998
     -2.797798     26.014629     26.014629     52.029258
     -2.787788     23.641973     23.641973     47.283945
     -2.777778     21.320449     21.320449     42.640899
     -2.767768     19.303452     19.303452     38.606905
     -2.757758     17.819340     17.819340     35.638680
     -2.747748     16.972138     16.972138     33.944276
     -2.737738     16.731813     16.731813     33.463625
     -2.727728     17.006450     17.006450     34.012900
     -2.717718     17.730732     17.730732     35.461465
     -2.707708     18.896145     18.896145     37.792290
     -2.697698     20.496335     20.496335     40.992671
     -2.687688     22.432269     22.432269     44.864538
     -2.677678     24.462470     24.462470     48.924941
     -2.667668     26.258994     26.258994     52.517988
     -2.657658     27.553384     27.553384     55.106768
     -2.647648     28.283953     28.283953     56.567906
     -2.637638     28.643049     28.643049     57.286099
     -2.627628     28.983778     28.983778     57.967555
     -2.617618     29.637216     29.637216     59.274433
     -2.607608     30.746627     30.746627     61.493254
     -2.597598     32.206059     32.206059     64.412119
     -2.587588     33.716577     33.716577     67.433155
     -2.577578     34.903611     34.903611     69.807221
     -2.567568     35.423183     35.423183     70.846366
     -2.557558     35.023543     35.023543     70.047085
     -2.547548     33.578431     33.578431     67.156863
     -2.537538     31.123176     31.123176     62.246351
     -2.527528     27.897026     27.897026     55.794053
     -2.517518     24.357210     24.357210     48.714421
     -2.507508     21.121670     21.121670     42.243339
     -2.497497     18.829850     18.829850     37.659699
     -2.487487     17.960930     17.960930     35.921860
     -2.477477     18.681558     18.681558     37.363116
     -2.467467     20.790485     20.790485     41.580970
     -2.457457     23.789465     23.789465     47.578929
     -2.447447     27.057821     27.057821     54.115641
     -2.437437     30.064477     30.064477     60.128954
     -2.427427     32.533161     32.533161     65.066323
     -2.417417     34.491777     34.491777     68.983553
     -2.407407     36.181746     36.181746     72.363492
     -2.397397     37.862362     37.862362     75.724723
     -2.387387     39.596396     39.596396     79.192792
     -2.377377     41.122938     41.122938     82.245876
     -2.367367     41.895079     41.895079     83.790158
     -2.357357     41.286160     41.286160     82.572320
     -2.347347     38.879591     38.879591     77.759182
     -2.337337     34.704144     34.704144     69.408287
     -2.327327     29.297762     29.297762     58.595525
     -2.317317     23.571076     23.571076     47.142151
     -2.307307     18.542552     18.542552     37.085105
     -2.297297     15.067906     15.067906     30.135812
     -2.287287     13.663501     13.663501     27.327002
     -2.277277     14.456128     14.456128     28.912256
     -2.267267     17.230523     17.230523     34.461046
     -2.257257     21.523110     21.523110     43.046220
     -2.247247     26.721910     26.721910     53.443819
     -2.237237     32.154959     32.154959     64.309918
     -2.227227     37.164407     37.164407     74.328815
     -2.217217     41.168103     41.168103     82.336206
     -2.207207     43.711594     43.711594     87.423189
     -2.197197     44.514876     44.514876     89.029752
     -2.187187     43.516288     43.516288     87.032576
     -2.177177     40.905753     40.905753     81.811506
     -2.167167     37.124737     37.124737     74.249475
     -2.157157     32.805425     32.805425     65.610850
     -2.147147     28.640236     28.640236     57.280472
     -2.137137     25.210961     25.210961     50.421923
     -2.127127     22.839546     22.839546     45.679092
     -2.117117     21.522436     21.522436     43.044872
     -2.107107     20.972647     20.972647     41.945294
     -2.097097     20.742988     20.742988     41.485976
     -2.087087     20.373815     20.373815     40.747630
     -2.077077     19.513664     19.513664     39.027328
     -2.067067     17.987633     17.987633     35.975265
     -2.057057     15.812510     15.812510     31.625019
     -2.047047     13.167699     13.167699     26.335397
     -2.037037     10.333094     10.333094     20.666187
     -2.027027      7.609359      7.609359     15.218718
     -2.017017      5.242961      5.242961     10.485923
     -2.007007      3.379315      3.379315      6.758630
     -1.996997      2.056953      2.056953      4.113906
     -1.986987      1.238332      1.238332      2.476663
     -1.976977      0.859151      0.859151      1.718303
     -1.966967      0.874416      0.874416      1.748833
     -1.956957      1.284582      1.284582      2.569165
     -1.946947      2.133745      2.133745      4.267491
     -1.936937      3.480579      3.480579      6.961158
     -1.926927      5.351560      5.351560     10.703121
     -1.916917      7.694385      7.694385     15.388769
     -1.906907     10.353332     10.353332     20.706664
     -1.896897     13.082161     13.082161     26.164323
     -1.886887     15.593774     15.593774     31.187549
     -1.876877     17.627984     17.627984     35.255967
     -1.866867     19.011284     19.011284     38.022568
     -1.856857     19.689826     19.689826     39.379652
     -1.846847     19.730701     19.730701     39.461402
     -1.836837     19.295204     19.295204     38.590408
     -1.826827     18.588565     18.588565     37.177129
     -1.816817     17.792956     17.792956     35.585911
     -1.806807     17.001643     17.001643     34.003287
     -1.796797     16.184349     16.184349     32.368697
     -1.786787     15.209630     15.209630     30.419259
     -1.776777     13.922392     13.922392     27.844785
     -1.766767     12.239462     12.239462     24.478924
     -1.756757     10.211344     10.211344     20.422687
     -1.746747      8.017881      8.017881     16.035761
     -1.736737      5.906007      5.906007     11.812015
     -1.726727      4.109739      4.109739      8.219478
     -1.716717      2.795285      2.795285      5.590570
     -1.706707      2.050328      2.050328      4.100657
     -1.696697      1.905858      1.905858      3.811716
     -1.686687      2.361431      2.361431      4.722862
     -1.676677      3.388280      3.388280      6.776560
     -1.666667      4.904402      4.904402      9.808804
     -1.656657      6.739551      6.739551     13.479101
     -1.646647      8.622445      8.622445     17.244890
     -1.636637     10.217689     10.217689     20.435378
     -1.626627     11.215439     11.215439     22.430879
