# EIG2DOS: Utility for SIESTA to obtain the electronic density of states
#  E. Artacho, Apr 1999, A. Garcia, Apr 2012
#  Nick R. Papior, Feb 2017
# ------------------------------------------
# Eigenvalues calculated from a non-polarized calculation
# Eigenvalues read from siesta.EIG
# Kpoint weights read from siesta.KP
# Using smearing parameter:   0.0500
# Using 1000 points in the energy range
# Selected bands: 1 to: 2981
# Emin, Emax in file for selected band(s):    -27.0404647    218.3267730
# Nbands, Nspin, Nk   =   2981     1     1
# E_F                 =    -4.2806 eV --> (shifted to ZERO)
# Broadening          =     0.0500 eV
#
#        E            N(up)  (=)   N(down)         Ntot
     -5.000000     40.820496     40.820496     81.640992
     -4.989990     42.548490     42.548490     85.096979
     -4.979980     43.905463     43.905463     87.810925
     -4.969970     44.617358     44.617358     89.234717
     -4.959960     44.407105     44.407105     88.814211
     -4.949950     43.124388     43.124388     86.248776
     -4.939940     40.833738     40.833738     81.667476
     -4.929930     37.837863     37.837863     75.675726
     -4.919920     34.646785     34.646785     69.293570
     -4.909910     31.914211     31.914211     63.828423
     -4.899900     30.348153     30.348153     60.696306
     -4.889890     30.582995     30.582995     61.165990
     -4.879880     33.003664     33.003664     66.007327
     -4.869870     37.551989     37.551989     75.103978
     -4.859860     43.598948     43.598948     87.197897
     -4.849850     49.985905     49.985905     99.971810
     -4.839840     55.285711     55.285711    110.571422
     -4.829830     58.222867     58.222867    116.445733
     -4.819820     58.086806     58.086806    116.173611
     -4.809810     54.950453     54.950453    109.900905
     -4.799800     49.594513     49.594513     99.189026
     -4.789790     43.186461     43.186461     86.372921
     -4.779780     36.878030     36.878030     73.756061
     -4.769770     31.498042     31.498042     62.996084
     -4.759760     27.434601     27.434601     54.869202
     -4.749750     24.689725     24.689725     49.379450
     -4.739740     23.021178     23.021178     46.042356
     -4.729730     22.084868     22.084868     44.169737
     -4.719720     21.531488     21.531488     43.062975
     -4.709710     21.053796     21.053796     42.107592
     -4.699700     20.404724     20.404724     40.809448
     -4.689690     19.411160     19.411160     38.822319
     -4.679680     18.000534     18.000534     36.001069
     -4.669670     16.241546     16.241546     32.483092
     -4.659660     14.382291     14.382291     28.764582
     -4.649650     12.858070     12.858070     25.716140
     -4.639640     12.244360     12.244360     24.488720
     -4.629630     13.146171     13.146171     26.292342
     -4.619620     16.035752     16.035752     32.071505
     -4.609610     21.071862     21.071862     42.143723
     -4.599600     27.954482     27.954482     55.908964
     -4.589590     35.882184     35.882184     71.764369
     -4.579580     43.668387     43.668387     87.336775
     -4.569570     50.023395     50.023395    100.046791
     -4.559560     53.931259     53.931259    107.862517
     -4.549550     54.984115     54.984115    109.968230
     -4.539540     53.528793     53.528793    107.057586
     -4.529530     50.548959     50.548959    101.097918
     -4.519520     47.321308     47.321308     94.642616
     -4.509510     44.985162     44.985162     89.970324
     -4.499499     44.197633     44.197633     88.395266
     -4.489489     44.996925     44.996925     89.993850
     -4.479479     46.894978     46.894978     93.789957
     -4.469469     49.122326     49.122326     98.244652
     -4.459459     50.900476     50.900476    101.800953
     -4.449449     51.636656     51.636656    103.273311
     -4.439439     51.001661     51.001661    102.003322
     -4.429429     48.920227     48.920227     97.840454
     -4.419419     45.534494     45.534494     91.068988
     -4.409409     41.181852     41.181852     82.363704
     -4.399399     36.380469     36.380469     72.760939
     -4.389389     31.780667     31.780667     63.561334
     -4.379379     28.048790     28.048790     56.097580
     -4.369369     25.698544     25.698544     51.397088
     -4.359359     24.936280     24.936280     49.872559
     -4.349349     25.600039     25.600039     51.200077
     -4.339339     27.233237     27.233237     54.466475
     -4.329329     29.266267     29.266267     58.532535
     -4.319319     31.225739     31.225739     62.451478
     -4.309309     32.882483     32.882483     65.764965
     -4.299299     34.285284     34.285284     68.570569
     -4.289289     35.680755     35.680755     71.361510
     -4.279279     37.360434     37.360434     74.720868
     -4.269269     39.491800     39.491800     78.983600
     -4.259259     41.988239     41.988239     83.976479
     -4.249249     44.465561     44.465561     88.931122
     -4.239239     46.317426     46.317426     92.634851
     -4.229229     46.906837     46.906837     93.813675
     -4.219219     45.815265     45.815265     91.630530
     -4.209209     43.042746     43.042746     86.085492
     -4.199199     39.053032     39.053032     78.106064
     -4.189189     34.625146     34.625146     69.250292
     -4.179179     30.574536     30.574536     61.149073
     -4.169169     27.478713     27.478713     54.957426
     -4.159159     25.535945     25.535945     51.071890
     -4.149149     24.607503     24.607503     49.215005
     -4.139139     24.396518     24.396518     48.793037
     -4.129129     24.655936     24.655936     49.311871
     -4.119119     25.317626     25.317626     50.635253
     -4.109109     26.482708     26.482708     52.965417
     -4.099099     28.282515     28.282515     56.565030
     -4.089089     30.684795     30.684795     61.369590
     -4.079079     33.356159     33.356159     66.712319
     -4.069069     35.676970     35.676970     71.353939
     -4.059059     36.932831     36.932831     73.865661
     -4.049049     36.606605     36.606605     73.213211
     -4.039039     34.625535     34.625535     69.251070
     -4.029029     31.430552     31.430552     62.861104
     -4.019019     27.829428     27.829428     55.658856
     -4.009009     24.713731     24.713731     49.427462
     -3.998999     22.785198     22.785198     45.570397
     -3.988989     22.411456     22.411456     44.822913
     -3.978979     23.639688     23.639688     47.279375
     -3.968969     26.306944     26.306944     52.613887
     -3.958959     30.154551     30.154551     60.309102
     -3.948949     34.889904     34.889904     69.779808
     -3.938939     40.201766     40.201766     80.403533
     -3.928929     45.772038     45.772038     91.544075
     -3.918919     51.313282     51.313282    102.626565
     -3.908909     56.616874     56.616874    113.233749
     -3.898899     61.564912     61.564912    123.129824
     -3.888889     66.070791     66.070791    132.141582
     -3.878879     69.963139     69.963139    139.926279
     -3.868869     72.880354     72.880354    145.760709
     -3.858859     74.259136     74.259136    148.518272
     -3.848849     73.463187     73.463187    146.926374
     -3.838839     70.023537     70.023537    140.047074
     -3.828829     63.890850     63.890850    127.781701
     -3.818819     55.576156     55.576156    111.152312
     -3.808809     46.098572     46.098572     92.197145
     -3.798799     36.746258     36.746258     73.492516
     -3.788789     28.740991     28.740991     57.481982
     -3.778779     22.932322     22.932322     45.864643
     -3.768769     19.621848     19.621848     39.243697
     -3.758759     18.556013     18.556013     37.112025
     -3.748749     19.064660     19.064660     38.129320
     -3.738739     20.287264     20.287264     40.574527
     -3.728729     21.420967     21.420967     42.841935
     -3.718719     21.932599     21.932599     43.865197
     -3.708709     21.689615     21.689615     43.379231
     -3.698699     20.979816     20.979816     41.959632
     -3.688689     20.409636     20.409636     40.819272
     -3.678679     20.698910     20.698910     41.397819
     -3.668669     22.423390     22.423390     44.846780
     -3.658659     25.784402     25.784402     51.568803
     -3.648649     30.490873     30.490873     60.981746
     -3.638639     35.808883     35.808883     71.617765
     -3.628629     40.770267     40.770267     81.540535
     -3.618619     44.461537     44.461537     88.923074
     -3.608609     46.277384     46.277384     92.554767
     -3.598599     46.045210     46.045210     92.090420
     -3.588589     43.996021     43.996021     87.992043
     -3.578579     40.627665     40.627665     81.255329
     -3.568569     36.535928     36.535928     73.071855
     -3.558559     32.270713     32.270713     64.541427
     -3.548549     28.238371     28.238371     56.476742
     -3.538539     24.650925     24.650925     49.301849
     -3.528529     21.524526     21.524526     43.049052
     -3.518519     18.732296     18.732296     37.464592
     -3.508509     16.102360     16.102360     32.204721
     -3.498498     13.526435     13.526435     27.052869
     -3.488488     11.031895     11.031895     22.063790
     -3.478478      8.786099      8.786099     17.572199
     -3.468468      7.036091      7.036091     14.072182
     -3.458458      6.015151      6.015151     12.030301
     -3.448448      5.854088      5.854088     11.708175
     -3.438438      6.524179      6.524179     13.048357
     -3.428428      7.825420      7.825420     15.650840
     -3.418418      9.426005      9.426005     18.852011
     -3.408408     10.951104     10.951104     21.902208
     -3.398398     12.102767     12.102767     24.205534
     -3.388388     12.771867     12.771867     25.543734
     -3.378378     13.093829     13.093829     26.187658
     -3.368368     13.416963     13.416963     26.833926
     -3.358358     14.190963     14.190963     28.381927
     -3.348348     15.819809     15.819809     31.639618
     -3.338338     18.533037     18.533037     37.066074
     -3.328328     22.308298     22.308298     44.616597
     -3.318318     26.847523     26.847523     53.695046
     -3.308308     31.596467     31.596467     63.192935
     -3.298298     35.809570     35.809570     71.619140
     -3.288288     38.676213     38.676213     77.352425
     -3.278278     39.510291     39.510291     79.020582
     -3.268268     37.958994     37.958994     75.917989
     -3.258258     34.144019     34.144019     68.288038
     -3.248248     28.654421     28.654421     57.308843
     -3.238238     22.375822     22.375822     44.751643
     -3.228228     16.225894     16.225894     32.451788
     -3.218218     10.911968     10.911968     21.823937
     -3.208208      6.804075      6.804075     13.608151
     -3.198198      3.947782      3.947782      7.895564
     -3.188188      2.175169      2.175169      4.350339
     -3.178178      1.245468      1.245468      2.490937
     -3.168168      0.960630      0.960630      1.921261
     -3.158158      1.232052      1.232052      2.464103
     -3.148148      2.098393      2.098393      4.196785
     -3.138138      3.702083      3.702083      7.404166
     -3.128128      6.230400      6.230400     12.460800
     -3.118118      9.828159      9.828159     19.656317
     -3.108108     14.499536     14.499536     28.999072
     -3.098098     20.031579     20.031579     40.063157
     -3.088088     25.977897     25.977897     51.955795
     -3.078078     31.725479     31.725479     63.450958
     -3.068068     36.631176     36.631176     73.262353
     -3.058058     40.176016     40.176016     80.352031
     -3.048048     42.071905     42.071905     84.143810
     -3.038038     42.281227     42.281227     84.562454
     -3.028028     40.961581     40.961581     81.923161
     -3.018018     38.389591     38.389591     76.779182
     -3.008008     34.917876     34.917876     69.835752
     -2.997998     30.978197     30.978197     61.956393
     -2.987988     27.095454     27.095454     54.190908
     -2.977978     23.861138     23.861138     47.722276
     -2.967968     21.843279     21.843279     43.686558
     -2.957958     21.458489     21.458489     42.916979
     -2.947948     22.861760     22.861760     45.723519
     -2.937938     25.900861     25.900861     51.801722
     -2.927928     30.146361     30.146361     60.292721
     -2.917918     34.975421     34.975421     69.950843
     -2.907908     39.679188     39.679188     79.358375
     -2.897898     43.576168     43.576168     87.152336
     -2.887888     46.126227     46.126227     92.252455
     -2.877878     47.034700     47.034700     94.069399
     -2.867868     46.318135     46.318135     92.636270
     -2.857858     44.294344     44.294344     88.588689
     -2.847848     41.478517     41.478517     82.957034
     -2.837838     38.410737     38.410737     76.821474
     -2.827828     35.482072     35.482072     70.964145
     -2.817818     32.836522     32.836522     65.673043
     -2.807808     30.392830     30.392830     60.785661
     -2.797798     27.969551     27.969551     55.939102
     -2.787788     25.442923     25.442923     50.885846
     -2.777778     22.851519     22.851519     45.703038
     -2.767768     20.393933     20.393933     40.787865
     -2.757758     18.328203     18.328203     36.656405
     -2.747748     16.838528     16.838528     33.677057
     -2.737738     15.952565     15.952565     31.905130
     -2.727728     15.559603     15.559603     31.119207
     -2.717718     15.515004     15.515004     31.030007
     -2.707708     15.759204     15.759204     31.518408
     -2.697698     16.367860     16.367860     32.735720
     -2.687688     17.493292     17.493292     34.986585
     -2.677678     19.230496     19.230496     38.460991
     -2.667668     21.495854     21.495854     42.991708
     -2.657658     24.004910     24.004910     48.009820
     -2.647648     26.374572     26.374572     52.749144
     -2.637638     28.293379     28.293379     56.586758
     -2.627628     29.656483     29.656483     59.312966
     -2.617618     30.583960     30.583960     61.167920
     -2.607608     31.317900     31.317900     62.635800
     -2.597598     32.070379     32.070379     64.140757
     -2.587588     32.915834     32.915834     65.831668
     -2.577578     33.776049     33.776049     67.552099
     -2.567568     34.475415     34.475415     68.950830
     -2.557558     34.806948     34.806948     69.613896
     -2.547548     34.570426     34.570426     69.140853
     -2.537538     33.593956     33.593956     67.187912
     -2.527528     31.776362     31.776362     63.552724
     -2.517518     29.163635     29.163635     58.327271
     -2.507508     26.022213     26.022213     52.044425
     -2.497497     22.844748     22.844748     45.689496
     -2.487487     20.249382     20.249382     40.498764
     -2.477477     18.795559     18.795559     37.591117
     -2.467467     18.794336     18.794336     37.588673
     -2.457457     20.202805     20.202805     40.405609
     -2.447447     22.655128     22.655128     45.310255
     -2.437437     25.618694     25.618694     51.237389
     -2.427427     28.605010     28.605010     57.210021
     -2.417417     31.338409     31.338409     62.676819
     -2.407407     33.804133     33.804133     67.608266
     -2.397397     36.154093     36.154093     72.308186
     -2.387387     38.518441     38.518441     77.036882
     -2.377377     40.820376     40.820376     81.640752
     -2.367367     42.695064     42.695064     85.390129
     -2.357357     43.567097     43.567097     87.134194
     -2.347347     42.864671     42.864671     85.729343
     -2.337337     40.278829     40.278829     80.557658
     -2.327327     35.948680     35.948680     71.897359
     -2.317317     30.485471     30.485471     60.970943
     -2.307307     24.824087     24.824087     49.648173
     -2.297297     19.968256     19.968256     39.936512
     -2.287287     16.733424     16.733424     33.466848
     -2.277277     15.574474     15.574474     31.148948
     -2.267267     16.534672     16.534672     33.069344
     -2.257257     19.301728     19.301728     38.603456
     -2.247247     23.329072     23.329072     46.658145
     -2.237237     27.975633     27.975633     55.951267
     -2.227227     32.624949     32.624949     65.249898
     -2.217217     36.757940     36.757940     73.515879
     -2.207207     39.973430     39.973430     79.946861
     -2.197197     41.974718     41.974718     83.949435
     -2.187187     42.557757     42.557757     85.115513
     -2.177177     41.631724     41.631724     83.263448
     -2.167167     39.271917     39.271917     78.543834
     -2.157157     35.765844     35.765844     71.531687
     -2.147147     31.597028     31.597028     63.194057
     -2.137137     27.337786     27.337786     54.675572
     -2.127127     23.480384     23.480384     46.960769
     -2.117117     20.285565     20.285565     40.571130
     -2.107107     17.729037     17.729037     35.458075
     -2.097097     15.574392     15.574392     31.148785
     -2.087087     13.529062     13.529062     27.058124
     -2.077077     11.396996     11.396996     22.793991
     -2.067067      9.153820      9.153820     18.307640
     -2.057057      6.923599      6.923599     13.847199
     -2.047047      4.891754      4.891754      9.783508
     -2.037037      3.212556      3.212556      6.425112
     -2.027027      1.955644      1.955644      3.911288
     -2.017017      1.102912      1.102912      2.205824
     -2.007007      0.579665      0.579665      1.159329
     -1.996997      0.295153      0.295153      0.590306
     -1.986987      0.174804      0.174804      0.349607
     -1.976977      0.178841      0.178841      0.357682
     -1.966967      0.310317      0.310317      0.620634
     -1.956957      0.616701      0.616701      1.233402
     -1.946947      1.185273      1.185273      2.370546
     -1.936937      2.128222      2.128222      4.256444
     -1.926927      3.553000      3.553000      7.105999
     -1.916917      5.519323      5.519323     11.038646
     -1.906907      7.994220      7.994220     15.988441
     -1.896897     10.824354     10.824354     21.648708
     -1.886887     13.743442     13.743442     27.486884
     -1.876877     16.420062     16.420062     32.840125
     -1.866867     18.533781     18.533781     37.067562
     -1.856857     19.855564     19.855564     39.711128
     -1.846847     20.307297     20.307297     40.614595
     -1.836837     19.982098     19.982098     39.964196
     -1.826827     19.116261     19.116261     38.232521
     -1.816817     18.014573     18.014573     36.029147
     -1.806807     16.946721     16.946721     33.893441
     -1.796797     16.051259     16.051259     32.102517
     -1.786787     15.291912     15.291912     30.583824
     -1.776777     14.494393     14.494393     28.988786
     -1.766767     13.452489     13.452489     26.904977
     -1.756757     12.052868     12.052868     24.105736
     -1.746747     10.356619     10.356619     20.713237
     -1.736737      8.600704      8.600704     17.201409
     -1.726727      7.125979      7.125979     14.251959
     -1.716717      6.270680      6.270680     12.541360
     -1.706707      6.273001      6.273001     12.546001
     -1.696697      7.209758      7.209758     14.419515
     -1.686687      8.978398      8.978398     17.956796
     -1.676677     11.318394     11.318394     22.636788
     -1.666667     13.863695     13.863695     27.727390
     -1.656657     16.213738     16.213738     32.427476
     -1.646647     18.005972     18.005972     36.011944
     -1.636637     18.973749     18.973749     37.947499
     -1.626627     18.982499     18.982499     37.964997
