# EIG2DOS: Utility for SIESTA to obtain the electronic density of states
#  E. Artacho, Apr 1999, A. Garcia, Apr 2012
#  Nick R. Papior, Feb 2017
# ------------------------------------------
# Eigenvalues calculated from a non-polarized calculation
# Eigenvalues read from siesta.EIG
# Kpoint weights read from siesta.KP
# Using smearing parameter:   0.0500
# Using 1000 points in the energy range
# Selected bands: 1 to: 2981
# Emin, Emax in file for selected band(s):    -27.1032706    218.3652760
# Nbands, Nspin, Nk   =   2981     1     1
# E_F                 =    -4.2332 eV --> (shifted to ZERO)
# Broadening          =     0.0500 eV
#
#        E            N(up)  (=)   N(down)         Ntot
     -5.000000     35.466602     35.466602     70.933204
     -4.989990     39.405388     39.405388     78.810775
     -4.979980     42.515360     42.515360     85.030719
     -4.969970     44.301874     44.301874     88.603749
     -4.959960     44.478421     44.478421     88.956841
     -4.949950     43.057429     43.057429     86.114857
     -4.939940     40.357269     40.357269     80.714538
     -4.929930     36.939920     36.939920     73.879840
     -4.919920     33.517597     33.517597     67.035193
     -4.909910     30.857044     30.857044     61.714088
     -4.899900     29.679470     29.679470     59.358941
     -4.889890     30.533094     30.533094     61.066188
     -4.879880     33.630715     33.630715     67.261431
     -4.869870     38.694451     38.694451     77.388902
     -4.859860     44.896632     44.896632     89.793264
     -4.849850     50.981779     50.981779    101.963559
     -4.839840     55.581140     55.581140    111.162280
     -4.829830     57.622914     57.622914    115.245828
     -4.819820     56.668316     56.668316    113.336631
     -4.809810     53.021936     53.021936    106.043873
     -4.799800     47.571763     47.571763     95.143527
     -4.789790     41.445952     41.445952     82.891903
     -4.779780     35.649858     35.649858     71.299716
     -4.769770     30.828501     30.828501     61.657002
     -4.759760     27.211646     27.211646     54.423293
     -4.749750     24.704773     24.704773     49.409545
     -4.739740     23.041004     23.041004     46.082008
     -4.729730     21.916046     21.916046     43.832092
     -4.719720     21.065810     21.065810     42.131620
     -4.709710     20.286181     20.286181     40.572362
     -4.699700     19.421193     19.421193     38.842386
     -4.689690     18.355601     18.355601     36.711201
     -4.679680     17.038666     17.038666     34.077332
     -4.669670     15.540380     15.540380     31.080760
     -4.659660     14.111423     14.111423     28.222846
     -4.649650     13.202053     13.202053     26.404106
     -4.639640     13.403564     13.403564     26.807128
     -4.629630     15.304872     15.304872     30.609743
     -4.619620     19.293278     19.293278     38.586555
     -4.609610     25.360765     25.360765     50.721530
     -4.599600     32.995371     32.995371     65.990742
     -4.589590     41.228057     41.228057     82.456114
     -4.579580     48.857389     48.857389     97.714778
     -4.569570     54.794912     54.794912    109.589825
     -4.559560     58.401245     58.401245    116.802490
     -4.549550     59.666847     59.666847    119.333694
     -4.539540     59.154909     59.154909    118.309818
     -4.529530     57.736569     57.736569    115.473138
     -4.519520     56.244201     56.244201    112.488402
     -4.509510     55.192489     55.192489    110.384978
     -4.499499     54.664568     54.664568    109.329137
     -4.489489     54.373089     54.373089    108.746178
     -4.479479     53.835322     53.835322    107.670645
     -4.469469     52.575415     52.575415    105.150829
     -4.459459     50.281869     50.281869    100.563739
     -4.449449     46.883892     46.883892     93.767783
     -4.439439     42.546981     42.546981     85.093962
     -4.429429     37.614577     37.614577     75.229155
     -4.419419     32.532241     32.532241     65.064483
     -4.409409     27.781543     27.781543     55.563086
     -4.399399     23.828499     23.828499     47.656998
     -4.389389     21.072004     21.072004     42.144009
     -4.379379     19.778041     19.778041     39.556081
     -4.369369     20.007918     20.007918     40.015836
     -4.359359     21.575456     21.575456     43.150911
     -4.349349     24.073224     24.073224     48.146448
     -4.339339     26.980554     26.980554     53.961107
     -4.329329     29.820830     29.820830     59.641660
     -4.319319     32.303221     32.303221     64.606442
     -4.309309     34.387131     34.387131     68.774262
     -4.299299     36.243684     36.243684     72.487369
     -4.289289     38.133619     38.133619     76.267238
     -4.279279     40.250596     40.250596     80.501191
     -4.269269     42.585851     42.585851     85.171702
     -4.259259     44.862572     44.862572     89.725144
     -4.249249     46.573637     46.573637     93.147274
     -4.239239     47.130162     47.130162     94.260324
     -4.229229     46.084781     46.084781     92.169563
     -4.219219     43.345267     43.345267     86.690534
     -4.209209     39.274398     39.274398     78.548796
     -4.199199     34.609534     34.609534     69.219069
     -4.189189     30.221906     30.221906     60.443811
     -4.179179     26.822072     26.822072     53.644145
     -4.169169     24.748505     24.748505     49.497011
     -4.159159     23.930749     23.930749     47.861499
     -4.149149     24.026905     24.026905     48.053811
     -4.139139     24.651331     24.651331     49.302661
     -4.129129     25.573468     25.573468     51.146937
     -4.119119     26.791428     26.791428     53.582856
     -4.109109     28.447844     28.447844     56.895689
     -4.099099     30.633926     30.633926     61.267853
     -4.089089     33.189996     33.189996     66.379991
     -4.079079     35.626012     35.626012     71.252024
     -4.069069     37.234392     37.234392     74.468783
     -4.059059     37.364435     37.364435     74.728870
     -4.049049     35.727581     35.727581     71.455162
     -4.039039     32.571541     32.571541     65.143082
     -4.029029     28.627115     28.627115     57.254231
     -4.019019     24.856262     24.856262     49.712523
     -4.009009     22.133809     22.133809     44.267618
     -3.998999     21.014275     21.014275     42.028549
     -3.988989     21.666465     21.666465     43.332930
     -3.978979     23.956175     23.956175     47.912350
     -3.968969     27.589115     27.589115     55.178230
     -3.958959     32.226696     32.226696     64.453392
     -3.948949     37.539800     37.539800     75.079599
     -3.938939     43.221628     43.221628     86.443256
     -3.928929     48.998399     48.998399     97.996798
     -3.918919     54.651150     54.651150    109.302301
     -3.908909     60.024908     60.024908    120.049817
     -3.898899     64.991946     64.991946    129.983891
     -3.888889     69.366307     69.366307    138.732614
     -3.878879     72.813909     72.813909    145.627818
     -3.868869     74.827317     74.827317    149.654634
     -3.858859     74.813438     74.813438    149.626877
     -3.848849     72.284602     72.284602    144.569204
     -3.838839     67.082066     67.082066    134.164132
     -3.828829     59.531818     59.531818    119.063636
     -3.818819     50.453040     50.453040    100.906079
     -3.808809     41.000100     41.000100     82.000199
     -3.798799     32.388624     32.388624     64.777248
     -3.788789     25.600936     25.600936     51.201873
     -3.778779     21.167558     21.167558     42.335116
     -3.768769     19.085177     19.085177     38.170354
     -3.758759     18.880311     18.880311     37.760623
     -3.748749     19.785182     19.785182     39.570363
     -3.738739     20.969667     20.969667     41.939334
     -3.728729     21.769285     21.769285     43.538571
     -3.718719     21.856633     21.856633     43.713265
     -3.708709     21.317152     21.317152     42.634303
     -3.698699     20.608347     20.608347     41.216695
     -3.688689     20.406083     20.406083     40.812165
     -3.678679     21.372161     21.372161     42.744321
     -3.668669     23.907968     23.907968     47.815937
     -3.658659     27.976367     27.976367     55.952735
     -3.648649     33.063013     33.063013     66.126027
     -3.638639     38.302561     38.302561     76.605121
     -3.628629     42.728487     42.728487     85.456975
     -3.618619     45.550293     45.550293     91.100586
     -3.608609     46.351969     46.351969     92.703938
     -3.598599     45.149195     45.149195     90.298391
     -3.588589     42.312355     42.312355     84.624710
     -3.578579     38.414148     38.414148     76.828296
     -3.568569     34.068053     34.068053     68.136106
     -3.558559     29.797696     29.797696     59.595392
     -3.548549     25.949666     25.949666     51.899331
     -3.538539     22.654434     22.654434     45.308869
     -3.528529     19.844107     19.844107     39.688215
     -3.518519     17.329820     17.329820     34.659640
     -3.508509     14.917874     14.917874     29.835749
     -3.498498     12.518890     12.518890     25.037781
     -3.488488     10.202271     10.202271     20.404542
     -3.478478      8.174936      8.174936     16.349873
     -3.468468      6.700289      6.700289     13.400578
     -3.458458      5.996064      5.996064     11.992128
     -3.448448      6.148978      6.148978     12.297956
     -3.438438      7.070087      7.070087     14.140174
     -3.428428      8.502017      8.502017     17.004035
     -3.418418     10.080999     10.080999     20.161999
     -3.408408     11.445232     11.445232     22.890464
     -3.398398     12.361806     12.361806     24.723612
     -3.388388     12.826155     12.826155     25.652311
     -3.378378     13.087990     13.087990     26.175980
     -3.368368     13.583973     13.583973     27.167945
     -3.358358     14.797970     14.797970     29.595941
     -3.348348     17.099423     17.099423     34.198847
     -3.338338     20.611881     20.611881     41.223761
     -3.328328     25.142194     25.142194     50.284388
     -3.318318     30.178011     30.178011     60.356023
     -3.308308     34.953753     34.953753     69.907505
     -3.298298     38.587433     38.587433     77.174865
     -3.288288     40.280821     40.280821     80.561642
     -3.278278     39.542269     39.542269     79.084538
     -3.268268     36.354270     36.354270     72.708541
     -3.258258     31.204578     31.204578     62.409157
     -3.248248     24.950550     24.950550     49.901101
     -3.238238     18.567532     18.567532     37.135063
     -3.228228     12.889980     12.889980     25.779960
     -3.218218      8.449221      8.449221     16.898442
     -3.208208      5.450668      5.450668     10.901337
     -3.198198      3.859791      3.859791      7.719581
     -3.188188      3.524838      3.524838      7.049676
     -3.178178      4.270809      4.270809      8.541617
     -3.168168      5.937544      5.937544     11.875087
     -3.158158      8.375806      8.375806     16.751612
     -3.148148     11.435111     11.435111     22.870223
     -3.138138     14.968458     14.968458     29.936917
     -3.128128     18.852036     18.852036     37.704072
     -3.118118     22.994558     22.994558     45.989115
     -3.108108     27.311781     27.311781     54.623563
     -3.098098     31.669670     31.669670     63.339339
     -3.088088     35.833091     35.833091     71.666181
     -3.078078     39.465209     39.465209     78.930417
     -3.068068     42.193022     42.193022     84.386044
     -3.058058     43.707453     43.707453     87.414907
     -3.048048     43.840864     43.840864     87.681727
     -3.038038     42.583596     42.583596     85.167192
     -3.028028     40.048631     40.048631     80.097263
     -3.018018     36.429037     36.429037     72.858074
     -3.008008     31.987566     31.987566     63.975133
     -2.997998     27.079607     27.079607     54.159213
     -2.987988     22.175049     22.175049     44.350097
     -2.977978     17.840515     17.840515     35.681029
     -2.967968     14.669148     14.669148     29.338295
     -2.957958     13.175557     13.175557     26.351114
     -2.947948     13.686455     13.686455     27.372910
     -2.937938     16.252476     16.252476     32.504952
     -2.927928     20.598563     20.598563     41.197127
     -2.917918     26.129445     26.129445     52.258891
     -2.907908     32.007402     32.007402     64.014804
     -2.897898     37.307421     37.307421     74.614842
     -2.887888     41.224561     41.224561     82.449123
     -2.877878     43.273007     43.273007     86.546014
     -2.867868     43.400494     43.400494     86.800987
     -2.857858     41.963614     41.963614     83.927229
     -2.847848     39.565406     39.565406     79.130811
     -2.837838     36.820340     36.820340     73.640680
     -2.827828     34.148343     34.148343     68.296686
     -2.817818     31.685802     31.685802     63.371603
     -2.807808     29.342110     29.342110     58.684220
     -2.797798     26.956186     26.956186     53.912372
     -2.787788     24.459321     24.459321     48.918642
     -2.777778     21.955233     21.955233     43.910467
     -2.767768     19.681867     19.681867     39.363733
     -2.757758     17.890503     17.890503     35.781006
     -2.747748     16.724299     16.724299     33.448598
     -2.737738     16.172920     16.172920     32.345839
     -2.727728     16.126192     16.126192     32.252385
     -2.717718     16.481798     16.481798     32.963595
     -2.707708     17.224755     17.224755     34.449511
     -2.697698     18.416572     18.416572     36.833144
     -2.687688     20.098105     20.098105     40.196209
     -2.677678     22.177517     22.177517     44.355033
     -2.667668     24.393801     24.393801     48.787602
     -2.657658     26.399244     26.399244     52.798487
     -2.647648     27.920651     27.920651     55.841303
     -2.637638     28.898521     28.898521     57.797042
     -2.627628     29.511684     29.511684     59.023369
     -2.617618     30.068872     30.068872     60.137744
     -2.607608     30.835082     30.835082     61.670165
     -2.597598     31.896820     31.896820     63.793639
     -2.587588     33.132955     33.132955     66.265910
     -2.577578     34.281466     34.281466     68.562933
     -2.567568     35.038464     35.038464     70.076929
     -2.557558     35.131640     35.131640     70.263280
     -2.547548     34.358587     34.358587     68.717174
     -2.537538     32.620211     32.620211     65.240422
     -2.527528     29.973843     29.973843     59.947686
     -2.517518     26.689334     26.689334     53.378668
     -2.507508     23.257565     23.257565     46.515130
     -2.497497     20.309548     20.309548     40.619096
     -2.487487     18.452455     18.452455     36.904910
     -2.477477     18.081787     18.081787     36.163575
     -2.467467     19.250961     19.250961     38.501921
     -2.457457     21.658831     21.658831     43.317663
     -2.447447     24.765284     24.765284     49.530568
     -2.437437     27.989698     27.989698     55.979395
     -2.427427     30.910433     30.910433     61.820867
     -2.417417     33.380579     33.380579     66.761159
     -2.407407     35.508745     35.508745     71.017489
     -2.397397     37.512129     37.512129     75.024258
     -2.387387     39.509062     39.509062     79.018124
     -2.377377     41.353110     41.353110     82.706220
     -2.367367     42.601016     42.601016     85.202033
     -2.357357     42.649506     42.649506     85.299012
     -2.347347     40.992364     40.992364     81.984727
     -2.337337     37.481024     37.481024     74.962049
     -2.327327     32.461394     32.461394     64.922788
     -2.317317     26.719026     26.719026     53.438053
     -2.307307     21.260974     21.260974     42.521947
     -2.297297     17.036887     17.036887     34.073774
     -2.287287     14.712782     14.712782     29.425563
     -2.277277     14.563188     14.563188     29.126377
     -2.267267     16.482120     16.482120     32.964239
     -2.257257     20.070833     20.070833     40.141666
     -2.247247     24.753247     24.753247     49.506494
     -2.237237     29.884449     29.884449     59.768898
     -2.227227     34.835280     34.835280     69.670559
     -2.217217     39.048502     39.048502     78.097005
     -2.207207     42.071680     42.071680     84.143360
     -2.197197     43.580261     43.580261     87.160522
     -2.187187     43.406554     43.406554     86.813109
     -2.177177     41.579103     41.579103     83.158207
     -2.167167     38.354164     38.354164     76.708328
     -2.157157     34.202557     34.202557     68.405115
     -2.147147     29.722010     29.722010     59.444020
     -2.137137     25.483251     25.483251     50.966503
     -2.127127     21.866506     21.866506     43.733013
     -2.117117     18.966736     18.966736     37.933473
     -2.107107     16.618214     16.618214     33.236428
     -2.097097     14.525091     14.525091     29.050183
     -2.087087     12.426785     12.426785     24.853569
     -2.077077     10.213960     10.213960     20.427920
     -2.067067      7.948288      7.948288     15.896576
     -2.057057      5.797663      5.797663     11.595326
     -2.047047      3.939063      3.939063      7.878126
     -2.037037      2.483542      2.483542      4.967085
     -2.027027      1.450521      1.450521      2.901043
     -2.017017      0.786030      0.786030      1.572061
     -2.007007      0.401651      0.401651      0.803301
     -1.996997      0.211800      0.211800      0.423601
     -1.986987      0.158410      0.158410      0.316820
     -1.976977      0.223027      0.223027      0.446054
     -1.966967      0.430870      0.430870      0.861741
     -1.956957      0.849340      0.849340      1.698679
     -1.946947      1.578764      1.578764      3.157528
     -1.936937      2.730523      2.730523      5.461046
     -1.926927      4.390606      4.390606      8.781211
     -1.916917      6.575334      6.575334     13.150668
     -1.906907      9.195779      9.195779     18.391558
     -1.896897     12.050767     12.050767     24.101535
     -1.886887     14.860188     14.860188     29.720377
     -1.876877     17.333320     17.333320     34.666639
     -1.866867     19.250835     19.250835     38.501669
     -1.856857     20.532880     20.532880     41.065761
     -1.846847     21.269551     21.269551     42.539101
     -1.836837     21.698435     21.698435     43.396870
     -1.826827     22.124326     22.124326     44.248651
     -1.816817     22.793594     22.793594     45.587188
     -1.806807     23.762636     23.762636     47.525272
     -1.796797     24.822740     24.822740     49.645480
     -1.786787     25.537392     25.537392     51.074783
     -1.776777     25.399482     25.399482     50.798964
     -1.766767     24.046478     24.046478     48.092957
     -1.756757     21.428644     21.428644     42.857289
     -1.746747     17.844815     17.844815     35.689631
     -1.736737     13.833379     13.833379     27.666759
     -1.726727      9.983944      9.983944     19.967887
     -1.716717      6.767074      6.767074     13.534148
     -1.706707      4.451322      4.451322      8.902643
     -1.696697      3.116053      3.116053      6.232106
     -1.686687      2.717784      2.717784      5.435568
     -1.676677      3.153152      3.153152      6.306304
     -1.666667      4.282291      4.282291      8.564582
     -1.656657      5.913042      5.913042     11.826084
     -1.646647      7.776756      7.776756     15.553512
     -1.636637      9.535092      9.535092     19.070183
     -1.626627     10.840118     10.840118     21.680237
