# EIG2DOS: Utility for SIESTA to obtain the electronic density of states
#  E. Artacho, Apr 1999, A. Garcia, Apr 2012
#  Nick R. Papior, Feb 2017
# ------------------------------------------
# Eigenvalues calculated from a non-polarized calculation
# Eigenvalues read from siesta.EIG
# Kpoint weights read from siesta.KP
# Using smearing parameter:   0.0500
# Using 1000 points in the energy range
# Selected bands: 1 to: 2981
# Emin, Emax in file for selected band(s):    -27.0825418    218.3292040
# Nbands, Nspin, Nk   =   2981     1     1
# E_F                 =    -4.2788 eV --> (shifted to ZERO)
# Broadening          =     0.0500 eV
#
#        E            N(up)  (=)   N(down)         Ntot
     -5.000000     35.450829     35.450829     70.901657
     -4.989990     38.343147     38.343147     76.686295
     -4.979980     40.956072     40.956072     81.912143
     -4.969970     42.783484     42.783484     85.566968
     -4.959960     43.434667     43.434667     86.869334
     -4.949950     42.740892     42.740892     85.481783
     -4.939940     40.802596     40.802596     81.605193
     -4.929930     37.976572     37.976572     75.953143
     -4.919920     34.823287     34.823287     69.646574
     -4.909910     32.035480     32.035480     64.070961
     -4.899900     30.350741     30.350741     60.701483
     -4.889890     30.430451     30.430451     60.860902
     -4.879880     32.690899     32.690899     65.381798
     -4.869870     37.111900     37.111900     74.223801
     -4.859860     43.103446     43.103446     86.206891
     -4.849850     49.534455     49.534455     99.068909
     -4.839840     54.980476     54.980476    109.960952
     -4.829830     58.137873     58.137873    116.275746
     -4.819820     58.243989     58.243989    116.487978
     -4.809810     55.313741     55.313741    110.627483
     -4.799800     50.084648     50.084648    100.169297
     -4.789790     43.709201     43.709201     87.418403
     -4.779780     37.352932     37.352932     74.705864
     -4.769770     31.876858     31.876858     63.753716
     -4.759760     27.705197     27.705197     55.410394
     -4.749750     24.868289     24.868289     49.736577
     -4.739740     23.138858     23.138858     46.277716
     -4.729730     22.174548     22.174548     44.349095
     -4.719720     21.618144     21.618144     43.236288
     -4.709710     21.149762     21.149762     42.299525
     -4.699700     20.509648     20.509648     41.019295
     -4.689690     19.515334     19.515334     39.030669
     -4.679680     18.089463     18.089463     36.178927
     -4.669670     16.299569     16.299569     32.599137
     -4.659660     14.394140     14.394140     28.788280
     -4.649650     12.808990     12.808990     25.617980
     -4.639640     12.120876     12.120876     24.241752
     -4.629630     12.939647     12.939647     25.879294
     -4.619620     15.749160     15.749160     31.498320
     -4.609610     20.727300     20.727300     41.454600
     -4.599600     27.596745     27.596745     55.193490
     -4.589590     35.574147     35.574147     71.148294
     -4.579580     43.478089     43.478089     86.956178
     -4.569570     50.008902     50.008902    100.017804
     -4.559560     54.133850     54.133850    108.267700
     -4.549550     55.439196     55.439196    110.878392
     -4.539540     54.295857     54.295857    108.591714
     -4.529530     51.749518     51.749518    103.499036
     -4.519520     49.162306     49.162306     98.324613
     -4.509510     47.741275     47.741275     95.482550
     -4.499499     48.134309     48.134309     96.268617
     -4.489489     50.239174     50.239174    100.478348
     -4.479479     53.279992     53.279992    106.559984
     -4.469469     56.102438     56.102438    112.204877
     -4.459459     57.565989     57.565989    115.131979
     -4.449449     56.891342     56.891342    113.782683
     -4.439439     53.854949     53.854949    107.709898
     -4.429429     48.792574     48.792574     97.585149
     -4.419419     42.448672     42.448672     84.897344
     -4.409409     35.754841     35.754841     71.509682
     -4.399399     29.620187     29.620187     59.240375
     -4.389389     24.778950     24.778950     49.557901
     -4.379379     21.698210     21.698210     43.396419
     -4.369369     20.530668     20.530668     41.061337
     -4.359359     21.108467     21.108467     42.216935
     -4.349349     22.991303     22.991303     45.982606
     -4.339339     25.579733     25.579733     51.159467
     -4.329329     28.277293     28.277293     56.554586
     -4.319319     30.652864     30.652864     61.305729
     -4.309309     32.544135     32.544135     65.088269
     -4.299299     34.063838     34.063838     68.127675
     -4.289289     35.509254     35.509254     71.018507
     -4.279279     37.208994     37.208994     74.417988
     -4.269269     39.356699     39.356699     78.713399
     -4.259259     41.882850     41.882850     83.765700
     -4.249249     44.411485     44.411485     88.822971
     -4.239239     46.335123     46.335123     92.670247
     -4.229229     47.006572     47.006572     94.013144
     -4.219219     45.990590     45.990590     91.981180
     -4.209209     43.269110     43.269110     86.538221
     -4.199199     39.292827     39.292827     78.585655
     -4.189189     34.837934     34.837934     69.675869
     -4.179179     30.728701     30.728701     61.457401
     -4.169169     27.559943     27.559943     55.119886
     -4.159159     25.549354     25.549354     51.098707
     -4.149149     24.572890     24.572890     49.145780
     -4.139139     24.338970     24.338970     48.677940
     -4.129129     24.595546     24.595546     49.191093
     -4.119119     25.262506     25.262506     50.525011
     -4.109109     26.428384     26.428384     52.856768
     -4.099099     28.218362     28.218362     56.436725
     -4.089089     30.604595     30.604595     61.209190
     -4.079079     33.267007     33.267007     66.534015
     -4.069069     35.600757     35.600757     71.201514
     -4.059059     36.898244     36.898244     73.796489
     -4.049049     36.635349     36.635349     73.270697
     -4.039039     34.720425     34.720425     69.440851
     -4.029029     31.572377     31.572377     63.144754
     -4.019019     27.984194     27.984194     55.968388
     -4.009009     24.845803     24.845803     49.691605
     -3.998999     22.868938     22.868938     45.737876
     -3.988989     22.435959     22.435959     44.871918
     -3.978979     23.606157     23.606157     47.212314
     -3.968969     26.222489     26.222489     52.444979
     -3.958959     30.027083     30.027083     60.054165
     -3.948949     34.726507     34.726507     69.453013
     -3.938939     40.009806     40.009806     80.019612
     -3.928929     45.560605     45.560605     91.121210
     -3.918919     51.093180     51.093180    102.186360
     -3.908909     56.399060     56.399060    112.798120
     -3.898899     61.358665     61.358665    122.717330
     -3.888889     65.883119     65.883119    131.766238
     -3.878879     69.800295     69.800295    139.600590
     -3.868869     72.751128     72.751128    145.502255
     -3.858859     74.178125     74.178125    148.356250
     -3.848849     73.451153     73.451153    146.902306
     -3.838839     70.102461     70.102461    140.204923
     -3.828829     64.074063     64.074063    128.148125
     -3.818819     55.857730     55.857730    111.715459
     -3.808809     46.448261     46.448261     92.896521
     -3.798799     37.114330     37.114330     74.228661
     -3.788789     29.072181     29.072181     58.144362
     -3.778779     23.182991     23.182991     46.365983
     -3.768769     19.772820     19.772820     39.545641
     -3.758759     18.615999     18.615999     37.231997
     -3.748749     19.063875     19.063875     38.127749
     -3.738739     20.264780     20.264780     40.529561
     -3.728729     21.410980     21.410980     42.821960
     -3.718719     21.954078     21.954078     43.908156
     -3.708709     21.741941     21.741941     43.483882
     -3.698699     21.044879     21.044879     42.089759
     -3.688689     20.459183     20.459183     40.918367
     -3.678679     20.704685     20.704685     41.409370
     -3.668669     22.366958     22.366958     44.733917
     -3.658659     25.663532     25.663532     51.327065
     -3.648649     30.320371     30.320371     60.640742
     -3.638639     35.615732     35.615732     71.231465
     -3.628629     40.585287     40.585287     81.170573
     -3.618619     44.311164     44.311164     88.622328
     -3.608609     46.178729     46.178729     92.357459
     -3.598599     46.005307     46.005307     92.010615
     -3.588589     44.013809     44.013809     88.027617
     -3.578579     40.696415     40.696415     81.392830
     -3.568569     36.644930     36.644930     73.289861
     -3.558559     32.406731     32.406731     64.813461
     -3.548549     28.387917     28.387917     56.775833
     -3.538539     24.803289     24.803289     49.606579
     -3.528529     21.673959     21.673959     43.347917
     -3.518519     18.877601     18.877601     37.755201
     -3.508509     16.243698     16.243698     32.487396
     -3.498498     13.661116     13.661116     27.322232
     -3.488488     11.151707     11.151707     22.303413
     -3.478478      8.877740      8.877740     17.755479
     -3.468468      7.084583      7.084583     14.169167
     -3.458458      6.008883      6.008883     12.017766
     -3.448448      5.789839      5.789839     11.579679
     -3.438438      6.410638      6.410638     12.821277
     -3.428428      7.683756      7.683756     15.367511
     -3.418418      9.286318      9.286318     18.572636
     -3.408408     10.844708     10.844708     21.689416
     -3.398398     12.052274     12.052274     24.104548
     -3.388388     12.782835     12.782835     25.565670
     -3.378378     13.151775     13.151775     26.303551
     -3.368368     13.491316     13.491316     26.982631
     -3.358358     14.244325     14.244325     28.488649
     -3.348348     15.818822     15.818822     31.637644
     -3.338338     18.457369     18.457369     36.914739
     -3.328328     22.156063     22.156063     44.312125
     -3.318318     26.636989     26.636989     53.273978
     -3.308308     31.364055     31.364055     62.728109
     -3.298298     35.603502     35.603502     71.207004
     -3.288288     38.545595     38.545595     77.091191
     -3.278278     39.491564     39.491564     78.983129
     -3.268268     38.064406     38.064406     76.128812
     -3.258258     34.357401     34.357401     68.714803
     -3.248248     28.936807     28.936807     57.873615
     -3.238238     22.678618     22.678618     45.357235
     -3.228228     16.505670     16.505670     33.011340
     -3.218218     11.140803     11.140803     22.281606
     -3.208208      6.972609      6.972609     13.945218
     -3.198198      4.062311      4.062311      8.124621
     -3.188188      2.252873      2.252873      4.505746
     -3.178178      1.312367      1.312367      2.624735
     -3.168168      1.055793      1.055793      2.111586
     -3.158158      1.419752      1.419752      2.839504
     -3.148148      2.487210      2.487210      4.974420
     -3.138138      4.465393      4.465393      8.930786
     -3.128128      7.616132      7.616132     15.232264
     -3.118118     12.139750     12.139750     24.279501
     -3.108108     18.030881     18.030881     36.061761
     -3.098098     24.953180     24.953180     49.906359
     -3.088088     32.200355     32.200355     64.400710
     -3.078078     38.798663     38.798663     77.597326
     -3.068068     43.750972     43.750972     87.501944
     -3.058058     46.344624     46.344624     92.689249
     -3.048048     46.391047     46.391047     92.782093
     -3.038038     44.278218     44.278218     88.556436
     -3.028028     40.802689     40.802689     81.605378
     -3.018018     36.860174     36.860174     73.720349
     -3.008008     33.144131     33.144131     66.288263
     -2.997998     29.987717     29.987717     59.975433
     -2.987988     27.399441     27.399441     54.798882
     -2.977978     25.242215     25.242215     50.484430
     -2.967968     23.444717     23.444717     46.889434
     -2.957958     22.135169     22.135169     44.270337
     -2.947948     21.636924     21.636924     43.273848
     -2.937938     22.332632     22.332632     44.665263
     -2.927928     24.461363     24.461363     48.922726
     -2.917918     27.942234     27.942234     55.884468
     -2.907908     32.309363     32.309363     64.618726
     -2.897898     36.798421     36.798421     73.596843
     -2.887888     40.560400     40.560400     81.120800
     -2.877878     42.920682     42.920682     85.841365
     -2.867868     43.578087     43.578087     87.156174
     -2.857858     42.662472     42.662472     85.324944
     -2.847848     40.631356     40.631356     81.262712
     -2.837838     38.057341     38.057341     76.114681
     -2.827828     35.404809     35.404809     70.809618
     -2.817818     32.893849     32.893849     65.787698
     -2.807808     30.502126     30.502126     61.004252
     -2.797798     28.085387     28.085387     56.170775
     -2.787788     25.539918     25.539918     51.079836
     -2.777778     22.914910     22.914910     45.829821
     -2.767768     20.416732     20.416732     40.833465
     -2.757758     18.311515     18.311515     36.623029
     -2.747748     16.791285     16.791285     33.582569
     -2.737738     15.888319     15.888319     31.776639
     -2.727728     15.490519     15.490519     30.981038
     -2.717718     15.445644     15.445644     30.891289
     -2.707708     15.683827     15.683827     31.367654
     -2.697698     16.273635     16.273635     32.547270
     -2.687688     17.368639     17.368639     34.737279
     -2.677678     19.074276     19.074276     38.148551
     -2.667668     21.321866     21.321866     42.643733
     -2.657658     23.838310     23.838310     47.676619
     -2.647648     26.241509     26.241509     52.483017
     -2.637638     28.209498     28.209498     56.418996
     -2.627628     29.620850     29.620850     59.241700
     -2.617618     30.581662     30.581662     61.163324
     -2.607608     31.329148     31.329148     62.658295
     -2.597598     32.080263     32.080263     64.160526
     -2.587588     32.919419     32.919419     65.838839
     -2.577578     33.777468     33.777468     67.554936
     -2.567568     34.483643     34.483643     68.967287
     -2.557558     34.831937     34.831937     69.663874
     -2.547548     34.621066     34.621066     69.242133
     -2.537538     33.676571     33.676571     67.353141
     -2.527528     31.891850     31.891850     63.783699
     -2.517518     29.303428     29.303428     58.606856
     -2.507508     26.165783     26.165783     52.331566
     -2.497497     22.961930     22.961930     45.923860
     -2.487487     20.308520     20.308520     40.617040
     -2.477477     18.775020     18.775020     37.550040
     -2.467467     18.692479     18.692479     37.384958
     -2.457457     20.041560     20.041560     40.083121
     -2.447447     22.474837     22.474837     44.949675
     -2.437437     25.465584     25.465584     50.931169
     -2.427427     28.516058     28.516058     57.032116
     -2.417417     31.329770     31.329770     62.659539
     -2.407407     33.867919     33.867919     67.735837
     -2.397397     36.264607     36.264607     72.529215
     -2.387387     38.644669     38.644669     77.289338
     -2.377377     40.938876     40.938876     81.877752
     -2.367367     42.797653     42.797653     85.595306
     -2.357357     43.660599     43.660599     87.321198
     -2.347347     42.963924     42.963924     85.927847
     -2.337337     40.397040     40.397040     80.794080
     -2.327327     36.089884     36.089884     72.179767
     -2.317317     30.642030     30.642030     61.284060
     -2.307307     24.979222     24.979222     49.958445
     -2.297297     20.101264     20.101264     40.202528
     -2.287287     16.824720     16.824720     33.649440
     -2.277277     15.608953     15.608953     31.217905
     -2.267267     16.503568     16.503568     33.007136
     -2.257257     19.203913     19.203913     38.407826
     -2.247247     23.172085     23.172085     46.344170
     -2.237237     27.775699     27.775699     55.551397
     -2.227227     32.405064     32.405064     64.810127
     -2.217217     36.544117     36.544117     73.088233
     -2.207207     39.790424     39.790424     79.580847
     -2.197197     41.842683     41.842683     83.685366
     -2.187187     42.490213     42.490213     84.980425
     -2.177177     41.634070     41.634070     83.268140
     -2.167167     39.339998     39.339998     78.679995
     -2.157157     35.885437     35.885437     71.770875
     -2.147147     31.746035     31.746035     63.492070
     -2.137137     27.491867     27.491867     54.983734
     -2.127127     23.620333     23.620333     47.240666
     -2.117117     20.402822     20.402822     40.805645
     -2.107107     17.826351     17.826351     35.652702
     -2.097097     15.661396     15.661396     31.322791
     -2.087087     13.615512     13.615512     27.231024
     -2.077077     11.487457     11.487457     22.974914
     -2.067067      9.246198      9.246198     18.492395
     -2.057057      7.011361      7.011361     14.022722
     -2.047047      4.967772      4.967772      9.935544
     -2.037037      3.272235      3.272235      6.544471
     -2.027027      1.998079      1.998079      3.996159
     -2.017017      1.130203      1.130203      2.260407
     -2.007007      0.595315      0.595315      1.190630
     -1.996997      0.302466      0.302466      0.604931
     -1.986987      0.175735      0.175735      0.351469
     -1.976977      0.173315      0.173315      0.346629
     -1.966967      0.295866      0.295866      0.591732
     -1.956957      0.588442      0.588442      1.176884
     -1.946947      1.136512      1.136512      2.273023
     -1.936937      2.052099      2.052099      4.104198
     -1.926927      3.445287      3.445287      6.890573
     -1.916917      5.381752      5.381752     10.763505
     -1.906907      7.836898      7.836898     15.673797
     -1.896897     10.665532     10.665532     21.331063
     -1.886887     13.605701     13.605701     27.211402
     -1.876877     16.323686     16.323686     32.647372
     -1.866867     18.489783     18.489783     36.979566
     -1.856857     19.861473     19.861473     39.722947
     -1.846847     20.348007     20.348007     40.696013
     -1.836837     20.036490     20.036490     40.072981
     -1.826827     19.169053     19.169053     38.338106
     -1.816817     18.072317     18.072317     36.144634
     -1.806807     17.056796     17.056796     34.113592
     -1.796797     16.322040     16.322040     32.644079
     -1.786787     15.910092     15.910092     31.820184
     -1.776777     15.731419     15.731419     31.462838
     -1.766767     15.647222     15.647222     31.294444
     -1.756757     15.555654     15.555654     31.111308
     -1.746747     15.426822     15.426822     30.853645
     -1.736737     15.269608     15.269608     30.539216
     -1.726727     15.065733     15.065733     30.131466
     -1.716717     14.732543     14.732543     29.465085
     -1.706707     14.154094     14.154094     28.308189
     -1.696697     13.266602     13.266602     26.533205
     -1.686687     12.139688     12.139688     24.279376
     -1.676677     10.991825     10.991825     21.983651
     -1.666667     10.117626     10.117626     20.235252
     -1.656657      9.758135      9.758135     19.516270
     -1.646647      9.979575      9.979575     19.959150
     -1.636637     10.623588     10.623588     21.247175
     -1.626627     11.357731     11.357731     22.715463
