# EIG2DOS: Utility for SIESTA to obtain the electronic density of states
#  E. Artacho, Apr 1999, A. Garcia, Apr 2012
#  Nick R. Papior, Feb 2017
# ------------------------------------------
# Eigenvalues calculated from a non-polarized calculation
# Eigenvalues read from siesta.EIG
# Kpoint weights read from siesta.KP
# Using smearing parameter:   0.0500
# Using 1000 points in the energy range
# Selected bands: 1 to: 2981
# Emin, Emax in file for selected band(s):    -27.2022763    218.3684660
# Nbands, Nspin, Nk   =   2981     1     1
# E_F                 =    -4.2346 eV --> (shifted to ZERO)
# Broadening          =     0.0500 eV
#
#        E            N(up)  (=)   N(down)         Ntot
     -5.000000     32.685146     32.685146     65.370292
     -4.989990     37.119417     37.119417     74.238834
     -4.979980     41.127907     41.127907     82.255814
     -4.969970     44.069248     44.069248     88.138495
     -4.959960     45.422661     45.422661     90.845323
     -4.949950     44.958053     44.958053     89.916106
     -4.939940     42.819780     42.819780     85.639560
     -4.929930     39.504043     39.504043     79.008086
     -4.919920     35.757604     35.757604     71.515207
     -4.909910     32.443720     32.443720     64.887439
     -4.899900     30.403468     30.403468     60.806935
     -4.889890     30.310848     30.310848     60.621696
     -4.879880     32.513313     32.513313     65.026626
     -4.869870     36.880279     36.880279     73.760558
     -4.859860     42.727217     42.727217     85.454435
     -4.849850     48.895638     48.895638     97.791275
     -4.839840     54.019347     54.019347    108.038694
     -4.829830     56.911811     56.911811    113.823623
     -4.819820     56.927195     56.927195    113.854391
     -4.809810     54.139000     54.139000    108.278001
     -4.799800     49.260323     49.260323     98.520645
     -4.789790     43.353853     43.353853     86.707706
     -4.779780     37.472764     37.472764     74.945528
     -4.769770     32.383517     32.383517     64.767035
     -4.759760     28.453764     28.453764     56.907528
     -4.749750     25.695736     25.695736     51.391472
     -4.739740     23.894411     23.894411     47.788822
     -4.729730     22.742421     22.742421     45.484842
     -4.719720     21.934418     21.934418     43.868837
     -4.709710     21.212776     21.212776     42.425553
     -4.699700     20.383899     20.383899     40.767797
     -4.689690     19.333481     19.333481     38.666962
     -4.679680     18.059945     18.059945     36.119890
     -4.669670     16.722457     16.722457     33.444913
     -4.659660     15.675062     15.675062     31.350124
     -4.649650     15.447708     15.447708     30.895416
     -4.639640     16.648014     16.648014     33.296029
     -4.629630     19.790057     19.790057     39.580113
     -4.619620     25.092703     25.092703     50.185405
     -4.609610     32.314868     32.314868     64.629736
     -4.599600     40.698872     40.698872     81.397743
     -4.589590     49.071133     49.071133     98.142266
     -4.579580     56.101771     56.101771    112.203541
     -4.569570     60.661572     60.661572    121.323144
     -4.559560     62.161047     62.161047    124.322095
     -4.549550     60.742452     60.742452    121.484904
     -4.539540     57.238846     57.238846    114.477693
     -4.529530     52.902155     52.902155    105.804309
     -4.519520     48.996031     48.996031     97.992063
     -4.509510     46.404557     46.404557     92.809114
     -4.499499     45.398412     45.398412     90.796825
     -4.489489     45.631648     45.631648     91.263295
     -4.479479     46.347075     46.347075     92.694150
     -4.469469     46.689824     46.689824     93.379648
     -4.459459     45.999817     45.999817     91.999634
     -4.449449     43.982903     43.982903     87.965807
     -4.439439     40.727628     40.727628     81.455255
     -4.429429     36.604243     36.604243     73.208486
     -4.419419     32.120984     32.120984     64.241969
     -4.409409     27.805151     27.805151     55.610303
     -4.399399     24.135031     24.135031     48.270062
     -4.389389     21.504263     21.504263     43.008525
     -4.379379     20.183863     20.183863     40.367727
     -4.369369     20.267768     20.267768     40.535536
     -4.359359     21.625425     21.625425     43.250850
     -4.349349     23.905901     23.905901     47.811802
     -4.339339     26.621575     26.621575     53.243151
     -4.329329     29.295106     29.295106     58.590212
     -4.319319     31.612117     31.612117     63.224235
     -4.309309     33.512184     33.512184     67.024368
     -4.299299     35.176964     35.176964     70.353928
     -4.289289     36.918288     36.918288     73.836577
     -4.279279     39.007035     39.007035     78.014070
     -4.269269     41.503922     41.503922     83.007845
     -4.259259     44.156724     44.156724     88.313448
     -4.249249     46.416054     46.416054     92.832109
     -4.239239     47.588490     47.588490     95.176980
     -4.229229     47.089919     47.089919     94.179838
     -4.219219     44.702654     44.702654     89.405308
     -4.209209     40.715131     40.715131     81.430262
     -4.199199     35.863039     35.863039     71.726078
     -4.189189     31.085293     31.085293     62.170586
     -4.179179     27.204570     27.204570     54.409140
     -4.169169     24.679824     24.679824     49.359648
     -4.159159     23.534673     23.534673     47.069346
     -4.149149     23.471030     23.471030     46.942061
     -4.139139     24.089191     24.089191     48.178382
     -4.129129     25.097251     25.097251     50.194503
     -4.119119     26.412205     26.412205     52.824409
     -4.109109     28.113250     28.113250     56.226500
     -4.099099     30.278446     30.278446     60.556892
     -4.089089     32.794559     32.794559     65.589118
     -4.079079     35.252977     35.252977     70.505953
     -4.069069     37.012572     37.012572     74.025145
     -4.059059     37.426461     37.426461     74.852922
     -4.049049     36.132698     36.132698     72.265396
     -4.039039     33.259358     33.259358     66.518717
     -4.029029     29.431167     29.431167     58.862333
     -4.019019     25.570693     25.570693     51.141387
     -4.009009     22.595805     22.595805     45.191610
     -3.998999     21.158629     21.158629     42.317259
     -3.988989     21.528883     21.528883     43.057765
     -3.978979     23.632762     23.632762     47.265525
     -3.968969     27.180804     27.180804     54.361609
     -3.958959     31.797927     31.797927     63.595855
     -3.948949     37.104926     37.104926     74.209852
     -3.938939     42.754252     42.754252     85.508503
     -3.928929     48.450650     48.450650     96.901299
     -3.918919     53.973852     53.973852    107.947703
     -3.908909     59.187677     59.187677    118.375354
     -3.898899     64.004932     64.004932    128.009863
     -3.888889     68.300058     68.300058    136.600116
     -3.878879     71.806708     71.806708    143.613415
     -3.868869     74.068586     74.068586    148.137172
     -3.858859     74.500502     74.500502    149.001004
     -3.848849     72.563697     72.563697    145.127394
     -3.838839     67.994743     67.994743    135.989485
     -3.828829     60.988518     60.988518    121.977036
     -3.818819     52.246153     52.246153    104.492307
     -3.808809     42.853791     42.853791     85.707583
     -3.798799     34.029120     34.029120     68.058241
     -3.788789     26.824363     26.824363     53.648726
     -3.778779     21.884641     21.884641     43.769283
     -3.768769     19.331185     19.331185     38.662370
     -3.758759     18.790140     18.790140     37.580280
     -3.748749     19.543355     19.543355     39.086710
     -3.738739     20.750820     20.750820     41.501640
     -3.728729     21.685818     21.685818     43.371636
     -3.718719     21.927430     21.927430     43.854860
     -3.708709     21.465683     21.465683     42.931365
     -3.698699     20.691205     20.691205     41.382409
     -3.688689     20.264931     20.264931     40.529862
     -3.678679     20.894208     20.894208     41.788416
     -3.668669     23.074771     23.074771     46.149541
     -3.658659     26.881689     26.881689     53.763378
     -3.648649     31.890235     31.890235     63.780470
     -3.638639     37.268837     37.268837     74.537673
     -3.628629     42.018604     42.018604     84.037209
     -3.618619     45.268034     45.268034     90.536069
     -3.608609     46.506513     46.506513     93.013026
     -3.598599     45.674737     45.674737     91.349474
     -3.588589     43.103652     43.103652     86.207305
     -3.578579     39.358607     39.358607     78.717215
     -3.568569     35.065009     35.065009     70.130018
     -3.558559     30.767390     30.767390     61.534781
     -3.548549     26.838537     26.838537     53.677074
     -3.538539     23.438859     23.438859     46.877717
     -3.528529     20.528813     20.528813     41.057627
     -3.518519     17.936997     17.936997     35.873995
     -3.508509     15.468905     15.468905     30.937811
     -3.498498     13.016816     13.016816     26.033633
     -3.488488     10.623816     10.623816     21.247633
     -3.478478      8.475866      8.475866     16.951732
     -3.468468      6.831429      6.831429     13.662858
     -3.458458      5.923747      5.923747     11.847495
     -3.448448      5.873461      5.873461     11.746922
     -3.438438      6.636355      6.636355     13.272710
     -3.428428      7.997984      7.997984     15.995968
     -3.418418      9.619844      9.619844     19.239688
     -3.408408     11.133540     11.133540     22.267080
     -3.398398     12.262371     12.262371     24.524741
     -3.388388     12.929250     12.929250     25.858500
     -3.378378     13.303291     13.303291     26.606581
     -3.368368     13.757471     13.757471     27.514942
     -3.358358     14.749614     14.749614     29.499227
     -3.348348     16.673395     16.673395     33.346790
     -3.338338     19.732615     19.732615     39.465229
     -3.328328     23.869956     23.869956     47.739913
     -3.318318     28.753428     28.753428     57.506856
     -3.308308     33.813113     33.813113     67.626227
     -3.298298     38.328731     38.328731     76.657461
     -3.288288     41.571527     41.571527     83.143054
     -3.278278     42.981528     42.981528     85.963056
     -3.268268     42.323000     42.323000     84.646000
     -3.258258     39.745264     39.745264     79.490528
     -3.248248     35.711482     35.711482     71.422964
     -3.238238     30.829068     30.829068     61.658137
     -3.228228     25.669570     25.669570     51.339141
     -3.218218     20.660987     20.660987     41.321974
     -3.208208     16.078795     16.078795     32.157590
     -3.198198     12.101403     12.101403     24.202805
     -3.188188      8.874501      8.874501     17.749002
     -3.178178      6.549731      6.549731     13.099462
     -3.168168      5.295429      5.295429     10.590858
     -3.158158      5.290645      5.290645     10.581290
     -3.148148      6.704331      6.704331     13.408662
     -3.138138      9.648990      9.648990     19.297980
     -3.128128     14.102743     14.102743     28.205486
     -3.118118     19.818479     19.818479     39.636958
     -3.108108     26.266118     26.266118     52.532236
     -3.098098     32.660093     32.660093     65.320185
     -3.088088     38.096100     38.096100     76.192199
     -3.078078     41.768470     41.768470     83.536939
     -3.068068     43.190374     43.190374     86.380749
     -3.058058     42.324083     42.324083     84.648166
     -3.048048     39.561383     39.561383     79.122767
     -3.038038     35.561787     35.561787     71.123573
     -3.028028     31.023383     31.023383     62.046765
     -3.018018     26.490718     26.490718     52.981436
     -3.008008     22.278361     22.278361     44.556722
     -2.997998     18.522960     18.522960     37.045920
     -2.987988     15.310032     15.310032     30.620064
     -2.977978     12.792307     12.792307     25.584614
     -2.967968     11.235102     11.235102     22.470203
     -2.957958     10.970866     10.970866     21.941731
     -2.947948     12.288120     12.288120     24.576240
     -2.937938     15.300935     15.300935     30.601870
     -2.927928     19.845848     19.845848     39.691696
     -2.917918     25.444454     25.444454     50.888909
     -2.907908     31.356086     31.356086     62.712172
     -2.897898     36.722180     36.722180     73.444359
     -2.887888     40.770762     40.770762     81.541524
     -2.877878     43.016883     43.016883     86.033765
     -2.867868     43.382570     43.382570     86.765140
     -2.857858     42.182673     42.182673     84.365346
     -2.847848     39.976716     39.976716     79.953432
     -2.837838     37.347619     37.347619     74.695239
     -2.827828     34.703651     34.703651     69.407303
     -2.817818     32.188785     32.188785     64.377571
     -2.807808     29.731790     29.731790     59.463579
     -2.797798     27.193815     27.193815     54.387631
     -2.787788     24.526103     24.526103     49.052205
     -2.777778     21.850242     21.850242     43.700484
     -2.767768     19.422429     19.422429     38.844857
     -2.757758     17.512010     17.512010     35.024020
     -2.747748     16.273548     16.273548     32.547096
     -2.737738     15.691965     15.691965     31.383930
     -2.727728     15.631683     15.631683     31.263366
     -2.717718     15.952472     15.952472     31.904944
     -2.707708     16.610042     16.610042     33.220083
     -2.697698     17.668818     17.668818     35.337637
     -2.687688     19.214389     19.214389     38.428779
     -2.677678     21.225537     21.225537     42.451074
     -2.667668     23.500374     23.500374     47.000748
     -2.657658     25.700354     25.700354     51.400709
     -2.647648     27.497090     27.497090     54.994180
     -2.637638     28.733524     28.733524     57.467048
     -2.627628     29.496318     29.496318     58.992635
     -2.617618     30.052931     30.052931     60.105862
     -2.607608     30.694919     30.694919     61.389838
     -2.597598     31.584669     31.584669     63.169339
     -2.587588     32.688094     32.688094     65.376188
     -2.577578     33.808058     33.808058     67.616115
     -2.567568     34.669640     34.669640     69.339280
     -2.557558     34.996251     34.996251     69.992502
     -2.547548     34.554156     34.554156     69.108313
     -2.537538     33.187797     33.187797     66.375593
     -2.527528     30.874936     30.874936     61.749873
     -2.517518     27.795236     27.795236     55.590471
     -2.507508     24.365289     24.365289     48.730578
     -2.497497     21.188945     21.188945     42.377890
     -2.487487     18.912414     18.912414     37.824827
     -2.477477     18.030826     18.030826     36.061652
     -2.467467     18.727454     18.727454     37.454908
     -2.457457     20.818360     20.818360     41.636720
     -2.447447     23.830341     23.830341     47.660682
     -2.437437     27.181717     27.181717     54.363433
     -2.427427     30.389556     30.389556     60.779112
     -2.417417     33.213013     33.213013     66.426025
     -2.407407     35.668673     35.668673     71.337345
     -2.397397     37.911783     37.911783     75.823566
     -2.387387     40.042438     40.042438     80.084877
     -2.377377     41.937133     41.937133     83.874265
     -2.367367     43.200671     43.200671     86.401343
     -2.357357     43.279083     43.279083     86.558167
     -2.347347     41.693522     41.693522     83.387044
     -2.337337     38.288534     38.288534     76.577068
     -2.327327     33.373955     33.373955     66.747910
     -2.317317     27.689868     27.689868     55.379737
     -2.307307     22.211243     22.211243     44.422486
     -2.297297     17.881655     17.881655     35.763311
     -2.287287     15.384068     15.384068     30.768136
     -2.277277     15.019619     15.019619     30.039239
     -2.267267     16.705522     16.705522     33.411045
     -2.257257     20.057956     20.057956     40.115913
     -2.247247     24.511368     24.511368     49.022735
     -2.237237     29.434319     29.434319     58.868637
     -2.227227     34.218517     34.218517     68.437034
     -2.217217     38.333019     38.333019     76.666038
     -2.207207     41.349088     41.349088     82.698176
     -2.197197     42.952417     42.952417     85.904834
     -2.187187     42.963108     42.963108     85.926215
     -2.177177     41.372900     41.372900     82.745799
     -2.167167     38.384732     38.384732     76.769463
     -2.157157     34.417001     34.417001     68.834002
     -2.147147     30.035969     30.035969     60.071938
     -2.137137     25.814349     25.814349     51.628699
     -2.127127     22.164917     22.164917     44.329835
     -2.117117     19.227955     19.227955     38.455909
     -2.107107     16.872670     16.872670     33.745340
     -2.097097     14.812164     14.812164     29.624327
     -2.087087     12.768660     12.768660     25.537319
     -2.077077     10.602910     10.602910     21.205819
     -2.067067      8.351452      8.351452     16.702904
     -2.057057      6.173274      6.173274     12.346548
     -2.047047      4.253524      4.253524      8.507047
     -2.037037      2.721249      2.721249      5.442497
     -2.027027      1.614555      1.614555      3.229110
     -2.017017      0.893276      0.893276      1.786553
     -2.007007      0.478043      0.478043      0.956085
     -1.996997      0.292609      0.292609      0.585218
     -1.986987      0.296435      0.296435      0.592871
     -1.976977      0.505168      0.505168      1.010335
     -1.966967      1.000437      1.000437      2.000874
     -1.956957      1.926804      1.926804      3.853608
     -1.946947      3.468049      3.468049      6.936097
     -1.936937      5.794865      5.794865     11.589730
     -1.926927      8.986637      8.986637     17.973274
     -1.916917     12.949472     12.949472     25.898944
     -1.906907     17.369456     17.369456     34.738912
     -1.896897     21.738465     21.738465     43.476930
     -1.886887     25.462239     25.462239     50.924479
     -1.876877     28.018433     28.018433     56.036866
     -1.866867     29.102569     29.102569     58.205138
     -1.856857     28.703992     28.703992     57.407983
     -1.846847     27.089311     27.089311     54.178623
     -1.836837     24.711681     24.711681     49.423362
     -1.826827     22.084725     22.084725     44.169449
     -1.816817     19.656501     19.656501     39.313001
     -1.806807     17.708083     17.708083     35.416166
     -1.796797     16.297617     16.297617     32.595234
     -1.786787     15.269591     15.269591     30.539181
     -1.776777     14.335369     14.335369     28.670739
     -1.766767     13.201169     13.201169     26.402339
     -1.756757     11.691402     11.691402     23.382804
     -1.746747      9.813157      9.813157     19.626314
     -1.736737      7.738252      7.738252     15.476504
     -1.726727      5.723549      5.723549     11.447097
     -1.716717      4.018472      4.018472      8.036944
     -1.706707      2.804474      2.804474      5.608948
     -1.696697      2.182103      2.182103      4.364207
     -1.686687      2.189596      2.189596      4.379192
     -1.676677      2.822015      2.822015      5.644030
     -1.666667      4.027841      4.027841      8.055683
     -1.656657      5.682939      5.682939     11.365877
     -1.646647      7.565253      7.565253     15.130507
     -1.636637      9.362820      9.362820     18.725641
     -1.626627     10.734989     10.734989     21.469978
