# EIG2DOS: Utility for SIESTA to obtain the electronic density of states
#  E. Artacho, Apr 1999, A. Garcia, Apr 2012
#  Nick R. Papior, Feb 2017
# ------------------------------------------
# Eigenvalues calculated from a non-polarized calculation
# Eigenvalues read from siesta.EIG
# Kpoint weights read from siesta.KP
# Using smearing parameter:   0.0500
# Using 1000 points in the energy range
# Selected bands: 1 to: 2981
# Emin, Emax in file for selected band(s):    -27.3151568    218.4015130
# Nbands, Nspin, Nk   =   2981     1     1
# E_F                 =    -4.1944 eV --> (shifted to ZERO)
# Broadening          =     0.0500 eV
#
#        E            N(up)  (=)   N(down)         Ntot
     -5.000000     30.719251     30.719251     61.438501
     -4.989990     35.711144     35.711144     71.422288
     -4.979980     40.596194     40.596194     81.192388
     -4.969970     44.560931     44.560931     89.121863
     -4.959960     46.856676     46.856676     93.713351
     -4.949950     47.046139     47.046139     94.092278
     -4.939940     45.157689     45.157689     90.315378
     -4.929930     41.694767     41.694767     83.389533
     -4.919920     37.515375     37.515375     75.030750
     -4.909910     33.640692     33.640692     67.281383
     -4.899900     31.050833     31.050833     62.101666
     -4.889890     30.495885     30.495885     60.991769
     -4.879880     32.329889     32.329889     64.659778
     -4.869870     36.387672     36.387672     72.775344
     -4.859860     41.953629     41.953629     83.907259
     -4.849850     47.877315     47.877315     95.754630
     -4.839840     52.846515     52.846515    105.693030
     -4.829830     55.750307     55.750307    111.500613
     -4.819820     56.002445     56.002445    112.004889
     -4.809810     53.695835     53.695835    107.391671
     -4.799800     49.528984     49.528984     99.057968
     -4.789790     44.545969     44.545969     89.091938
     -4.779780     39.804737     39.804737     79.609474
     -4.769770     36.097539     36.097539     72.195078
     -4.759760     33.799199     33.799199     67.598397
     -4.749750     32.853527     32.853527     65.707054
     -4.739740     32.863998     32.863998     65.727997
     -4.729730     33.242493     33.242493     66.484985
     -4.719720     33.374974     33.374974     66.749948
     -4.709710     32.769257     32.769257     65.538515
     -4.699700     31.156296     31.156296     62.312591
     -4.689690     28.530129     28.530129     57.060259
     -4.679680     25.132358     25.132358     50.264716
     -4.669670     21.402764     21.402764     42.805528
     -4.659660     17.917361     17.917361     35.834723
     -4.649650     15.320735     15.320735     30.641470
     -4.639640     14.244286     14.244286     28.488572
     -4.629630     15.198700     15.198700     30.397399
     -4.619620     18.442303     18.442303     36.884606
     -4.609610     23.852576     23.852576     47.705152
     -4.599600     30.853618     30.853618     61.707236
     -4.589590     38.459412     38.459412     76.918824
     -4.579580     45.464862     45.464862     90.929724
     -4.569570     50.754859     50.754859    101.509718
     -4.559560     53.633188     53.633188    107.266375
     -4.549550     54.039787     54.039787    108.079575
     -4.539540     52.554987     52.554987    105.109974
     -4.529530     50.175108     50.175108    100.350216
     -4.519520     47.943488     47.943488     95.886977
     -4.509510     46.584166     46.584166     93.168332
     -4.499499     46.281692     46.281692     92.563384
     -4.489489     46.683438     46.683438     93.366877
     -4.479479     47.103707     47.103707     94.207413
     -4.469469     46.827294     46.827294     93.654588
     -4.459459     45.380102     45.380102     90.760203
     -4.449449     42.665867     42.665867     85.331734
     -4.439439     38.941296     38.941296     77.882592
     -4.429429     34.677579     34.677579     69.355158
     -4.419419     30.396455     30.396455     60.792911
     -4.409409     26.556515     26.556515     53.113031
     -4.399399     23.513717     23.513717     47.027434
     -4.389389     21.525799     21.525799     43.051599
     -4.379379     20.750229     20.750229     41.500457
     -4.369369     21.210494     21.210494     42.420987
     -4.359359     22.752513     22.752513     45.505027
     -4.349349     25.041530     25.041530     50.083061
     -4.339339     27.635399     27.635399     55.270797
     -4.329329     30.122341     30.122341     60.244682
     -4.319319     32.264971     32.264971     64.529942
     -4.309309     34.079359     34.079359     68.158719
     -4.299299     35.804516     35.804516     71.609032
     -4.289289     37.765868     37.765868     75.531736
     -4.279279     40.181789     40.181789     80.363579
     -4.269269     42.989585     42.989585     85.979170
     -4.259259     45.770156     45.770156     91.540311
     -4.249249     47.824379     47.824379     95.648758
     -4.239239     48.397972     48.397972     96.795944
     -4.229229     46.979720     46.979720     93.959439
     -4.219219     43.545866     43.545866     87.091733
     -4.209209     38.629824     38.629824     77.259647
     -4.199199     33.171046     33.171046     66.342092
     -4.189189     28.204212     28.204212     56.408424
     -4.179179     24.527772     24.527772     49.055545
     -4.169169     22.494386     22.494386     44.988772
     -4.159159     21.997183     21.997183     43.994365
     -4.149149     22.629283     22.629283     45.258567
     -4.139139     23.921634     23.921634     47.843268
     -4.129129     25.544310     25.544310     51.088620
     -4.119119     27.386574     27.386574     54.773149
     -4.109109     29.491028     29.491028     58.982057
     -4.099099     31.884408     31.884408     63.768817
     -4.089089     34.399712     34.399712     68.799424
     -4.079079     36.598068     36.598068     73.196135
     -4.069069     37.857667     37.857667     75.715334
     -4.059059     37.610193     37.610193     75.220386
     -4.049049     35.615852     35.615852     71.231705
     -4.039039     32.133497     32.133497     64.266995
     -4.029029     27.891041     27.891041     55.782081
     -4.019019     23.866807     23.866807     47.733615
     -4.009009     20.988391     20.988391     41.976783
     -3.998999     19.884619     19.884619     39.769239
     -3.988989     20.779330     20.779330     41.558660
     -3.978979     23.532322     23.532322     47.064644
     -3.968969     27.767412     27.767412     55.534825
     -3.958959     33.012038     33.012038     66.024075
     -3.948949     38.801464     38.801464     77.602927
     -3.938939     44.741166     44.741166     89.482333
     -3.928929     50.541334     50.541334    101.082668
     -3.918919     56.029074     56.029074    112.058148
     -3.908909     61.125655     61.125655    122.251310
     -3.898899     65.775462     65.775462    131.550924
     -3.888889     69.840201     69.840201    139.680403
     -3.878879     73.007975     73.007975    146.015949
     -3.868869     74.780441     74.780441    149.560883
     -3.858859     74.574526     74.574526    149.149051
     -3.848849     71.918687     71.918687    143.837374
     -3.838839     66.669752     66.669752    133.339505
     -3.828829     59.155953     59.155953    118.311905
     -3.818819     50.176935     50.176935    100.353871
     -3.808809     40.849128     40.849128     81.698257
     -3.798799     32.346255     32.346255     64.692510
     -3.788789     25.621987     25.621987     51.243974
     -3.778779     21.201533     21.201533     42.403066
     -3.768769     19.097615     19.097615     38.195231
     -3.758759     18.862412     18.862412     37.724825
     -3.748749     19.749055     19.749055     39.498111
     -3.738739     20.933651     20.933651     41.867301
     -3.728729     21.741441     21.741441     43.482881
     -3.718719     21.824248     21.824248     43.648496
     -3.708709     21.247167     21.247167     42.494335
     -3.698699     20.459568     20.459568     40.919136
     -3.688689     20.149606     20.149606     40.299211
     -3.678679     21.012205     21.012205     42.024410
     -3.668669     23.492828     23.492828     46.985656
     -3.658659     27.591082     27.591082     55.182163
     -3.648649     32.802785     32.802785     65.605571
     -3.638639     38.236535     38.236535     76.473069
     -3.628629     42.870884     42.870884     85.741768
     -3.618619     45.854087     45.854087     91.708174
     -3.608609     46.728816     46.728816     93.457632
     -3.598599     45.504974     45.504974     91.009948
     -3.588589     42.580010     42.580010     85.160020
     -3.578579     38.569348     38.569348     77.138697
     -3.568569     34.124943     34.124943     68.249886
     -3.558559     29.792848     29.792848     59.585697
     -3.548549     25.925433     25.925433     51.850866
     -3.538539     22.648223     22.648223     45.296446
     -3.528529     19.883365     19.883365     39.766730
     -3.518519     17.429450     17.429450     34.858900
     -3.508509     15.078726     15.078726     30.157453
     -3.498498     12.729842     12.729842     25.459684
     -3.488488     10.450425     10.450425     20.900850
     -3.478478      8.467222      8.467222     16.934443
     -3.468468      7.096015      7.096015     14.192030
     -3.458458      6.644592      6.644592     13.289185
     -3.448448      7.319689      7.319689     14.639377
     -3.438438      9.154788      9.154788     18.309576
     -3.428428     11.968303     11.968303     23.936606
     -3.418418     15.366375     15.366375     30.732751
     -3.408408     18.808386     18.808386     37.616773
     -3.398398     21.739165     21.739165     43.478329
     -3.388388     23.758256     23.758256     47.516512
     -3.378378     24.763698     24.763698     49.527397
     -3.368368     25.003078     25.003078     50.006157
     -3.358358     24.998998     24.998998     49.997996
     -3.348348     25.371599     25.371599     50.743199
     -3.338338     26.623532     26.623532     53.247064
     -3.328328     28.960318     28.960318     57.920635
     -3.318318     32.197286     32.197286     64.394572
     -3.308308     35.776327     35.776327     71.552654
     -3.298298     38.895277     38.895277     77.790554
     -3.288288     40.731237     40.731237     81.462473
     -3.278278     40.703537     40.703537     81.407074
     -3.268268     38.683038     38.683038     77.366076
     -3.258258     35.048453     35.048453     70.096906
     -3.248248     30.545172     30.545172     61.090344
     -3.238238     25.999869     25.999869     51.999739
     -3.228228     22.024543     22.024543     44.049085
     -3.218218     18.849413     18.849413     37.698826
     -3.208208     16.349029     16.349029     32.698057
     -3.198198     14.220174     14.220174     28.440347
     -3.188188     12.200866     12.200866     24.401731
     -3.178178     10.222230     10.222230     20.444459
     -3.168168      8.443686      8.443686     16.887371
     -3.158158      7.189282      7.189282     14.378564
     -3.148148      6.837720      6.837720     13.675440
     -3.138138      7.711571      7.711571     15.423141
     -3.128128      9.984325      9.984325     19.968651
     -3.118118     13.607145     13.607145     27.214291
     -3.108108     18.263424     18.263424     36.526848
     -3.098098     23.376122     23.376122     46.752244
     -3.088088     28.195099     28.195099     56.390199
     -3.078078     31.964315     31.964315     63.928629
     -3.068068     34.122190     34.122190     68.244380
     -3.058058     34.454296     34.454296     68.908592
     -3.048048     33.126130     33.126130     66.252260
     -3.038038     30.579071     30.579071     61.158141
     -3.028028     27.344286     27.344286     54.688572
     -3.018018     23.871441     23.871441     47.742881
     -3.008008     20.453063     20.453063     40.906127
     -2.997998     17.262679     17.262679     34.525358
     -2.987988     14.458105     14.458105     28.916211
     -2.977978     12.272392     12.272392     24.544785
     -2.967968     11.034513     11.034513     22.069027
     -2.957958     11.107851     11.107851     22.215702
     -2.947948     12.774584     12.774584     25.549169
     -2.937938     16.111612     16.111612     32.223224
     -2.927928     20.902312     20.902312     41.804624
     -2.917918     26.618672     26.618672     53.237344
     -2.907908     32.493318     32.493318     64.986637
     -2.897898     37.676931     37.676931     75.353861
     -2.887888     41.443830     41.443830     82.887659
     -2.877878     43.379351     43.379351     86.758701
     -2.867868     43.476114     43.476114     86.952228
     -2.857858     42.094463     42.094463     84.188926
     -2.847848     39.798233     39.798233     79.596466
     -2.837838     37.134846     37.134846     74.269692
     -2.827828     34.456794     34.456794     68.913587
     -2.817818     31.861369     31.861369     63.722739
     -2.807808     29.264740     29.264740     58.529480
     -2.797798     26.557146     26.557146     53.114291
     -2.787788     23.746679     23.746679     47.493358
     -2.777778     21.011837     21.011837     42.023673
     -2.767768     18.639930     18.639930     37.279860
     -2.757758     16.896023     16.896023     33.792046
     -2.747748     15.905842     15.905842     31.811685
     -2.737738     15.623357     15.623357     31.246714
     -2.727728     15.897279     15.897279     31.794557
     -2.717718     16.585438     16.585438     33.170875
     -2.707708     17.634299     17.634299     35.268598
     -2.697698     19.065876     19.065876     38.131752
     -2.687688     20.881951     20.881951     41.763903
     -2.677678     22.960116     22.960116     45.920232
     -2.667668     25.029737     25.029737     50.059475
     -2.657658     26.764053     26.764053     53.528105
     -2.647648     27.940737     27.940737     55.881473
     -2.637638     28.568058     28.568058     57.136117
     -2.627628     28.889851     28.889851     57.779701
     -2.617618     29.260479     29.260479     58.520958
     -2.607608     29.964396     29.964396     59.928793
     -2.597598     31.083720     31.083720     62.167440
     -2.587588     32.474899     32.474899     64.949798
     -2.577578     33.840231     33.840231     67.680463
     -2.567568     34.831015     34.831015     69.662030
     -2.557558     35.127655     35.127655     70.255309
     -2.547548     34.488068     34.488068     68.976136
     -2.537538     32.791004     32.791004     65.582007
     -2.527528     30.093679     30.093679     60.187357
     -2.517518     26.685064     26.685064     53.370128
     -2.507508     23.087331     23.087331     46.174663
     -2.497497     19.968757     19.968757     39.937515
     -2.487487     17.976842     17.976842     35.953684
     -2.477477     17.548482     17.548482     35.096964
     -2.467467     18.773935     18.773935     37.547869
     -2.457457     21.373392     21.373392     42.746785
     -2.447447     24.800321     24.800321     49.600643
     -2.437437     28.433972     28.433972     56.867943
     -2.427427     31.784549     31.784549     63.569097
     -2.417417     34.624918     34.624918     69.249836
     -2.407407     36.990563     36.990563     73.981126
     -2.397397     39.047841     39.047841     78.095681
     -2.387387     40.895305     40.895305     81.790611
     -2.377377     42.402039     42.402039     84.804079
     -2.367367     43.176530     43.176530     86.353060
     -2.357357     42.698476     42.698476     85.396953
     -2.347347     40.560888     40.560888     81.121776
     -2.337337     36.706363     36.706363     73.412726
     -2.327327     31.538513     31.538513     63.077025
     -2.317317     25.852203     25.852203     51.704407
     -2.307307     20.617629     20.617629     41.235258
     -2.297297     16.718091     16.718091     33.436183
     -2.287287     14.745607     14.745607     29.491214
     -2.277277     14.911053     14.911053     29.822107
     -2.267267     17.065160     17.065160     34.130320
     -2.257257     20.788706     20.788706     41.577411
     -2.247247     25.504710     25.504710     51.009420
     -2.237237     30.580030     30.580030     61.160060
     -2.227227     35.401929     35.401929     70.803858
     -2.217217     39.428670     39.428670     78.857341
     -2.207207     42.222035     42.222035     84.444070
     -2.197197     43.474874     43.474874     86.949749
     -2.187187     43.045518     43.045518     86.091035
     -2.177177     40.998972     40.998972     81.997945
     -2.167167     37.635036     37.635036     75.270073
     -2.157157     33.469458     33.469458     66.938915
     -2.147147     29.143421     29.143421     58.286842
     -2.137137     25.272538     25.272538     50.545076
     -2.127127     22.288680     22.288680     44.577360
     -2.117117     20.343484     20.343484     40.686969
     -2.107107     19.313843     19.313843     38.627685
     -2.097097     18.894339     18.894339     37.788678
     -2.087087     18.719364     18.719364     37.438728
     -2.077077     18.457841     18.457841     36.915682
     -2.067067     17.859614     17.859614     35.719228
     -2.057057     16.770147     16.770147     33.540295
     -2.047047     15.139239     15.139239     30.278479
     -2.037037     13.030170     13.030170     26.060340
     -2.027027     10.613883     10.613883     21.227765
     -2.017017      8.132258      8.132258     16.264516
     -2.007007      5.835077      5.835077     11.670155
     -1.996997      3.916580      3.916580      7.833161
     -1.986987      2.480592      2.480592      4.961184
     -1.976977      1.546861      1.546861      3.093722
     -1.966967      1.089160      1.089160      2.178321
     -1.956957      1.082259      1.082259      2.164519
     -1.946947      1.534574      1.534574      3.069148
     -1.936937      2.492036      2.492036      4.984072
     -1.926927      4.010733      4.010733      8.021467
     -1.916917      6.107972      6.107972     12.215943
     -1.906907      8.711430      8.711430     17.422861
     -1.896897     11.630262     11.630262     23.260524
     -1.886887     14.566223     14.566223     29.132447
     -1.876877     17.167657     17.167657     34.335315
     -1.866867     19.111348     19.111348     38.222696
     -1.856857     20.186093     20.186093     40.372186
     -1.846847     20.351158     20.351158     40.702316
     -1.836837     19.749647     19.749647     39.499293
     -1.826827     18.667239     18.667239     37.334479
     -1.816817     17.441263     17.441263     34.882526
     -1.806807     16.344980     16.344980     32.689961
     -1.796797     15.490840     15.490840     30.981679
     -1.786787     14.798862     14.798862     29.597723
     -1.776777     14.051362     14.051362     28.102723
     -1.766767     13.011163     13.011163     26.022325
     -1.756757     11.544482     11.544482     23.088964
     -1.746747      9.687633      9.687633     19.375266
     -1.736737      7.631195      7.631195     15.262389
     -1.726727      5.642558      5.642558     11.285116
     -1.716717      3.976350      3.976350      7.952700
     -1.706707      2.816839      2.816839      5.633677
     -1.696697      2.266373      2.266373      4.532747
     -1.686687      2.362589      2.362589      4.725177
     -1.676677      3.093892      3.093892      6.187783
     -1.666667      4.392712      4.392712      8.785423
     -1.656657      6.110060      6.110060     12.220120
     -1.646647      7.997192      7.997192     15.994385
     -1.636637      9.725819      9.725819     19.451638
     -1.626627     10.961489     10.961489     21.922977
