# EIG2DOS: Utility for SIESTA to obtain the electronic density of states
#  E. Artacho, Apr 1999, A. Garcia, Apr 2012
#  Nick R. Papior, Feb 2017
# ------------------------------------------
# Eigenvalues calculated from a non-polarized calculation
# Eigenvalues read from siesta.EIG
# Kpoint weights read from siesta.KP
# Using smearing parameter:   0.0500
# Using 1000 points in the energy range
# Selected bands: 1 to: 2981
# Emin, Emax in file for selected band(s):    -27.0428389    218.3102170
# Nbands, Nspin, Nk   =   2981     1     1
# E_F                 =    -4.3018 eV --> (shifted to ZERO)
# Broadening          =     0.0500 eV
#
#        E            N(up)  (=)   N(down)         Ntot
     -5.000000     44.747783     44.747783     89.495566
     -4.989990     48.912130     48.912130     97.824261
     -4.979980     51.531677     51.531677    103.063355
     -4.969970     52.296294     52.296294    104.592588
     -4.959960     51.195477     51.195477    102.390954
     -4.949950     48.507001     48.507001     97.014002
     -4.939940     44.718335     44.718335     89.436670
     -4.929930     40.429305     40.429305     80.858611
     -4.919920     36.280783     36.280783     72.561566
     -4.909910     32.920988     32.920988     65.841975
     -4.899900     30.980490     30.980490     61.960981
     -4.889890     31.005835     31.005835     62.011670
     -4.879880     33.319841     33.319841     66.639682
     -4.869870     37.834126     37.834126     75.668253
     -4.859860     43.906545     43.906545     87.813090
     -4.849850     50.362196     50.362196    100.724391
     -4.839840     55.743389     55.743389    111.486779
     -4.829830     58.734307     58.734307    117.468613
     -4.819820     58.589964     58.589964    117.179928
     -4.809810     55.369986     55.369986    110.739972
     -4.799800     49.867431     49.867431     99.734862
     -4.789790     43.279925     43.279925     86.559851
     -4.779780     36.793556     36.793556     73.587113
     -4.769770     31.264936     31.264936     62.529873
     -4.759760     27.099449     27.099449     54.198899
     -4.749750     24.306817     24.306817     48.613635
     -4.739740     22.644736     22.644736     45.289472
     -4.729730     21.762040     21.762040     43.524079
     -4.719720     21.296118     21.296118     42.592236
     -4.709710     20.922569     20.922569     41.845139
     -4.699700     20.376960     20.376960     40.753921
     -4.689690     19.471465     19.471465     38.942930
     -4.679680     18.121783     18.121783     36.243565
     -4.669670     16.386185     16.386185     32.772371
     -4.659660     14.502393     14.502393     29.004785
     -4.649650     12.897016     12.897016     25.794031
     -4.639640     12.143778     12.143778     24.287556
     -4.629630     12.860004     12.860004     25.720007
     -4.619620     15.549564     15.549564     31.099128
     -4.609610     20.420770     20.420770     40.841540
     -4.599600     27.229641     27.229641     54.459283
     -4.589590     35.216663     35.216663     70.433326
     -4.579580     43.200662     43.200662     86.401324
     -4.569570     49.848511     49.848511     99.697021
     -4.559560     54.059411     54.059411    108.118823
     -4.549550     55.326622     55.326622    110.653244
     -4.539540     53.919936     53.919936    107.839872
     -4.529530     50.794736     50.794736    101.589471
     -4.519520     47.252650     47.252650     94.505300
     -4.509510     44.491080     44.491080     88.982160
     -4.499499     43.223629     43.223629     86.447258
     -4.489489     43.510928     43.510928     87.021855
     -4.479479     44.840505     44.840505     89.681009
     -4.469469     46.390414     46.390414     92.780827
     -4.459459     47.351803     47.351803     94.703607
     -4.449449     47.187576     47.187576     94.375152
     -4.439439     45.753117     45.753117     91.506233
     -4.429429     43.270025     43.270025     86.540050
     -4.419419     40.196259     40.196259     80.392518
     -4.409409     37.060195     37.060195     74.120391
     -4.399399     34.319960     34.319960     68.639920
     -4.389389     32.281995     32.281995     64.563991
     -4.379379     31.079995     31.079995     62.159990
     -4.369369     30.693151     30.693151     61.386302
     -4.359359     30.980065     30.980065     61.960129
     -4.349349     31.717589     31.717589     63.435178
     -4.339339     32.647983     32.647983     65.295965
     -4.329329     33.539262     33.539262     67.078524
     -4.319319     34.250935     34.250935     68.501870
     -4.309309     34.782474     34.782474     69.564948
     -4.299299     35.279430     35.279430     70.558859
     -4.289289     35.985414     35.985414     71.970827
     -4.279279     37.148090     37.148090     74.296180
     -4.269269     38.903222     38.903222     77.806445
     -4.259259     41.170927     41.170927     82.341853
     -4.249249     43.605202     43.605202     87.210404
     -4.239239     45.636553     45.636553     91.273107
     -4.229229     46.623910     46.623910     93.247821
     -4.219219     46.080904     46.080904     92.161807
     -4.209209     43.885485     43.885485     87.770971
     -4.199199     40.364410     40.364410     80.728821
     -4.189189     36.193589     36.193589     72.387179
     -4.179179     32.151999     32.151999     64.303998
     -4.169169     28.849337     28.849337     57.698673
     -4.159159     26.559609     26.559609     53.119218
     -4.149149     25.227937     25.227937     50.455874
     -4.139139     24.621753     24.621753     49.243506
     -4.129129     24.528784     24.528784     49.057568
     -4.119119     24.893324     24.893324     49.786647
     -4.109109     25.822719     25.822719     51.645437
     -4.099099     27.462768     27.462768     54.925535
     -4.089089     29.807736     29.807736     59.615472
     -4.079079     32.552939     32.552939     65.105878
     -4.069069     35.090900     35.090900     70.181800
     -4.059059     36.686164     36.686164     73.372328
     -4.049049     36.763704     36.763704     73.527408
     -4.039039     35.169410     35.169410     70.338820
     -4.029029     32.263693     32.263693     64.527386
     -4.019019     28.797778     28.797778     57.595555
     -4.009009     25.642768     25.642768     51.285537
     -3.998999     23.514999     23.514999     47.029997
     -3.988989     22.822492     22.822492     45.644984
     -3.978979     23.667471     23.667471     47.334943
     -3.968969     25.946619     25.946619     51.893238
     -3.958959     29.455998     29.455998     58.911996
     -3.948949     33.943091     33.943091     67.886183
     -3.938939     39.113799     39.113799     78.227597
     -3.928929     44.641332     44.641332     89.282664
     -3.918919     50.209692     50.209692    100.419384
     -3.908909     55.576158     55.576158    111.152317
     -3.898899     60.600627     60.600627    121.201254
     -3.888889     65.198327     65.198327    130.396654
     -3.878879     69.223373     69.223373    138.446745
     -3.868869     72.348703     72.348703    144.697407
     -3.858859     74.031746     74.031746    148.063492
     -3.848849     73.623380     73.623380    147.246759
     -3.838839     70.602725     70.602725    141.205450
     -3.828829     64.842445     64.842445    129.684891
     -3.818819     56.775757     56.775757    113.551515
     -3.808809     47.371696     47.371696     94.743392
     -3.798799     37.912726     37.912726     75.825453
     -3.788789     29.659192     29.659192     59.318383
     -3.778779     23.528808     23.528808     47.057615
     -3.768769     19.899437     19.899437     39.798873
     -3.758759     18.581710     18.581710     37.163420
     -3.748749     18.943950     18.943950     37.887900
     -3.738739     20.132896     20.132896     40.265791
     -3.728729     21.323735     21.323735     42.647471
     -3.718719     21.940109     21.940109     43.880217
     -3.708709     21.797240     21.797240     43.594480
     -3.698699     21.135720     21.135720     42.271440
     -3.688689     20.532806     20.532806     41.065613
     -3.678679     20.705775     20.705775     41.411551
     -3.668669     22.255716     22.255716     44.511432
     -3.658659     25.429872     25.429872     50.859744
     -3.648649     29.989360     29.989360     59.978720
     -3.638639     35.242084     35.242084     70.484168
     -3.628629     40.238761     40.238761     80.477523
     -3.618619     44.058225     44.058225     88.116450
     -3.608609     46.066849     46.066849     92.133698
     -3.598599     46.054381     46.054381     92.108763
     -3.588589     44.215608     44.215608     88.431216
     -3.578579     41.020095     41.020095     82.040189
     -3.568569     37.045721     37.045721     74.091443
     -3.558559     32.835554     32.835554     65.671109
     -3.548549     28.800386     28.800386     57.600771
     -3.538539     25.166714     25.166714     50.333429
     -3.528529     21.970970     21.970970     43.941940
     -3.518519     19.105657     19.105657     38.211315
     -3.508509     16.411162     16.411162     32.822324
     -3.498498     13.781833     13.781833     27.563665
     -3.488488     11.240284     11.240284     22.480568
     -3.478478      8.946804      8.946804     17.893608
     -3.468468      7.143907      7.143907     14.287815
     -3.458458      6.065361      6.065361     12.130721
     -3.448448      5.847258      5.847258     11.694516
     -3.438438      6.468899      6.468899     12.937799
     -3.428428      7.738017      7.738017     15.476035
     -3.418418      9.326924      9.326924     18.653849
     -3.408408     10.858493     10.858493     21.716986
     -3.398398     12.025111     12.025111     24.050221
     -3.388388     12.702627     12.702627     25.405253
     -3.378378     13.010888     13.010888     26.021776
     -3.368368     13.287775     13.287775     26.575549
     -3.358358     13.981682     13.981682     27.963365
     -3.348348     15.505158     15.505158     31.010316
     -3.338338     18.104344     18.104344     36.208687
     -3.328328     21.779147     21.779147     43.558294
     -3.318318     26.257493     26.257493     52.514986
     -3.308308     31.011989     31.011989     62.023979
     -3.298298     35.318348     35.318348     70.636697
     -3.288288     38.371498     38.371498     76.742996
     -3.278278     39.465935     39.465935     78.931870
     -3.268268     38.203608     38.203608     76.407216
     -3.258258     34.646790     34.646790     69.293580
     -3.248248     29.331505     29.331505     58.663009
     -3.238238     23.115909     23.115909     46.231817
     -3.228228     16.923424     16.923424     33.846847
     -3.218218     11.493341     11.493341     22.986682
     -3.208208      7.237589      7.237589     14.475179
     -3.198198      4.237243      4.237243      8.474486
     -3.188188      2.344008      2.344008      4.688015
     -3.178178      1.319606      1.319606      2.639213
     -3.168168      0.955544      0.955544      1.911088
     -3.158158      1.145764      1.145764      2.291527
     -3.148148      1.910032      1.910032      3.820063
     -3.138138      3.375375      3.375375      6.750749
     -3.128128      5.721672      5.721672     11.443344
     -3.118118      9.097707      9.097707     18.195414
     -3.108108     13.523469     13.523469     27.046939
     -3.098098     18.810101     18.810101     37.620201
     -3.088088     24.537480     24.537480     49.074959
     -3.078078     30.116737     30.116737     60.233474
     -3.068068     34.928365     34.928365     69.856729
     -3.058058     38.482919     38.482919     76.965838
     -3.048048     40.530521     40.530521     81.061042
     -3.038038     41.069218     41.069218     82.138437
     -3.028028     40.262558     40.262558     80.525117
     -3.018018     38.333844     38.333844     76.667688
     -3.008008     35.514664     35.514664     71.029328
     -2.997998     32.077218     32.077218     64.154436
     -2.987988     28.408892     28.408892     56.817785
     -2.977978     25.048432     25.048432     50.096865
     -2.967968     22.625752     22.625752     45.251505
     -2.957958     21.712612     21.712612     43.425225
     -2.947948     22.649625     22.649625     45.299250
     -2.937938     25.427952     25.427952     50.855903
     -2.927928     29.671211     29.671211     59.342422
     -2.917918     34.714744     34.714744     69.429489
     -2.907908     39.747310     39.747310     79.494621
     -2.897898     43.974797     43.974797     87.949594
     -2.887888     46.774642     46.774642     93.549285
     -2.877878     47.815915     47.815915     95.631829
     -2.867868     47.118616     47.118616     94.237231
     -2.857858     45.027498     45.027498     90.054996
     -2.847848     42.094206     42.094206     84.188412
     -2.837838     38.897075     38.897075     77.794149
     -2.827828     35.862455     35.862455     71.724910
     -2.817818     33.160433     33.160433     66.320867
     -2.807808     30.718863     30.718863     61.437726
     -2.797798     28.343729     28.343729     56.687458
     -2.787788     25.880499     25.880499     51.760998
     -2.777778     23.331009     23.331009     46.662017
     -2.767768     20.866683     20.866683     41.733366
     -2.757758     18.738294     18.738294     37.476587
     -2.747748     17.141757     17.141757     34.283513
     -2.737738     16.123965     16.123965     32.247930
     -2.727728     15.586515     15.586515     31.173030
     -2.717718     15.382719     15.382719     30.765438
     -2.707708     15.442341     15.442341     30.884682
     -2.697698     15.838177     15.838177     31.676355
     -2.687688     16.744092     16.744092     33.488184
     -2.677678     18.304833     18.304833     36.609665
     -2.667668     20.499054     20.499054     40.998109
     -2.657658     23.087307     23.087307     46.174613
     -2.647648     25.686591     25.686591     51.373182
     -2.637638     27.932761     27.932761     55.865522
     -2.627628     29.634370     29.634370     59.268739
     -2.617618     30.826983     30.826983     61.653965
     -2.607608     31.703014     31.703014     63.406028
     -2.597598     32.472133     32.472133     64.944266
     -2.587588     33.243365     33.243365     66.486729
     -2.577578     33.988846     33.988846     67.977691
     -2.567568     34.581482     34.581482     69.162964
     -2.557558     34.852832     34.852832     69.705664
     -2.547548     34.627996     34.627996     69.255992
     -2.537538     33.742090     33.742090     67.484181
     -2.527528     32.075725     32.075725     64.151451
     -2.517518     29.630077     29.630077     59.260155
     -2.507508     26.611198     26.611198     53.222396
     -2.497497     23.457690     23.457690     46.915379
     -2.487487     20.762365     20.762365     41.524729
     -2.477477     19.098924     19.098924     38.197847
     -2.467467     18.826042     18.826042     37.652084
     -2.457457     19.962253     19.962253     39.924506
     -2.447447     22.193987     22.193987     44.387974
     -2.437437     25.015487     25.015487     50.030974
     -2.427427     27.936360     27.936360     55.872719
     -2.417417     30.659918     30.659918     61.319836
     -2.407407     33.148301     33.148301     66.296602
     -2.397397     35.543908     35.543908     71.087815
     -2.387387     37.987215     37.987215     75.974429
     -2.377377     40.424959     40.424959     80.849919
     -2.367367     42.512596     42.512596     85.025193
     -2.357357     43.673717     43.673717     87.347434
     -2.347347     43.304275     43.304275     86.608549
     -2.337337     41.036193     41.036193     82.072387
     -2.327327     36.940643     36.940643     73.881287
     -2.317317     31.575987     31.575987     63.151973
     -2.307307     25.857796     25.857796     51.715592
     -2.297297     20.808865     20.808865     41.617730
     -2.287287     17.292068     17.292068     34.584137
     -2.277277     15.819444     15.819444     31.638888
     -2.267267     16.483000     16.483000     32.966001
     -2.257257     19.000322     19.000322     38.000643
     -2.247247     22.835601     22.835601     45.671203
     -2.237237     27.347349     27.347349     54.694699
     -2.227227     31.918455     31.918455     63.836909
     -2.217217     36.036653     36.036653     72.073307
     -2.207207     39.314613     39.314613     78.629225
     -2.197197     41.467134     41.467134     82.934267
     -2.187187     42.285716     42.285716     84.571432
     -2.177177     41.649655     41.649655     83.299310
     -2.167167     39.581222     39.581222     79.162443
     -2.157157     36.307480     36.307480     72.614960
     -2.147147     32.266971     32.266971     64.533942
     -2.137137     28.020929     28.020929     56.041858
     -2.127127     24.088176     24.088176     48.176351
     -2.117117     20.780083     20.780083     41.560167
     -2.107107     18.123356     18.123356     36.246713
     -2.097097     15.911749     15.911749     31.823498
     -2.087087     13.853796     13.853796     27.707593
     -2.077077     11.732482     11.732482     23.464964
     -2.067067      9.496216      9.496216     18.992433
     -2.057057      7.250305      7.250305     14.500610
     -2.047047      5.176381      5.176381     10.352761
     -2.037037      3.437363      3.437363      6.874726
     -2.027027      2.116531      2.116531      4.233062
     -2.017017      1.207342      1.207342      2.414684
     -2.007007      0.641016      0.641016      1.282032
     -1.996997      0.327120      0.327120      0.654240
     -1.986987      0.187781      0.187781      0.375563
     -1.976977      0.178423      0.178423      0.356845
     -1.966967      0.297154      0.297154      0.594308
     -1.956957      0.587018      0.587018      1.174035
     -1.946947      1.131865      1.131865      2.263730
     -1.936937      2.042196      2.042196      4.084392
     -1.926927      3.426499      3.426499      6.852999
     -1.916917      5.348963      5.348963     10.697926
     -1.906907      7.784264      7.784264     15.568528
     -1.896897     10.588318     10.588318     21.176636
     -1.886887     13.503142     13.503142     27.006284
     -1.876877     16.202042     16.202042     32.404084
     -1.866867     18.363971     18.363971     36.727941
     -1.856857     19.753496     19.753496     39.506993
     -1.846847     20.281281     20.281281     40.562562
     -1.836837     20.026763     20.026763     40.053526
     -1.826827     19.213779     19.213779     38.427557
     -1.816817     18.140029     18.140029     36.280057
     -1.806807     17.076238     17.076238     34.152476
     -1.796797     16.169358     16.169358     32.338716
     -1.786787     15.393803     15.393803     30.787606
     -1.776777     14.580521     14.580521     29.161041
     -1.766767     13.515822     13.515822     27.031644
     -1.756757     12.062241     12.062241     24.124481
     -1.746747     10.240773     10.240773     20.481546
     -1.736737      8.238391      8.238391     16.476782
     -1.726727      6.349170      6.349170     12.698341
     -1.716717      4.890044      4.890044      9.780087
     -1.706707      4.132898      4.132898      8.265796
     -1.696697      4.268858      4.268858      8.537717
     -1.686687      5.391828      5.391828     10.783657
     -1.676677      7.478838      7.478838     14.957677
     -1.666667     10.359484     10.359484     20.718967
     -1.656657     13.692280     13.692280     27.384559
     -1.646647     16.980995     16.980995     33.961989
     -1.636637     19.654772     19.654772     39.309544
     -1.626627     21.204579     21.204579     42.409158
