# EIG2DOS: Utility for SIESTA to obtain the electronic density of states
#  E. Artacho, Apr 1999, A. Garcia, Apr 2012
#  Nick R. Papior, Feb 2017
# ------------------------------------------
# Eigenvalues calculated from a non-polarized calculation
# Eigenvalues read from siesta.EIG
# Kpoint weights read from siesta.KP
# Using smearing parameter:   0.0500
# Using 1000 points in the energy range
# Selected bands: 1 to: 2981
# Emin, Emax in file for selected band(s):    -27.1408080    218.3469740
# Nbands, Nspin, Nk   =   2981     1     1
# E_F                 =    -4.2630 eV --> (shifted to ZERO)
# Broadening          =     0.0500 eV
#
#        E            N(up)  (=)   N(down)         Ntot
     -5.000000     35.471793     35.471793     70.943586
     -4.989990     38.580469     38.580469     77.160939
     -4.979980     41.295727     41.295727     82.591454
     -4.969970     43.101970     43.101970     86.203939
     -4.959960     43.629311     43.629311     87.258621
     -4.949950     42.751754     42.751754     85.503509
     -4.939940     40.622492     40.622492     81.244983
     -4.929930     37.649131     37.649131     75.298261
     -4.919920     34.431762     34.431762     68.863525
     -4.909910     31.685448     31.685448     63.370896
     -4.899900     30.148224     30.148224     60.296448
     -4.889890     30.455963     30.455963     60.911927
     -4.879880     32.972393     32.972393     65.944785
     -4.869870     37.605146     37.605146     75.210292
     -4.859860     43.691956     43.691956     87.383912
     -4.849850     50.056811     50.056811    100.113621
     -4.839840     55.280226     55.280226    110.560453
     -4.829830     58.117054     58.117054    116.234109
     -4.819820     57.896075     57.896075    115.792151
     -4.809810     54.720711     54.720711    109.441422
     -4.799800     49.381070     49.381070     98.762139
     -4.789790     43.032065     43.032065     86.064130
     -4.779780     36.799805     36.799805     73.599610
     -4.769770     31.486275     31.486275     62.972550
     -4.759760     27.459953     27.459953     54.919905
     -4.749750     24.713419     24.713419     49.426839
     -4.739740     23.004835     23.004835     46.009670
     -4.729730     21.999259     21.999259     43.998518
     -4.719720     21.363889     21.363889     42.727778
     -4.709710     20.812242     20.812242     41.624483
     -4.699700     20.116936     20.116936     40.233871
     -4.689690     19.117931     19.117931     38.235861
     -4.679680     17.746627     17.746627     35.493253
     -4.669670     16.068943     16.068943     32.137885
     -4.659660     14.329022     14.329022     28.658043
     -4.649650     12.961597     12.961597     25.923195
     -4.639640     12.544362     12.544362     25.088725
     -4.629630     13.680328     13.680328     27.360656
     -4.619620     16.825459     16.825459     33.650919
     -4.609610     22.102103     22.102103     44.204205
     -4.599600     29.160309     29.160309     58.320618
     -4.589590     37.158279     37.158279     74.316559
     -4.579580     44.913025     44.913025     89.826050
     -4.569570     51.212657     51.212657    102.425314
     -4.559560     55.198827     55.198827    110.397655
     -4.549550     56.666933     56.666933    113.333866
     -4.539540     56.139749     56.139749    112.279497
     -4.529530     54.658913     54.658913    109.317825
     -4.519520     53.368850     53.368850    106.737700
     -4.509510     53.069606     53.069606    106.139213
     -4.499499     53.931183     53.931183    107.862367
     -4.489489     55.482424     55.482424    110.964849
     -4.479479     56.855676     56.855676    113.711351
     -4.469469     57.155495     57.155495    114.310991
     -4.459459     55.782479     55.782479    111.564959
     -4.449449     52.592411     52.592411    105.184822
     -4.439439     47.868354     47.868354     95.736708
     -4.429429     42.170054     42.170054     84.340109
     -4.419419     36.158383     36.158383     72.316766
     -4.409409     30.467399     30.467399     60.934798
     -4.399399     25.640988     25.640988     51.281975
     -4.389389     22.104675     22.104675     44.209349
     -4.379379     20.133181     20.133181     40.266363
     -4.369369     19.800810     19.800810     39.601619
     -4.359359     20.940125     20.940125     41.880250
     -4.349349     23.152882     23.152882     46.305764
     -4.339339     25.899307     25.899307     51.798615
     -4.329329     28.648529     28.648529     57.297058
     -4.319319     31.033805     31.033805     62.067610
     -4.309309     32.947658     32.947658     65.895317
     -4.299299     34.538107     34.538107     69.076214
     -4.289289     36.109373     36.109373     72.218745
     -4.279279     37.964551     37.964551     75.929102
     -4.269269     40.242853     40.242853     80.485707
     -4.259259     42.804949     42.804949     85.609899
     -4.249249     45.213264     45.213264     90.426527
     -4.239239     46.835108     46.835108     93.670216
     -4.229229     47.055412     47.055412     94.110823
     -4.219219     45.528432     45.528432     91.056864
     -4.209209     42.356509     42.356509     84.713017
     -4.199199     38.097802     38.097802     76.195605
     -4.189189     33.582692     33.582692     67.165383
     -4.179179     29.619720     29.619720     59.239440
     -4.169169     26.732062     26.732062     53.464125
     -4.159159     25.044749     25.044749     50.089498
     -4.149149     24.357189     24.357189     48.714379
     -4.139139     24.340466     24.340466     48.680931
     -4.129129     24.746570     24.746570     49.493140
     -4.119119     25.524635     25.524635     51.049271
     -4.109109     26.792056     26.792056     53.584113
     -4.099099     28.679426     28.679426     57.358851
     -4.089089     31.131975     31.131975     62.263951
     -4.079079     33.781980     33.781980     67.563961
     -4.069069     35.984201     35.984201     71.968403
     -4.059059     37.027455     37.027455     74.054910
     -4.049049     36.433913     36.433913     72.867825
     -4.039039     34.195126     34.195126     68.390252
     -4.029029     30.817326     30.817326     61.634651
     -4.019019     27.150772     27.150772     54.301543
     -4.009009     24.095152     24.095152     48.190305
     -3.998999     22.330072     22.330072     44.660144
     -3.988989     22.184713     22.184713     44.369426
     -3.978979     23.665900     23.665900     47.331800
     -3.968969     26.577176     26.577176     53.154352
     -3.958959     30.636277     30.636277     61.272553
     -3.948949     35.537791     35.537791     71.075581
     -3.938939     40.969548     40.969548     81.939096
     -3.928929     46.624324     46.624324     93.248647
     -3.918919     52.232362     52.232362    104.464724
     -3.908909     57.597663     57.597663    115.195326
     -3.898899     62.595093     62.595093    125.190186
     -3.888889     67.102751     67.102751    134.205503
     -3.878879     70.893942     70.893942    141.787885
     -3.868869     73.557622     73.557622    147.115244
     -3.858859     74.519888     74.519888    149.039777
     -3.848849     73.193563     73.193563    146.387126
     -3.838839     69.211868     69.211868    138.423735
     -3.828829     62.646294     62.646294    125.292589
     -3.818819     54.101805     54.101805    108.203611
     -3.808809     44.631286     44.631286     89.262572
     -3.798799     35.490570     35.490570     70.981141
     -3.788789     27.823081     27.823081     55.646162
     -3.778779     22.385902     22.385902     44.771804
     -3.768769     19.401945     19.401945     38.803891
     -3.758759     18.568022     18.568022     37.136044
     -3.748749     19.196457     19.196457     38.392913
     -3.738739     20.437098     20.437098     40.874195
     -3.728729     21.518282     21.518282     43.036565
     -3.718719     21.950566     21.950566     43.901133
     -3.708709     21.648065     21.648065     43.296129
     -3.698699     20.937277     20.937277     41.874555
     -3.688689     20.444730     20.444730     40.889461
     -3.678679     20.884297     20.884297     41.768595
     -3.668669     22.798974     22.798974     45.597947
     -3.658659     26.338599     26.338599     52.677199
     -3.648649     31.157671     31.157671     62.315342
     -3.638639     36.483176     36.483176     72.966351
     -3.628629     41.336443     41.336443     82.672885
     -3.618619     44.824279     44.824279     89.648557
     -3.608609     46.383133     46.383133     92.766266
     -3.598599     45.888192     45.888192     91.776383
     -3.588589     43.610590     43.610590     87.221179
     -3.578579     40.073797     40.073797     80.147595
     -3.568569     35.884478     35.884478     71.768957
     -3.558559     31.591436     31.591436     63.182871
     -3.548549     27.590672     27.590672     55.181345
     -3.538539     24.077031     24.077031     48.154062
     -3.528529     21.046073     21.046073     42.092146
     -3.518519     18.351818     18.351818     36.703636
     -3.508509     15.809531     15.809531     31.619062
     -3.498498     13.306575     13.306575     26.613151
     -3.488488     10.873178     10.873178     21.746356
     -3.478478      8.682892      8.682892     17.365784
     -3.468468      6.987992      6.987992     13.975983
     -3.458458      6.023022      6.023022     12.046044
     -3.448448      5.915080      5.915080     11.830160
     -3.438438      6.627749      6.627749     13.255498
     -3.428428      7.952125      7.952125     15.904251
     -3.418418      9.550341      9.550341     19.100682
     -3.408408     11.048376     11.048376     22.096752
     -3.398398     12.158103     12.158103     24.316206
     -3.388388     12.787923     12.787923     25.575846
     -3.378378     13.093853     13.093853     26.187705
     -3.368368     13.441748     13.441748     26.883497
     -3.358358     14.290639     14.290639     28.581279
     -3.348348     16.042557     16.042557     32.085113
     -3.338338     18.912339     18.912339     37.824677
     -3.328328     22.849610     22.849610     45.699220
     -3.318318     27.516389     27.516389     55.032778
     -3.308308     32.313091     32.313091     64.626183
     -3.298298     36.456767     36.456767     72.913534
     -3.288288     39.124620     39.124620     78.249239
     -3.278278     39.656141     39.656141     79.312283
     -3.268268     37.760509     37.760509     75.521019
     -3.258258     33.640052     33.640052     67.280105
     -3.248248     27.957214     27.957214     55.914428
     -3.238238     21.644472     21.644472     43.288945
     -3.228228     15.638752     15.638752     31.277503
     -3.218218     10.656451     10.656451     21.312902
     -3.208208      7.090551      7.090551     14.181103
     -3.198198      5.036551      5.036551     10.073102
     -3.188188      4.391741      4.391741      8.783483
     -3.178178      4.957268      4.957268      9.914536
     -3.168168      6.501740      6.501740     13.003481
     -3.158158      8.788929      8.788929     17.577857
     -3.148148     11.597839     11.597839     23.195679
     -3.138138     14.756442     14.756442     29.512883
     -3.128128     18.180442     18.180442     36.360885
     -3.118118     21.882648     21.882648     43.765296
     -3.108108     25.921884     25.921884     51.843769
     -3.098098     30.296797     30.296797     60.593593
     -3.088088     34.835129     34.835129     69.670258
     -3.078078     39.147614     39.147614     78.295228
     -3.068068     42.688187     42.688187     85.376374
     -3.058058     44.903346     44.903346     89.806693
     -3.048048     45.401991     45.401991     90.803982
     -3.038038     44.067357     44.067357     88.134715
     -3.028028     41.069426     41.069426     82.138852
     -3.018018     36.792435     36.792435     73.584870
     -3.008008     31.730638     31.730638     63.461276
     -2.997998     26.405381     26.405381     52.810763
     -2.987988     21.325833     21.325833     42.651665
     -2.977978     16.980469     16.980469     33.960938
     -2.967968     13.829468     13.829468     27.658935
     -2.957958     12.273921     12.273921     24.547843
     -2.947948     12.595628     12.595628     25.191256
     -2.937938     14.878903     14.878903     29.757807
     -2.927928     18.938850     18.938850     37.877700
     -2.917918     24.288596     24.288596     48.577192
     -2.907908     30.177597     30.177597     60.355193
     -2.897898     35.716946     35.716946     71.433891
     -2.887888     40.073959     40.073959     80.147918
     -2.877878     42.679312     42.679312     85.358624
     -2.867868     43.368570     43.368570     86.737140
     -2.857858     42.394822     42.394822     84.789644
     -2.847848     40.299847     40.299847     80.599693
     -2.837838     37.694931     37.694931     75.389861
     -2.827828     35.045705     35.045705     70.091410
     -2.817818     32.553244     32.553244     65.106488
     -2.807808     30.175208     30.175208     60.350415
     -2.797798     27.760294     27.760294     55.520588
     -2.787788     25.214070     25.214070     50.428139
     -2.777778     22.603914     22.603914     45.207827
     -2.767768     20.150710     20.150710     40.301420
     -2.757758     18.122326     18.122326     36.244653
     -2.747748     16.700414     16.700414     33.400829
     -2.737738     15.904814     15.904814     31.809629
     -2.727728     15.620931     15.620931     31.241862
     -2.717718     15.708010     15.708010     31.416019
     -2.707708     16.112264     16.112264     32.224527
     -2.697698     16.904084     16.904084     33.808167
     -2.687688     18.208642     18.208642     36.417284
     -2.677678     20.073283     20.073283     40.146565
     -2.667668     22.363532     22.363532     44.727065
     -2.657658     24.766993     24.766993     49.533987
     -2.647648     26.915381     26.915381     53.830763
     -2.637638     28.554616     28.554616     57.109233
     -2.627628     29.657344     29.657344     59.314688
     -2.617618     30.408535     30.408535     60.817071
     -2.607608     31.078132     31.078132     62.156265
     -2.597598     31.864934     31.864934     63.729868
     -2.587588     32.803060     32.803060     65.606121
     -2.577578     33.766500     33.766500     67.533000
     -2.567568     34.537691     34.537691     69.075381
     -2.557558     34.878557     34.878557     69.757114
     -2.547548     34.571442     34.571442     69.142884
     -2.537538     33.446449     33.446449     66.892899
     -2.527528     31.430035     31.430035     62.860070
     -2.517518     28.619991     28.619991     57.239981
     -2.507508     25.344531     25.344531     50.689062
     -2.497497     22.145451     22.145451     44.290901
     -2.487487     19.657867     19.657867     39.315734
     -2.477477     18.420139     18.420139     36.840277
     -2.467467     18.694322     18.694322     37.388643
     -2.457457     20.380437     20.380437     40.760874
     -2.447447     23.066879     23.066879     46.133758
     -2.437437     26.197390     26.197390     52.394781
     -2.427427     29.281626     29.281626     58.563252
     -2.417417     32.055073     32.055073     64.110146
     -2.407407     34.515493     34.515493     69.030985
     -2.397397     36.819736     36.819736     73.639472
     -2.387387     39.092433     39.092433     78.184865
     -2.377377     41.244632     41.244632     82.489264
     -2.367367     42.901821     42.901821     85.803643
     -2.357357     43.492571     43.492571     86.985142
     -2.347347     42.471127     42.471127     84.942254
     -2.337337     39.576741     39.576741     79.153481
     -2.327327     35.007676     35.007676     70.015351
     -2.317317     29.425771     29.425771     58.851542
     -2.307307     23.789070     23.789070     47.578141
     -2.297297     19.088720     19.088720     38.177440
     -2.287287     16.098384     16.098384     32.196768
     -2.277277     15.219362     15.219362     30.438723
     -2.267267     16.448332     16.448332     32.896663
     -2.257257     19.444753     19.444753     38.889505
     -2.247247     23.652283     23.652283     47.304566
     -2.237237     28.429899     28.429899     56.859799
     -2.227227     33.160093     33.160093     66.320186
     -2.217217     37.315564     37.315564     74.631128
     -2.207207     40.482510     40.482510     80.965021
     -2.197197     42.357400     42.357400     84.714800
     -2.187187     42.746469     42.746469     85.492938
     -2.177177     41.590971     41.590971     83.181943
     -2.167167     39.013630     39.013630     78.027260
     -2.157157     35.348821     35.348821     70.697643
     -2.147147     31.108345     31.108345     62.216690
     -2.137137     26.863135     26.863135     53.726270
     -2.127127     23.076318     23.076318     46.152637
     -2.117117     19.965891     19.965891     39.931783
     -2.107107     17.470475     17.470475     34.940950
     -2.097097     15.336826     15.336826     30.673652
     -2.087087     13.278959     13.278959     26.557918
     -2.077077     11.122529     11.122529     22.245058
     -2.067067      8.866314      8.866314     17.732628
     -2.057057      6.647862      6.647862     13.295724
     -2.047047      4.652744      4.652744      9.305489
     -2.037037      3.025582      3.025582      6.051164
     -2.027027      1.823365      1.823365      3.646729
     -2.017017      1.018101      1.018101      2.036203
     -2.007007      0.530477      0.530477      1.060955
     -1.996997      0.269904      0.269904      0.539808
     -1.986987      0.164852      0.164852      0.329703
     -1.976977      0.179647      0.179647      0.359295
     -1.966967      0.321405      0.321405      0.642811
     -1.956957      0.641103      0.641103      1.282205
     -1.946947      1.228577      1.228577      2.457153
     -1.936937      2.197008      2.197008      4.394016
     -1.926927      3.652511      3.652511      7.305021
     -1.916917      5.650708      5.650708     11.301417
     -1.906907      8.152334      8.152334     16.304668
     -1.896897     10.997414     10.997414     21.994828
     -1.886887     13.915641     13.915641     27.831282
     -1.876877     16.577651     16.577651     33.155301
     -1.866867     18.674782     18.674782     37.349564
     -1.856857     20.003426     20.003426     40.006852
     -1.846847     20.528864     20.528864     41.057729
     -1.836837     20.408936     20.408936     40.817871
     -1.826827     19.964484     19.964484     39.928967
     -1.816817     19.592482     19.592482     39.184963
     -1.806807     19.634978     19.634978     39.269956
     -1.796797     20.242228     20.242228     40.484455
     -1.786787     21.287214     21.287214     42.574428
     -1.776777     22.381371     22.381371     44.762742
     -1.766767     23.001210     23.001210     46.002421
     -1.756757     22.680704     22.680704     45.361408
     -1.746747     21.187604     21.187604     42.375209
     -1.736737     18.607830     18.607830     37.215659
     -1.726727     15.308363     15.308363     30.616725
     -1.716717     11.807925     11.807925     23.615849
     -1.706707      8.621984      8.621984     17.243968
     -1.696697      6.146209      6.146209     12.292418
     -1.686687      4.607814      4.607814      9.215629
     -1.676677      4.072792      4.072792      8.145585
     -1.666667      4.474191      4.474191      8.948383
     -1.656657      5.632667      5.632667     11.265334
     -1.646647      7.266208      7.266208     14.532416
     -1.636637      9.010104      9.010104     18.020208
     -1.626627     10.471981     10.471981     20.943961
