# EIG2DOS: Utility for SIESTA to obtain the electronic density of states
#  E. Artacho, Apr 1999, A. Garcia, Apr 2012
#  Nick R. Papior, Feb 2017
# ------------------------------------------
# Eigenvalues calculated from a non-polarized calculation
# Eigenvalues read from siesta.EIG
# Kpoint weights read from siesta.KP
# Using smearing parameter:   0.0500
# Using 1000 points in the energy range
# Selected bands: 1 to: 2981
# Emin, Emax in file for selected band(s):    -27.1472263    218.3470810
# Nbands, Nspin, Nk   =   2981     1     1
# E_F                 =    -4.2662 eV --> (shifted to ZERO)
# Broadening          =     0.0500 eV
#
#        E            N(up)  (=)   N(down)         Ntot
     -5.000000     33.384290     33.384290     66.768580
     -4.989990     37.187548     37.187548     74.375095
     -4.979980     40.615891     40.615891     81.231781
     -4.969970     43.105534     43.105534     86.211068
     -4.959960     44.214253     44.214253     88.428506
     -4.949950     43.745761     43.745761     87.491521
     -4.939940     41.812513     41.812513     83.625026
     -4.929930     38.823041     38.823041     77.646082
     -4.919920     35.412874     35.412874     70.825748
     -4.909910     32.349145     32.349145     64.698289
     -4.899900     30.422843     30.422843     60.845686
     -4.889890     30.318337     30.318337     60.636673
     -4.879880     32.447560     32.447560     64.895119
     -4.869870     36.771369     36.771369     73.542737
     -4.859860     42.682715     42.682715     85.365430
     -4.849850     49.048091     49.048091     98.096183
     -4.839840     54.457592     54.457592    108.915183
     -4.829830     57.629774     57.629774    115.259548
     -4.819820     57.816596     57.816596    115.633193
     -4.809810     55.028667     55.028667    110.057334
     -4.799800     49.979835     49.979835     99.959670
     -4.789790     43.789276     43.789276     87.578552
     -4.779780     37.592114     37.592114     75.184229
     -4.769770     32.229674     32.229674     64.459349
     -4.759760     28.117889     28.117889     56.235779
     -4.749750     25.287008     25.287008     50.574017
     -4.739740     23.515210     23.515210     47.030419
     -4.729730     22.470633     22.470633     44.941266
     -4.719720     21.811497     21.811497     43.622995
     -4.709710     21.236219     21.236219     42.472438
     -4.699700     20.502013     20.502013     41.004027
     -4.689690     19.437932     19.437932     38.875863
     -4.679680     17.971137     17.971137     35.942274
     -4.669670     16.168521     16.168521     32.337041
     -4.659660     14.276633     14.276633     28.553266
     -4.649650     12.731699     12.731699     25.463397
     -4.639640     12.114793     12.114793     24.229587
     -4.629630     13.042638     13.042638     26.085275
     -4.619620     16.004754     16.004754     32.009508
     -4.609610     21.179668     21.179668     42.359335
     -4.599600     28.286005     28.286005     56.572009
     -4.589590     36.540276     36.540276     73.080551
     -4.579580     44.781229     44.781229     89.562458
     -4.569570     51.764412     51.764412    103.528823
     -4.559560     56.543197     56.543197    113.086393
     -4.549550     58.782678     58.782678    117.565355
     -4.539540     58.855452     58.855452    117.710904
     -4.529530     57.659382     57.659382    115.318764
     -4.519520     56.232765     56.232765    112.465530
     -4.509510     55.342826     55.342826    110.685653
     -4.499499     55.229202     55.229202    110.458404
     -4.489489     55.595195     55.595195    111.190390
     -4.479479     55.813417     55.813417    111.626833
     -4.469469     55.221713     55.221713    110.443427
     -4.459459     53.371674     53.371674    106.743347
     -4.449449     50.146236     50.146236    100.292472
     -4.439439     45.741362     45.741362     91.482723
     -4.429429     40.564658     40.564658     81.129317
     -4.419419     35.119344     35.119344     70.238688
     -4.409409     29.919614     29.919614     59.839227
     -4.399399     25.444298     25.444298     50.888596
     -4.389389     22.104765     22.104765     44.209531
     -4.379379     20.198512     20.198512     40.397024
     -4.369369     19.843345     19.843345     39.686689
     -4.359359     20.920639     20.920639     41.841279
     -4.349349     23.072825     23.072825     46.145650
     -4.339339     25.783283     25.783283     51.566566
     -4.329329     28.524104     28.524104     57.048207
     -4.319319     30.916309     30.916309     61.832617
     -4.309309     32.835306     32.835306     65.670612
     -4.299299     34.417896     34.417896     68.835792
     -4.289289     35.969304     35.969304     71.938608
     -4.279279     37.805309     37.805309     75.610618
     -4.269269     40.083008     40.083008     80.166016
     -4.259259     42.677092     42.677092     85.354184
     -4.249249     45.152422     45.152422     90.304844
     -4.239239     46.863812     46.863812     93.727624
     -4.229229     47.171231     47.171231     94.342463
     -4.219219     45.699428     45.699428     91.398856
     -4.209209     42.527679     42.527679     85.055358
     -4.199199     38.207580     38.207580     76.415160
     -4.189189     33.584075     33.584075     67.168149
     -4.179179     29.497956     29.497956     58.995912
     -4.169169     26.511665     26.511665     53.023331
     -4.159159     24.782887     24.782887     49.565773
     -4.149149     24.125905     24.125905     48.251811
     -4.139139     24.204155     24.204155     48.408310
     -4.129129     24.742345     24.742345     49.484690
     -4.119119     25.652025     25.652025     51.304049
     -4.109109     27.015637     27.015637     54.031275
     -4.099099     28.943753     28.943753     57.887507
     -4.089089     31.383165     31.383165     62.766329
     -4.079079     33.986527     33.986527     67.973055
     -4.069069     36.136078     36.136078     72.272157
     -4.059059     37.140328     37.140328     74.280656
     -4.049049     36.523891     36.523891     73.047782
     -4.039039     34.265245     34.265245     68.530490
     -4.029029     30.853691     30.853691     61.707382
     -4.019019     27.132432     27.132432     54.264864
     -4.009009     24.010582     24.010582     48.021164
     -3.998999     22.188906     22.188906     44.377811
     -3.988989     22.016827     22.016827     44.033654
     -3.978979     23.508355     23.508355     47.016711
     -3.968969     26.456962     26.456962     52.913923
     -3.958959     30.558412     30.558412     61.116825
     -3.948949     35.483896     35.483896     70.967793
     -3.938939     40.905515     40.905515     81.811030
     -3.928929     46.511954     46.511954     93.023908
     -3.918919     52.040451     52.040451    104.080902
     -3.908909     57.310792     57.310792    114.621584
     -3.898899     62.220089     62.220089    124.440177
     -3.888889     66.672161     66.672161    133.344323
     -3.878879     70.464552     70.464552    140.929104
     -3.868869     73.202239     73.202239    146.404478
     -3.858859     74.312824     74.312824    148.625648
     -3.848849     73.193055     73.193055    146.386111
     -3.838839     69.444353     69.444353    138.888706
     -3.828829     63.097304     63.097304    126.194607
     -3.818819     54.716689     54.716689    109.433379
     -3.808809     45.326415     45.326415     90.652830
     -3.798799     36.172522     36.172522     72.345045
     -3.788789     28.410458     28.410458     56.820916
     -3.778779     22.827086     22.827086     45.654173
     -3.768769     19.683389     19.683389     39.366778
     -3.758759     18.711141     18.711141     37.422281
     -3.748749     19.245230     19.245230     38.490461
     -3.738739     20.441194     20.441194     40.882389
     -3.728729     21.517073     21.517073     43.034146
     -3.718719     21.962216     21.962216     43.924433
     -3.708709     21.665976     21.665976     43.331951
     -3.698699     20.934301     20.934301     41.868601
     -3.688689     20.383976     20.383976     40.767952
     -3.678679     20.733785     20.733785     41.467570
     -3.668669     22.545823     22.545823     45.091646
     -3.658659     25.997639     25.997639     51.995278
     -3.648649     30.770416     30.770416     61.540832
     -3.638639     36.106673     36.106673     72.213346
     -3.628629     41.026321     41.026321     82.052642
     -3.618619     44.619573     44.619573     89.239147
     -3.608609     46.299523     46.299523     92.599046
     -3.598599     45.921209     45.921209     91.842418
     -3.588589     43.744542     43.744542     87.489084
     -3.578579     40.289752     40.289752     80.579504
     -3.568569     36.163233     36.163233     72.326467
     -3.558559     31.912389     31.912389     63.824779
     -3.548549     27.930614     27.930614     55.861228
     -3.538539     24.411897     24.411897     48.823793
     -3.528529     21.355195     21.355195     42.710390
     -3.518519     18.621564     18.621564     37.243128
     -3.508509     16.033634     16.033634     32.067268
     -3.498498     13.483019     13.483019     26.966038
     -3.488488     10.999887     10.999887     21.999773
     -3.478478      8.754989      8.754989     17.509977
     -3.468468      6.998260      6.998260     13.996519
     -3.458458      5.965579      5.965579     11.931158
     -3.448448      5.790968      5.790968     11.581935
     -3.438438      6.450188      6.450188     12.900376
     -3.428428      7.748627      7.748627     15.497254
     -3.418418      9.359241      9.359241     18.718483
     -3.408408     10.909319     10.909319     21.818638
     -3.398398     12.099122     12.099122     24.198244
     -3.388388     12.814329     12.814329     25.628658
     -3.378378     13.184069     13.184069     26.368138
     -3.368368     13.552217     13.552217     27.104433
     -3.358358     14.367777     14.367777     28.735554
     -3.348348     16.037248     16.037248     32.074496
     -3.338338     18.792805     18.792805     37.585611
     -3.328328     22.610517     22.610517     45.221035
     -3.318318     27.183349     27.183349     54.366699
     -3.308308     31.941268     31.941268     63.882537
     -3.298298     36.121592     36.121592     72.243185
     -3.288288     38.904153     38.904153     77.808306
     -3.278278     39.608917     39.608917     79.217835
     -3.268268     37.907164     37.907164     75.814328
     -3.258258     33.957597     33.957597     67.915194
     -3.248248     28.389850     28.389850     56.779700
     -3.238238     22.126897     22.126897     44.253793
     -3.228228     16.121949     16.121949     32.243899
     -3.218218     11.125311     11.125311     22.250621
     -3.208208      7.566689      7.566689     15.133379
     -3.198198      5.565389      5.565389     11.130779
     -3.188188      5.017698      5.017698     10.035397
     -3.178178      5.694590      5.694590     11.389179
     -3.168168      7.311302      7.311302     14.622604
     -3.158158      9.571927      9.571927     19.143854
     -3.148148     12.212940     12.212940     24.425879
     -3.138138     15.056996     15.056996     30.113991
     -3.128128     18.057205     18.057205     36.114411
     -3.118118     21.292908     21.292908     42.585816
     -3.108108     24.893156     24.893156     49.786312
     -3.098098     28.908762     28.908762     57.817524
     -3.088088     33.196361     33.196361     66.392722
     -3.078078     37.383642     37.383642     74.767284
     -3.068068     40.944103     40.944103     81.888207
     -3.058058     43.347972     43.347972     86.695945
     -3.048048     44.215229     44.215229     88.430458
     -3.038038     43.403347     43.403347     86.806694
     -3.028028     41.007925     41.007925     82.015850
     -3.018018     37.304221     37.304221     74.608443
     -3.008008     32.678747     32.678747     65.357494
     -2.997998     27.584880     27.584880     55.169760
     -2.987988     22.523936     22.523936     45.047871
     -2.977978     18.030005     18.030005     36.060010
     -2.967968     14.636076     14.636076     29.272151
     -2.957958     12.813638     12.813638     25.627276
     -2.947948     12.893360     12.893360     25.786721
     -2.937938     14.982808     14.982808     29.965616
     -2.927928     18.901471     18.901471     37.802942
     -2.917918     24.158086     24.158086     48.316173
     -2.907908     29.996448     29.996448     59.992897
     -2.897898     35.523453     35.523453     71.046907
     -2.887888     39.902590     39.902590     79.805179
     -2.877878     42.558565     42.558565     85.117129
     -2.867868     43.317269     43.317269     86.634539
     -2.857858     42.419071     42.419071     84.838143
     -2.847848     40.392650     40.392650     80.785300
     -2.837838     37.839052     37.839052     75.678104
     -2.827828     35.218574     35.218574     70.437148
     -2.817818     32.731806     32.731806     65.463611
     -2.807808     30.339067     30.339067     60.678133
     -2.797798     27.892942     27.892942     55.785884
     -2.787788     25.303237     25.303237     50.606474
     -2.777778     22.642284     22.642284     45.284569
     -2.767768     20.137259     20.137259     40.274518
     -2.757758     18.063172     18.063172     36.126344
     -2.747748     16.607418     16.607418     33.214837
     -2.737738     15.790957     15.790957     31.581913
     -2.727728     15.493589     15.493589     30.987179
     -2.717718     15.563574     15.563574     31.127147
     -2.707708     15.936238     15.936238     31.872476
     -2.697698     16.678773     16.678773     33.357547
     -2.687688     17.926108     17.926108     35.852216
     -2.677678     19.746942     19.746942     39.493883
     -2.667668     22.030797     22.030797     44.061594
     -2.657658     24.479313     24.479313     48.958626
     -2.647648     26.719289     26.719289     53.438577
     -2.637638     28.473337     28.473337     56.946674
     -2.627628     29.682843     29.682843     59.365687
     -2.617618     30.507825     30.507825     61.015649
     -2.607608     31.209276     31.209276     62.418552
     -2.597598     31.993307     31.993307     63.986615
     -2.587588     32.910159     32.910159     65.820318
     -2.577578     33.849840     33.849840     67.699680
     -2.567568     34.605782     34.605782     69.211564
     -2.557558     34.945704     34.945704     69.891408
     -2.547548     34.653925     34.653925     69.307849
     -2.537538     33.558423     33.558423     67.116847
     -2.527528     31.577542     31.577542     63.155083
     -2.517518     28.794432     28.794432     57.588864
     -2.507508     25.519702     25.519702     51.039403
     -2.497497     22.281843     22.281843     44.563686
     -2.487487     19.714488     19.714488     39.428976
     -2.477477     18.369819     18.369819     36.739638
     -2.467467     18.536155     18.536155     37.072310
     -2.457457     20.143710     20.143710     40.287419
     -2.447447     22.804149     22.804149     45.608297
     -2.437437     25.968785     25.968785     51.937571
     -2.427427     29.136206     29.136206     58.272412
     -2.417417     32.016565     32.016565     64.033130
     -2.407407     34.577971     34.577971     69.155942
     -2.397397     36.954485     36.954485     73.908970
     -2.387387     39.262316     39.262316     78.524631
     -2.377377     41.419280     41.419280     82.838559
     -2.367367     43.067209     43.067209     86.134418
     -2.357357     43.651720     43.651720     87.303440
     -2.347347     42.636993     42.636993     85.273987
     -2.337337     39.761764     39.761764     79.523527
     -2.327327     35.215337     35.215337     70.430674
     -2.317317     29.647609     29.647609     59.295218
     -2.307307     24.007164     24.007164     48.014327
     -2.297297     19.280878     19.280878     38.561756
     -2.287287     16.242829     16.242829     32.485658
     -2.277277     15.297511     15.297511     30.595023
     -2.267267     16.446595     16.446595     32.893190
     -2.257257     19.357041     19.357041     38.714081
     -2.247247     23.483577     23.483577     46.967153
     -2.237237     28.199069     28.199069     56.398138
     -2.227227     32.899245     32.899245     65.798490
     -2.217217     37.064561     37.064561     74.129122
     -2.207207     40.279991     40.279991     80.559983
     -2.197197     42.231587     42.231587     84.463174
     -2.187187     42.709004     42.709004     85.418008
     -2.177177     41.635377     41.635377     83.270753
     -2.167167     39.118256     39.118256     78.236513
     -2.157157     35.483256     35.483256     70.966512
     -2.147147     31.241875     31.241875     62.483750
     -2.137137     26.973309     26.973309     53.946618
     -2.127127     23.154930     23.154930     46.309859
     -2.117117     20.019886     20.019886     40.039773
     -2.107107     17.517038     17.517038     35.034076
     -2.097097     15.394661     15.394661     30.789322
     -2.087087     13.359822     13.359822     26.719643
     -2.077077     11.226854     11.226854     22.453708
     -2.067067      8.984417      8.984417     17.968834
     -2.057057      6.765204      6.765204     13.530407
     -2.047047      4.756036      4.756036      9.512073
     -2.037037      3.106863      3.106863      6.213726
     -2.027027      1.880912      1.880912      3.761824
     -2.017017      1.054837      1.054837      2.109673
     -2.007007      0.551360      0.551360      1.102720
     -1.996997      0.279579      0.279579      0.559158
     -1.986987      0.166090      0.166090      0.332180
     -1.976977      0.172502      0.172502      0.345004
     -1.966967      0.302836      0.302836      0.605672
     -1.956957      0.605066      0.605066      1.210133
     -1.946947      1.166952      1.166952      2.333905
     -1.936937      2.101857      2.101857      4.203713
     -1.926927      3.519748      3.519748      7.039497
     -1.916917      5.484289      5.484289     10.968578
     -1.906907      7.966955      7.966955     15.933910
     -1.896897     10.817470     10.817470     21.634941
     -1.886887     13.769295     13.769295     27.538590
     -1.876877     16.487205     16.487205     32.974409
     -1.866867     18.646771     18.646771     37.293543
     -1.856857     20.022503     20.022503     40.045005
     -1.846847     20.558209     20.558209     41.116419
     -1.836837     20.397549     20.397549     40.795098
     -1.826827     19.859763     19.859763     39.719526
     -1.816817     19.355541     19.355541     38.711082
     -1.806807     19.255604     19.255604     38.511208
     -1.796797     19.749445     19.749445     39.498889
     -1.786787     20.750640     20.750640     41.501279
     -1.776777     21.899599     21.899599     43.799198
     -1.766767     22.677631     22.677631     45.355263
     -1.756757     22.593359     22.593359     45.186717
     -1.746747     21.364319     21.364319     42.728638
     -1.736737     19.017318     19.017318     38.034635
     -1.726727     15.871380     15.871380     31.742759
     -1.716717     12.423338     12.423338     24.846675
     -1.706707      9.196175      9.196175     18.392350
     -1.696697      6.614266      6.614266     13.228532
     -1.686687      4.940794      4.940794      9.881589
     -1.676677      4.272753      4.272753      8.545506
     -1.666667      4.563236      4.563236      9.126472
     -1.656657      5.642227      5.642227     11.284455
     -1.646647      7.229609      7.229609     14.459219
     -1.636637      8.958116      8.958116     17.916231
     -1.626627     10.429596     10.429596     20.859193
