# EIG2DOS: Utility for SIESTA to obtain the electronic density of states
#  E. Artacho, Apr 1999, A. Garcia, Apr 2012
#  Nick R. Papior, Feb 2017
# ------------------------------------------
# Eigenvalues calculated from a non-polarized calculation
# Eigenvalues read from siesta.EIG
# Kpoint weights read from siesta.KP
# Using smearing parameter:   0.0500
# Using 1000 points in the energy range
# Selected bands: 1 to: 2981
# Emin, Emax in file for selected band(s):    -27.0312856    218.3108800
# Nbands, Nspin, Nk   =   2981     1     1
# E_F                 =    -4.2978 eV --> (shifted to ZERO)
# Broadening          =     0.0500 eV
#
#        E            N(up)  (=)   N(down)         Ntot
     -5.000000     45.131880     45.131880     90.263759
     -4.989990     48.623863     48.623863     97.247727
     -4.979980     50.637757     50.637757    101.275515
     -4.969970     51.004739     51.004739    102.009478
     -4.959960     49.779099     49.779099     99.558197
     -4.949950     47.210628     47.210628     94.421255
     -4.939940     43.692005     43.692005     87.384010
     -4.929930     39.710025     39.710025     79.420051
     -4.919920     35.817425     35.817425     71.634849
     -4.909910     32.618837     32.618837     65.237674
     -4.899900     30.741514     30.741514     61.483028
     -4.889890     30.752583     30.752583     61.505166
     -4.879880     33.004054     33.004054     66.008107
     -4.869870     37.437586     37.437586     74.875173
     -4.859860     43.440138     43.440138     86.880275
     -4.849850     49.863644     49.863644     99.727287
     -4.839840     55.270224     55.270224    110.540449
     -4.829830     58.349794     58.349794    116.699588
     -4.819820     58.344864     58.344864    116.689729
     -4.809810     55.287670     55.287670    110.575339
     -4.799800     49.939517     49.939517     99.879034
     -4.789790     43.473956     43.473956     86.947912
     -4.779780     37.067461     37.067461     74.134923
     -4.769770     31.580264     31.580264     63.160527
     -4.759760     27.428050     27.428050     54.856100
     -4.749750     24.630855     24.630855     49.261710
     -4.739740     22.953305     22.953305     45.906609
     -4.729730     22.047632     22.047632     44.095264
     -4.719720     21.552235     21.552235     43.104470
     -4.709710     21.142359     21.142359     42.284719
     -4.699700     20.552767     20.552767     41.105535
     -4.689690     19.595577     19.595577     39.191154
     -4.679680     18.188352     18.188352     36.376703
     -4.669670     16.393345     16.393345     32.786689
     -4.659660     14.453105     14.453105     28.906211
     -4.649650     12.797929     12.797929     25.595859
     -4.639640     12.002932     12.002932     24.005865
     -4.629630     12.685333     12.685333     25.370666
     -4.619620     15.349691     15.349691     30.699381
     -4.609610     20.207780     20.207780     40.415560
     -4.599600     27.021639     27.021639     54.043278
     -4.589590     35.037484     35.037484     70.074968
     -4.579580     43.075668     43.075668     86.151336
     -4.569570     49.797997     49.797997     99.595993
     -4.559560     54.092968     54.092968    108.185937
     -4.549550     55.441443     55.441443    110.882885
     -4.539540     54.103655     54.103655    108.207311
     -4.529530     51.030649     51.030649    102.061298
     -4.519520     47.523969     47.523969     95.047938
     -4.509510     44.782243     44.782243     89.564486
     -4.499499     43.519710     43.519710     87.039420
     -4.489489     43.798916     43.798916     87.597832
     -4.479479     45.116417     45.116417     90.232834
     -4.469469     46.672651     46.672651     93.345302
     -4.459459     47.694759     47.694759     95.389519
     -4.449449     47.683637     47.683637     95.367275
     -4.439439     46.511042     46.511042     93.022084
     -4.429429     44.367046     44.367046     88.734092
     -4.419419     41.618455     41.618455     83.236910
     -4.409409     38.661439     38.661439     77.322877
     -4.399399     35.830952     35.830952     71.661905
     -4.389389     33.380720     33.380720     66.761440
     -4.379379     31.501048     31.501048     63.002096
     -4.369369     30.326856     30.326856     60.653712
     -4.359359     29.912745     29.912745     59.825490
     -4.349349     30.194296     30.194296     60.388593
     -4.339339     30.979588     30.979588     61.959176
     -4.329329     32.001191     32.001191     64.002381
     -4.319319     33.017157     33.017157     66.034314
     -4.309309     33.912564     33.912564     67.825128
     -4.299299     34.747799     34.747799     69.495599
     -4.289289     35.726358     35.726358     71.452716
     -4.279279     37.091996     37.091996     74.183992
     -4.269269     38.991841     38.991841     77.983683
     -4.259259     41.353713     41.353713     82.707426
     -4.249249     43.827828     43.827828     87.655655
     -4.239239     45.834183     45.834183     91.668365
     -4.229229     46.726556     46.726556     93.453112
     -4.219219     46.029598     46.029598     92.059196
     -4.209209     43.650962     43.650962     87.301923
     -4.199199     39.958321     39.958321     79.916642
     -4.189189     35.666523     35.666523     71.333047
     -4.179179     31.579521     31.579521     63.159042
     -4.169169     28.312581     28.312581     56.625162
     -4.159159     26.127988     26.127988     52.255976
     -4.149149     24.948753     24.948753     49.897506
     -4.139139     24.517331     24.517331     49.034662
     -4.129129     24.598645     24.598645     49.197290
     -4.119119     25.118043     25.118043     50.236086
     -4.109109     26.167276     26.167276     52.334551
     -4.099099     27.879235     27.879235     55.758470
     -4.089089     30.238716     30.238716     60.477432
     -4.079079     32.937294     32.937294     65.874587
     -4.069069     35.372056     35.372056     70.744113
     -4.059059     36.821478     36.821478     73.642957
     -4.049049     36.732300     36.732300     73.464601
     -4.039039     34.976298     34.976298     69.952596
     -4.029029     31.939407     31.939407     63.878815
     -4.019019     28.394145     28.394145     56.788291
     -4.009009     25.225678     25.225678     50.451356
     -3.998999     23.154591     23.154591     46.309182
     -3.988989     22.581190     22.581190     45.162380
     -3.978979     23.587567     23.587567     47.175133
     -3.968969     26.040897     26.040897     52.081793
     -3.958959     29.705227     29.705227     59.410453
     -3.948949     34.302066     34.302066     68.604131
     -3.938939     39.523969     39.523969     79.047938
     -3.928929     45.045280     45.045280     90.090559
     -3.918919     50.562469     50.562469    101.124938
     -3.908909     55.850627     55.850627    111.701254
     -3.898899     60.786803     60.786803    121.573605
     -3.888889     65.298821     65.298821    130.597641
     -3.878879     69.247737     69.247737    138.495474
     -3.868869     72.309023     72.309023    144.618047
     -3.858859     73.940645     73.940645    147.881291
     -3.848849     73.494218     73.494218    146.988436
     -3.838839     70.450670     70.450670    140.901340
     -3.828829     64.684830     64.684830    129.369661
     -3.818819     56.630797     56.630797    113.261593
     -3.808809     47.255786     47.255786     94.511572
     -3.798799     37.837444     37.837444     75.674888
     -3.788789     29.629165     29.629165     59.258330
     -3.778779     23.541062     23.541062     47.082125
     -3.768769     19.944172     19.944172     39.888344
     -3.758759     18.644163     18.644163     37.288326
     -3.748749     19.007037     19.007037     38.014074
     -3.738739     20.180316     20.180316     40.360632
     -3.728729     21.343011     21.343011     42.686022
     -3.718719     21.924824     21.924824     43.849649
     -3.708709     21.747839     21.747839     43.495677
     -3.698699     21.058734     21.058734     42.117469
     -3.688689     20.439017     20.439017     40.878034
     -3.678679     20.608095     20.608095     41.216190
     -3.668669     22.167367     22.167367     44.334735
     -3.658659     25.362845     25.362845     50.725689
     -3.648649     29.952733     29.952733     59.905465
     -3.638639     35.240001     35.240001     70.480003
     -3.628629     40.268590     40.268590     80.537180
     -3.618619     44.110097     44.110097     88.220195
     -3.608609     46.125683     46.125683     92.251367
     -3.598599     46.104329     46.104329     92.208657
     -3.588589     44.245304     44.245304     88.490607
     -3.578579     41.026269     41.026269     82.052538
     -3.568569     37.033331     37.033331     74.066662
     -3.558559     32.814423     32.814423     65.628845
     -3.548549     28.780233     28.780233     57.560466
     -3.538539     25.153153     25.153153     50.306306
     -3.528529     21.964213     21.964213     43.928426
     -3.518519     19.101985     19.101985     38.203970
     -3.508509     16.405755     16.405755     32.811511
     -3.498498     13.771217     13.771217     27.542433
     -3.488488     11.223293     11.223293     22.446587
     -3.478478      8.924081      8.924081     17.848162
     -3.468468      7.116744      7.116744     14.233487
     -3.458458      6.034857      6.034857     12.069713
     -3.448448      5.814347      5.814347     11.628694
     -3.438438      6.435141      6.435141     12.870282
     -3.428428      7.706560      7.706560     15.413120
     -3.418418      9.302933      9.302933     18.605866
     -3.408408     10.848606     10.848606     21.697212
     -3.398398     12.035983     12.035983     24.071967
     -3.388388     12.739023     12.739023     25.478046
     -3.378378     13.073915     13.073915     26.147831
     -3.368368     13.373750     13.373750     26.747500
     -3.358358     14.081961     14.081961     28.163922
     -3.348348     15.607180     15.607180     31.214360
     -3.338338     18.193994     18.193994     36.387988
     -3.328328     21.844070     21.844070     43.688140
     -3.318318     26.290338     26.290338     52.580676
     -3.308308     31.012203     31.012203     62.024406
     -3.298298     35.291587     35.291587     70.583175
     -3.288288     38.326925     38.326925     76.653850
     -3.278278     39.412822     39.412822     78.825645
     -3.268268     38.148917     38.148917     76.297833
     -3.258258     34.594562     34.594562     69.189123
     -3.248248     29.283696     29.283696     58.567392
     -3.238238     23.073602     23.073602     46.147204
     -3.228228     16.887526     16.887526     33.775053
     -3.218218     11.464604     11.464604     22.929207
     -3.208208      7.216326      7.216326     14.432652
     -3.198198      4.223257      4.223257      8.446513
     -3.188188      2.336953      2.336953      4.673905
     -3.178178      1.319718      1.319718      2.639435
     -3.168168      0.964460      0.964460      1.928920
     -3.158158      1.167042      1.167042      2.334084
     -3.148148      1.948745      1.948745      3.897490
     -3.138138      3.435857      3.435857      6.871713
     -3.128128      5.802233      5.802233     11.604467
     -3.118118      9.181418      9.181418     18.362837
     -3.108108     13.565418     13.565418     27.130836
     -3.098098     18.724273     18.724273     37.448545
     -3.088088     24.190227     24.190227     48.380455
     -3.078078     29.337035     29.337035     58.674070
     -3.068068     33.544382     33.544382     67.088764
     -3.058058     36.386244     36.386244     72.772487
     -3.048048     37.752888     37.752888     75.505776
     -3.038038     37.837939     37.837939     75.675878
     -3.028028     36.993166     36.993166     73.986331
     -3.018018     35.534870     35.534870     71.069741
     -3.008008     33.620836     33.620836     67.241671
     -2.997998     31.274888     31.274888     62.549776
     -2.987988     28.540350     28.540350     57.080700
     -2.977978     25.657771     25.657771     51.315541
     -2.967968     23.143882     23.143882     46.287764
     -2.957958     21.706304     21.706304     43.412607
     -2.947948     22.020366     22.020366     44.040732
     -2.937938     24.464614     24.464614     48.929228
     -2.927928     28.928631     28.928631     57.857262
     -2.917918     34.774227     34.774227     69.548453
     -2.907908     40.971419     40.971419     81.942837
     -2.897898     46.367599     46.367599     92.735198
     -2.887888     50.000797     50.000797    100.001593
     -2.877878     51.351038     51.351038    102.702075
     -2.867868     50.445453     50.445453    100.890905
     -2.857858     47.786791     47.786791     95.573581
     -2.847848     44.140375     44.140375     88.280750
     -2.837838     40.264723     40.264723     80.529445
     -2.827828     36.686733     36.686733     73.373465
     -2.817818     33.598879     33.598879     67.197759
     -2.807808     30.903169     30.903169     61.806339
     -2.797798     28.365389     28.365389     56.730777
     -2.787788     25.798444     25.798444     51.596888
     -2.777778     23.185861     23.185861     46.371722
     -2.767768     20.691232     20.691232     41.382463
     -2.757758     18.561132     18.561132     37.122264
     -2.747748     16.986319     16.986319     33.972638
     -2.737738     16.006825     16.006825     32.013651
     -2.727728     15.517493     15.517493     31.034985
     -2.717718     15.366852     15.366852     30.733704
     -2.707708     15.481951     15.481951     30.963902
     -2.697698     15.933056     15.933056     31.866111
     -2.687688     16.889255     16.889255     33.778510
     -2.677678     18.487350     18.487350     36.974700
     -2.667668     20.696777     20.696777     41.393555
     -2.657658     23.271829     23.271829     46.543657
     -2.647648     25.830454     25.830454     51.660909
     -2.637638     28.018062     28.018062     56.036124
     -2.627628     29.658495     29.658495     59.316990
     -2.617618     30.802441     30.802441     61.604883
     -2.607608     31.651588     31.651588     63.303177
     -2.597598     32.416567     32.416567     64.833133
     -2.587588     33.200505     33.200505     66.401011
     -2.577578     33.966354     33.966354     67.932708
     -2.567568     34.577720     34.577720     69.155441
     -2.557558     34.858425     34.858425     69.716850
     -2.547548     34.628242     34.628242     69.256483
     -2.537538     33.720532     33.720532     67.441064
     -2.527528     32.019152     32.019152     64.038305
     -2.517518     29.533855     29.533855     59.067710
     -2.507508     26.482563     26.482563     52.965126
     -2.497497     23.314963     23.314963     46.629926
     -2.487487     20.629991     20.629991     41.259981
     -2.477477     19.000465     19.000465     38.000929
     -2.467467     18.778173     18.778173     37.556346
     -2.457457     19.971980     19.971980     39.943959
     -2.447447     22.259509     22.259509     44.519017
     -2.437437     25.129464     25.129464     50.258927
     -2.427427     28.089520     28.089520     56.179041
     -2.417417     30.843114     30.843114     61.686228
     -2.407407     33.352055     33.352055     66.704110
     -2.397397     35.755911     35.755911     71.511822
     -2.387387     38.189545     38.189545     76.379091
     -2.377377     40.593389     40.593389     81.186779
     -2.367367     42.619703     42.619703     85.239406
     -2.357357     43.695710     43.695710     87.391421
     -2.347347     43.229286     43.229286     86.458571
     -2.337337     40.870448     40.870448     81.740896
     -2.327327     36.709361     36.709361     73.418723
     -2.317317     31.317997     31.317997     62.635994
     -2.307307     25.615632     25.615632     51.231264
     -2.297297     20.618024     20.618024     41.236048
     -2.287287     17.173264     17.173264     34.346527
     -2.277277     15.776203     15.776203     31.552406
     -2.267267     16.504805     16.504805     33.009610
     -2.257257     19.069514     19.069514     38.139028
     -2.247247     22.935029     22.935029     45.870059
     -2.237237     27.465466     27.465466     54.930932
     -2.227227     32.049673     32.049673     64.099345
     -2.217217     36.177069     36.177069     72.354137
     -2.207207     39.455892     39.455892     78.911784
     -2.197197     41.592776     41.592776     83.185551
     -2.187187     42.372852     42.372852     84.745703
     -2.177177     41.676353     41.676353     83.352707
     -2.167167     39.535758     39.535758     79.071515
     -2.157157     36.194470     36.194470     72.388940
     -2.147147     32.106745     32.106745     64.213490
     -2.137137     27.842188     27.842188     55.684376
     -2.127127     23.917604     23.917604     47.835209
     -2.117117     20.634039     20.634039     41.268077
     -2.107107     18.005233     18.005233     36.010466
     -2.097097     15.815274     15.815274     31.630548
     -2.087087     13.769474     13.769474     27.538948
     -2.077077     11.653383     11.653383     23.306767
     -2.067067      9.420557      9.420557     18.841113
     -2.057057      7.180568      7.180568     14.361137
     -2.047047      5.116569      5.116569     10.233138
     -2.037037      3.390375      3.390375      6.780750
     -2.027027      2.082902      2.082902      4.165803
     -2.017017      1.185435      1.185435      2.370869
     -2.007007      0.628023      0.628023      1.256046
     -1.996997      0.320121      0.320121      0.640242
     -1.986987      0.184422      0.184422      0.368845
     -1.976977      0.177161      0.177161      0.354323
     -1.966967      0.297223      0.297223      0.594445
     -1.956957      0.588304      0.588304      1.176608
     -1.946947      1.134831      1.134831      2.269662
     -1.936937      2.047871      2.047871      4.095741
     -1.926927      3.436485      3.436485      6.872971
     -1.916917      5.365349      5.365349     10.730698
     -1.906907      7.809276      7.809276     15.618552
     -1.896897     10.623590     10.623590     21.247179
     -1.886887     13.548641     13.548641     27.097282
     -1.876877     16.254973     16.254973     32.509946
     -1.866867     18.418256     18.418256     36.836512
     -1.856857     19.800440     19.800440     39.600880
     -1.846847     20.311618     20.311618     40.623236
     -1.836837     20.033535     20.033535     40.067069
     -1.826827     19.194841     19.194841     38.389683
     -1.816817     18.098974     18.098974     36.197949
     -1.806807     17.021209     17.021209     34.042417
     -1.796797     16.110291     16.110291     32.220582
     -1.786787     15.339321     15.339321     30.678642
     -1.776777     14.535581     14.535581     29.071161
     -1.766767     13.480464     13.480464     26.960927
     -1.756757     12.030833     12.030833     24.061666
     -1.746747     10.200664     10.200664     20.401328
     -1.736737      8.167163      8.167163     16.334326
     -1.726727      6.210958      6.210958     12.421915
     -1.716717      4.633415      4.633415      9.266831
     -1.706707      3.694822      3.694822      7.389645
     -1.696697      3.589523      3.589523      7.179046
     -1.686687      4.441554      4.441554      8.883108
     -1.676677      6.290539      6.290539     12.581078
     -1.666667      9.051349      9.051349     18.102698
     -1.656657     12.462352     12.462352     24.924704
     -1.646647     16.064030     16.064030     32.128060
     -1.636637     19.251043     19.251043     38.502087
     -1.626627     21.409467     21.409467     42.818934
