# EIG2DOS: Utility for SIESTA to obtain the electronic density of states
#  E. Artacho, Apr 1999, A. Garcia, Apr 2012
#  Nick R. Papior, Feb 2017
# ------------------------------------------
# Eigenvalues calculated from a non-polarized calculation
# Eigenvalues read from siesta.EIG
# Kpoint weights read from siesta.KP
# Using smearing parameter:   0.0500
# Using 1000 points in the energy range
# Selected bands: 1 to: 2981
# Emin, Emax in file for selected band(s):    -27.3878947    218.4090890
# Nbands, Nspin, Nk   =   2981     1     1
# E_F                 =    -4.1851 eV --> (shifted to ZERO)
# Broadening          =     0.0500 eV
#
#        E            N(up)  (=)   N(down)         Ntot
     -5.000000     31.420088     31.420088     62.840175
     -4.989990     36.810502     36.810502     73.621005
     -4.979980     41.949427     41.949427     83.898855
     -4.969970     45.919898     45.919898     91.839796
     -4.959960     47.949167     47.949167     95.898334
     -4.949950     47.669042     47.669042     95.338085
     -4.939940     45.243336     45.243336     90.486672
     -4.929930     41.325911     41.325911     82.651821
     -4.919920     36.890385     36.890385     73.780770
     -4.909910     33.009524     33.009524     66.019049
     -4.899900     30.645908     30.645908     61.291817
     -4.889890     30.475902     30.475902     60.951803
     -4.879880     32.749671     32.749671     65.499342
     -4.869870     37.206301     37.206301     74.412602
     -4.859860     43.088665     43.088665     86.177330
     -4.849850     49.296151     49.296151     98.592302
     -4.839840     54.659785     54.659785    109.319569
     -4.829830     58.253509     58.253509    116.507017
     -4.819820     59.619762     59.619762    119.239525
     -4.809810     58.819570     58.819570    117.639139
     -4.799800     56.302595     56.302595    112.605189
     -4.789790     52.678708     52.678708    105.357417
     -4.779780     48.506952     48.506952     97.013905
     -4.769770     44.184508     44.184508     88.369015
     -4.759760     39.946761     39.946761     79.893522
     -4.749750     35.929639     35.929639     71.859277
     -4.739740     32.229973     32.229973     64.459945
     -4.729730     28.925616     28.925616     57.851232
     -4.719720     26.056371     26.056371     52.112741
     -4.709710     23.593511     23.593511     47.187023
     -4.699700     21.430970     21.430970     42.861940
     -4.689690     19.419502     19.419502     38.839005
     -4.679680     17.443551     17.443551     34.887102
     -4.669670     15.516379     15.516379     31.032759
     -4.659660     13.852252     13.852252     27.704503
     -4.649650     12.874515     12.874515     25.749030
     -4.639640     13.137150     13.137150     26.274300
     -4.629630     15.166761     15.166761     30.333522
     -4.619620     19.261968     19.261968     38.523936
     -4.609610     25.311550     25.311550     50.623099
     -4.599600     32.705487     32.705487     65.410973
     -4.589590     40.402158     40.402158     80.804316
     -4.579580     47.168589     47.168589     94.337178
     -4.569570     51.935392     51.935392    103.870783
     -4.559560     54.138693     54.138693    108.277386
     -4.549550     53.903810     53.903810    107.807619
     -4.539540     51.981786     51.981786    103.963572
     -4.529530     49.456971     49.456971     98.913943
     -4.519520     47.345437     47.345437     94.690873
     -4.509510     46.247973     46.247973     92.495946
     -4.499499     46.189468     46.189468     92.378936
     -4.489489     46.689824     46.689824     93.379647
     -4.479479     47.013773     47.013773     94.027546
     -4.469469     46.480967     46.480967     92.961933
     -4.459459     44.708364     44.708364     89.416728
     -4.449449     41.702875     41.702875     83.405749
     -4.439439     37.798052     37.798052     75.596105
     -4.429429     33.496928     33.496928     66.993856
     -4.419419     29.311320     29.311320     58.622640
     -4.409409     25.665261     25.665261     51.330522
     -4.399399     22.874286     22.874286     45.748571
     -4.389389     21.161098     21.161098     42.322196
     -4.379379     20.655596     20.655596     41.311192
     -4.369369     21.359193     21.359193     42.718386
     -4.359359     23.101702     23.101702     46.203405
     -4.349349     25.543388     25.543388     51.086776
     -4.339339     28.254123     28.254123     56.508245
     -4.329329     30.850873     30.850873     61.701746
     -4.319319     33.130957     33.130957     66.261914
     -4.309309     35.131763     35.131763     70.263526
     -4.299299     37.080252     37.080252     74.160504
     -4.289289     39.246375     39.246375     78.492751
     -4.279279     41.757885     41.757885     83.515771
     -4.269269     44.454724     44.454724     88.909448
     -4.259259     46.854483     46.854483     93.708967
     -4.249249     48.265503     48.265503     96.531006
     -4.239239     48.025400     48.025400     96.050800
     -4.229229     45.778847     45.778847     91.557693
     -4.219219     41.672724     41.672724     83.345448
     -4.209209     36.369178     36.369178     72.738356
     -4.199199     30.856482     30.856482     61.712965
     -4.189189     26.134371     26.134371     52.268742
     -4.179179     22.909597     22.909597     45.819195
     -4.169169     21.426578     21.426578     42.853156
     -4.159159     21.487766     21.487766     42.975531
     -4.149149     22.630649     22.630649     45.261298
     -4.139139     24.366023     24.366023     48.732047
     -4.129129     26.367096     26.367096     52.734192
     -4.119119     28.529629     28.529629     57.059259
     -4.109109     30.884804     30.884804     61.769607
     -4.099099     33.417570     33.417570     66.835140
     -4.089089     35.896499     35.896499     71.792999
     -4.079079     37.826739     37.826739     75.653479
     -4.069069     38.580612     38.580612     77.161224
     -4.059059     37.661084     37.661084     75.322168
     -4.049049     34.967795     34.967795     69.935590
     -4.039039     30.921482     30.921482     61.842963
     -4.029029     26.375172     26.375172     52.750344
     -4.019019     22.354598     22.354598     44.709196
     -4.009009     19.753279     19.753279     39.506559
     -3.998999     19.112924     19.112924     38.225848
     -3.988989     20.556155     20.556155     41.112310
     -3.978979     23.855801     23.855801     47.711603
     -3.968969     28.573280     28.573280     57.146560
     -3.958959     34.197022     34.197022     68.394043
     -3.948949     40.244475     40.244475     80.488950
     -3.938939     46.325279     46.325279     92.650557
     -3.928929     52.174533     52.174533    104.349066
     -3.918919     57.654183     57.654183    115.308367
     -3.908909     62.709188     62.709188    125.418376
     -3.898899     67.275464     67.275464    134.550927
     -3.888889     71.168867     71.168867    142.337734
     -3.878879     74.014237     74.014237    148.028473
     -3.868869     75.271790     75.271790    150.543580
     -3.858859     74.377112     74.377112    148.754224
     -3.848849     70.951775     70.951775    141.903551
     -3.838839     64.999243     64.999243    129.998486
     -3.828829     56.999576     56.999576    113.999152
     -3.818819     47.856264     47.856264     95.712529
     -3.808809     38.707425     38.707425     77.414850
     -3.798799     30.663446     30.663446     61.326893
     -3.788789     24.554502     24.554502     49.109004
     -3.778779     20.760803     20.760803     41.521607
     -3.768769     19.166310     19.166310     38.332621
     -3.758759     19.238282     19.238282     38.476563
     -3.748749     20.203159     20.203159     40.406318
     -3.738739     21.269832     21.269832     42.539663
     -3.728729     21.844808     21.844808     43.689615
     -3.718719     21.688022     21.688022     43.376044
     -3.708709     20.970584     20.970584     41.941167
     -3.698699     20.215390     20.215390     40.430780
     -3.688689     20.127770     20.127770     40.255539
     -3.678679     21.354463     21.354463     42.708927
     -3.668669     24.238969     24.238969     48.477938
     -3.658659     28.656578     28.656578     57.313156
     -3.648649     33.998296     33.998296     67.996592
     -3.638639     39.323527     39.323527     78.647054
     -3.628629     43.632087     43.632087     87.264174
     -3.618619     46.151463     46.151463     92.302926
     -3.608609     46.529489     46.529489     93.058978
     -3.598599     44.872377     44.872377     89.744754
     -3.588589     41.642815     41.642815     83.285629
     -3.578579     37.486137     37.486137     74.972275
     -3.568569     33.058110     33.058110     66.116219
     -3.558559     28.897676     28.897676     57.795352
     -3.548549     25.355585     25.355585     50.711170
     -3.538539     22.576442     22.576442     45.152884
     -3.528529     20.530902     20.530902     41.061805
     -3.518519     19.087611     19.087611     38.175222
     -3.508509     18.097031     18.097031     36.194063
     -3.498498     17.448896     17.448896     34.897791
     -3.488488     17.079722     17.079722     34.159445
     -3.478478     16.941294     16.941294     33.882587
     -3.468468     16.967068     16.967068     33.934135
     -3.458458     17.067523     17.067523     34.135046
     -3.448448     17.153408     17.153408     34.306816
     -3.438438     17.159200     17.159200     34.318401
     -3.428428     17.043649     17.043649     34.087299
     -3.418418     16.774332     16.774332     33.548663
     -3.408408     16.326681     16.326681     32.653361
     -3.398398     15.718903     15.718903     31.437805
     -3.388388     15.068666     15.068666     30.137333
     -3.378378     14.628017     14.628017     29.256033
     -3.368368     14.757359     14.757359     29.514717
     -3.358358     15.834868     15.834868     31.669735
     -3.348348     18.135175     18.135175     36.270349
     -3.338338     21.723422     21.723422     43.446844
     -3.328328     26.395943     26.395943     52.791885
     -3.318318     31.677668     31.677668     63.355336
     -3.308308     36.877559     36.877559     73.755117
     -3.298298     41.203240     41.203240     82.406481
     -3.288288     43.925692     43.925692     87.851384
     -3.278278     44.556443     44.556443     89.112886
     -3.268268     42.973396     42.973396     85.946792
     -3.258258     39.438340     39.438340     78.876680
     -3.248248     34.497229     34.497229     68.994459
     -3.238238     28.813077     28.813077     57.626154
     -3.228228     23.007672     23.007672     46.015343
     -3.218218     17.566310     17.566310     35.132620
     -3.208208     12.813189     12.813189     25.626378
     -3.198198      8.931842      8.931842     17.863684
     -3.188188      6.002199      6.002199     12.004399
     -3.178178      4.041322      4.041322      8.082644
     -3.168168      3.046109      3.046109      6.092218
     -3.158158      3.033059      3.033059      6.066118
     -3.148148      4.059450      4.059450      8.118899
     -3.138138      6.206077      6.206077     12.412154
     -3.128128      9.512783      9.512783     19.025565
     -3.118118     13.882712     13.882712     27.765423
     -3.108108     18.997822     18.997822     37.995644
     -3.098098     24.299565     24.299565     48.599130
     -3.088088     29.070995     29.070995     58.141990
     -3.078078     32.610511     32.610511     65.221021
     -3.068068     34.434007     34.434007     68.868014
     -3.058058     34.414624     34.414624     68.829248
     -3.048048     32.791450     32.791450     65.582900
     -3.038038     30.044250     30.044250     60.088499
     -3.028028     26.702708     26.702708     53.405416
     -3.018018     23.190156     23.190156     46.380313
     -3.008008     19.772750     19.772750     39.545499
     -2.997998     16.616597     16.616597     33.233194
     -2.987988     13.893844     13.893844     27.787688
     -2.977978     11.861020     11.861020     23.722041
     -2.967968     10.861281     10.861281     21.722562
     -2.957958     11.249050     11.249050     22.498100
     -2.947948     13.270676     13.270676     26.541352
     -2.937938     16.946550     16.946550     33.893101
     -2.927928     21.995906     21.995906     43.991813
     -2.917918     27.835257     27.835257     55.670515
     -2.907908     33.666214     33.666214     67.332427
     -2.897898     38.643752     38.643752     77.287504
     -2.887888     42.083342     42.083342     84.166683
     -2.877878     43.638266     43.638266     87.276533
     -2.867868     43.376137     43.376137     86.752274
     -2.857858     41.716305     41.716305     83.432610
     -2.847848     39.248468     39.248468     78.496937
     -2.837838     36.509278     36.509278     73.018555
     -2.827828     33.816121     33.816121     67.632242
     -2.817818     31.229056     31.229056     62.458112
     -2.807808     28.645262     28.645262     57.290523
     -2.797798     25.961575     25.961575     51.923149
     -2.787788     23.208787     23.208787     46.417575
     -2.777778     20.584435     20.584435     41.168870
     -2.767768     18.374350     18.374350     36.748701
     -2.757758     16.819212     16.819212     33.638425
     -2.747748     16.011642     16.011642     32.023285
     -2.737738     15.885024     15.885024     31.770048
     -2.727728     16.292632     16.292632     32.585265
     -2.717718     17.114907     17.114907     34.229814
     -2.707708     18.314616     18.314616     36.629232
     -2.697698     19.898837     19.898837     39.797674
     -2.687688     21.818214     21.818214     43.636428
     -2.677678     23.887115     23.887115     47.774231
     -2.667668     25.801165     25.801165     51.602329
     -2.657658     27.261344     27.261344     54.522687
     -2.647648     28.132881     28.132881     56.265761
     -2.637638     28.533014     28.533014     57.066027
     -2.627628     28.782730     28.782730     57.565459
     -2.617618     29.245642     29.245642     58.491284
     -2.607608     30.148200     30.148200     60.296399
     -2.597598     31.479347     31.479347     62.958693
     -2.587588     33.007235     33.007235     66.014471
     -2.577578     34.376516     34.376516     68.753032
     -2.567568     35.217264     35.217264     70.434527
     -2.557558     35.220839     35.220839     70.441678
     -2.547548     34.185971     34.185971     68.371941
     -2.537538     32.062877     32.062877     64.125753
     -2.527528     29.005377     29.005377     58.010754
     -2.517518     25.403594     25.403594     50.807189
     -2.507508     21.852635     21.852635     43.705270
     -2.497497     19.035148     19.035148     38.070297
     -2.487487     17.542851     17.542851     35.085701
     -2.477477     17.701107     17.701107     35.402214
     -2.467467     19.467856     19.467856     38.935711
     -2.457457     22.451699     22.451699     44.903398
     -2.447447     26.047794     26.047794     52.095587
     -2.437437     29.642779     29.642779     59.285559
     -2.427427     32.808699     32.808699     65.617398
     -2.417417     35.404760     35.404760     70.809520
     -2.407407     37.540389     37.540389     75.080778
     -2.397397     39.414059     39.414059     78.828118
     -2.387387     41.104882     41.104882     82.209765
     -2.377377     42.426234     42.426234     84.852468
     -2.367367     42.929927     42.929927     85.859854
     -2.357357     42.077491     42.077491     84.154983
     -2.347347     39.504904     39.504904     79.009807
     -2.337337     35.249970     35.249970     70.499940
     -2.327327     29.825776     29.825776     59.651551
     -2.317317     24.103957     24.103957     48.207913
     -2.307307     19.068299     19.068299     38.136598
     -2.297297     15.552894     15.552894     31.105789
     -2.287287     14.064344     14.064344     28.128688
     -2.277277     14.726833     14.726833     29.453667
     -2.267267     17.328319     17.328319     34.656639
     -2.257257     21.417732     21.417732     42.835464
     -2.247247     26.408549     26.408549     52.817098
     -2.237237     31.665120     31.665120     63.330240
     -2.227227     36.567126     36.567126     73.134252
     -2.217217     40.558259     40.558259     81.116519
     -2.207207     43.189363     43.189363     86.378726
     -2.197197     44.165830     44.165830     88.331661
     -2.187187     43.402233     43.402233     86.804466
     -2.177177     41.072029     41.072029     82.144057
     -2.167167     37.621979     37.621979     75.243958
     -2.157157     33.714165     33.714165     67.428329
     -2.147147     30.078404     30.078404     60.156808
     -2.137137     27.303721     27.303721     54.607442
     -2.127127     25.645070     25.645070     51.290140
     -2.117117     24.935891     24.935891     49.871783
     -2.107107     24.659459     24.659459     49.318918
     -2.097097     24.157766     24.157766     48.315531
     -2.087087     22.888089     22.888089     45.776178
     -2.077077     20.615231     20.615231     41.230463
     -2.067067     17.464012     17.464012     34.928023
     -2.057057     13.828399     13.828399     27.656798
     -2.047047     10.198546     10.198546     20.397092
     -2.037037      6.991546      6.991546     13.983092
     -2.027027      4.450519      4.450519      8.901037
     -2.017017      2.630598      2.630598      5.261195
     -2.007007      1.449274      1.449274      2.898548
     -1.996997      0.761196      0.761196      1.522392
     -1.986987      0.424220      0.424220      0.848441
     -1.976977      0.341487      0.341487      0.682974
     -1.966967      0.479699      0.479699      0.959399
     -1.956957      0.869687      0.869687      1.739373
     -1.946947      1.593107      1.593107      3.186214
     -1.936937      2.755057      2.755057      5.510114
     -1.926927      4.442495      4.442495      8.884990
     -1.916917      6.674878      6.674878     13.349756
     -1.906907      9.362516      9.362516     18.725033
     -1.896897     12.292300     12.292300     24.584599
     -1.886887     15.153882     15.153882     30.307764
     -1.876877     17.603725     17.603725     35.207450
     -1.866867     19.348330     19.348330     38.696660
     -1.856857     20.220423     20.220423     40.440847
     -1.846847     20.224488     20.224488     40.448975
     -1.836837     19.536112     19.536112     39.072224
     -1.826827     18.449698     18.449698     36.899397
     -1.816817     17.283058     17.283058     34.566115
     -1.806807     16.266795     16.266795     32.533589
     -1.796797     15.462769     15.462769     30.925539
     -1.786787     14.753323     14.753323     29.506647
     -1.776777     13.913083     13.913083     27.826165
     -1.766767     12.731053     12.731053     25.462106
     -1.756757     11.121319     11.121319     22.242638
     -1.746747      9.168051      9.168051     18.336103
     -1.736737      7.090529      7.090529     14.181058
     -1.726727      5.158635      5.158635     10.317271
     -1.716717      3.609588      3.609588      7.219175
     -1.706707      2.603330      2.603330      5.206660
     -1.696697      2.221544      2.221544      4.443088
     -1.686687      2.487393      2.487393      4.974787
     -1.676677      3.376211      3.376211      6.752421
     -1.666667      4.802229      4.802229      9.604458
     -1.656657      6.591627      6.591627     13.183255
     -1.646647      8.471213      8.471213     16.942426
     -1.636637     10.101921     10.101921     20.203842
     -1.626627     11.164389     11.164389     22.328777
