# EIG2DOS: Utility for SIESTA to obtain the electronic density of states
#  E. Artacho, Apr 1999, A. Garcia, Apr 2012
#  Nick R. Papior, Feb 2017
# ------------------------------------------
# Eigenvalues calculated from a non-polarized calculation
# Eigenvalues read from siesta.EIG
# Kpoint weights read from siesta.KP
# Using smearing parameter:   0.0500
# Using 1000 points in the energy range
# Selected bands: 1 to: 2981
# Emin, Emax in file for selected band(s):    -27.3314372    218.4193560
# Nbands, Nspin, Nk   =   2981     1     1
# E_F                 =    -4.1831 eV --> (shifted to ZERO)
# Broadening          =     0.0500 eV
#
#        E            N(up)  (=)   N(down)         Ntot
     -5.000000     35.298538     35.298538     70.597076
     -4.989990     40.230194     40.230194     80.460388
     -4.979980     44.269267     44.269267     88.538534
     -4.969970     46.670268     46.670268     93.340537
     -4.959960     46.995005     46.995005     93.990011
     -4.949950     45.258859     45.258859     90.517719
     -4.939940     41.926647     41.926647     83.853294
     -4.929930     37.785652     37.785652     75.571304
     -4.919920     33.767819     33.767819     67.535638
     -4.909910     30.781954     30.781954     61.563908
     -4.899900     29.572107     29.572107     59.144214
     -4.889890     30.586473     30.586473     61.172946
     -4.879880     33.852644     33.852644     67.705289
     -4.869870     38.897879     38.897879     77.795757
     -4.859860     44.782275     44.782275     89.564550
     -4.849850     50.289690     50.289690    100.579380
     -4.839840     54.248238     54.248238    108.496475
     -4.829830     55.873721     55.873721    111.747441
     -4.819820     54.998888     54.998888    109.997775
     -4.809810     52.092374     52.092374    104.184747
     -4.799800     48.061660     48.061660     96.123319
     -4.789790     43.924805     43.924805     87.849610
     -4.779780     40.481677     40.481677     80.963353
     -4.769770     38.101868     38.101868     76.203736
     -4.759760     36.689012     36.689012     73.378024
     -4.749750     35.809847     35.809847     71.619694
     -4.739740     34.918332     34.918332     69.836663
     -4.729730     33.577492     33.577492     67.154984
     -4.719720     31.592853     31.592853     63.185706
     -4.709710     29.019131     29.019131     58.038262
     -4.699700     26.067405     26.067405     52.134810
     -4.689690     22.988824     22.988824     45.977648
     -4.679680     20.012410     20.012410     40.024820
     -4.669670     17.366778     17.366778     34.733557
     -4.659660     15.351004     15.351004     30.702009
     -4.649650     14.381317     14.381317     28.762634
     -4.639640     14.949982     14.949982     29.899964
     -4.629630     17.480708     17.480708     34.961416
     -4.619620     22.123790     22.123790     44.247580
     -4.609610     28.577982     28.577982     57.155964
     -4.599600     36.036650     36.036650     72.073301
     -4.589590     43.321988     43.321988     86.643976
     -4.579580     49.195485     49.195485     98.390970
     -4.569570     52.743094     52.743094    105.486188
     -4.559560     53.678394     53.678394    107.356788
     -4.549550     52.427131     52.427131    104.854261
     -4.539540     49.949939     49.949939     99.899877
     -4.529530     47.377797     47.377797     94.755595
     -4.519520     45.612913     45.612913     91.225825
     -4.509510     45.050177     45.050177     90.100354
     -4.499499     45.509979     45.509979     91.019958
     -4.489489     46.380895     46.380895     92.761789
     -4.479479     46.892645     46.892645     93.785290
     -4.469469     46.402748     46.402748     92.805495
     -4.459459     44.592246     44.592246     89.184493
     -4.449449     41.516920     41.516920     83.033839
     -4.439439     37.526835     37.526835     75.053671
     -4.429429     33.119007     33.119007     66.238014
     -4.419419     28.801234     28.801234     57.602468
     -4.409409     25.015721     25.015721     50.031443
     -4.399399     22.119789     22.119789     44.239577
     -4.389389     20.383265     20.383265     40.766529
     -4.379379     19.963693     19.963693     39.927386
     -4.369369     20.857114     20.857114     41.714227
     -4.359359     22.862091     22.862091     45.724182
     -4.349349     25.603504     25.603504     51.207009
     -4.339339     28.631202     28.631202     57.262403
     -4.329329     31.559647     31.559647     63.119293
     -4.319319     34.183729     34.183729     68.367458
     -4.309309     36.513613     36.513613     73.027226
     -4.299299     38.710659     38.710659     77.421318
     -4.289289     40.951904     40.951904     81.903808
     -4.279279     43.279978     43.279978     86.559956
     -4.269269     45.501462     45.501462     91.002923
     -4.259259     47.182881     47.182881     94.365763
     -4.249249     47.763309     47.763309     95.526617
     -4.239239     46.758235     46.758235     93.516470
     -4.229229     43.982100     43.982100     87.964201
     -4.219219     39.690901     39.690901     79.381803
     -4.209209     34.566209     34.566209     69.132418
     -4.199199     29.528798     29.528798     59.057597
     -4.189189     25.452209     25.452209     50.904417
     -4.179179     22.897343     22.897343     45.794686
     -4.169169     21.979305     21.979305     43.958609
     -4.159159     22.414022     22.414022     44.828044
     -4.149149     23.709877     23.709877     47.419755
     -4.139139     25.407708     25.407708     50.815416
     -4.129129     27.255548     27.255548     54.511096
     -4.119119     29.237217     29.237217     58.474434
     -4.109109     31.444665     31.444665     62.889329
     -4.099099     33.866254     33.866254     67.732508
     -4.089089     36.217925     36.217925     72.435850
     -4.079079     37.934621     37.934621     75.869242
     -4.069069     38.357232     38.357232     76.714464
     -4.059059     37.034663     37.034663     74.069327
     -4.049049     33.982628     33.982628     67.965256
     -4.039039     29.755607     29.755607     59.511213
     -4.029029     25.290554     25.290554     50.581107
     -4.019019     21.604217     21.604217     43.208435
     -4.009009     19.492512     19.492512     38.985023
     -3.998999     19.356808     19.356808     38.713616
     -3.988989     21.196758     21.196758     42.393516
     -3.978979     24.723455     24.723455     49.446910
     -3.968969     29.508593     29.508593     59.017187
     -3.958959     35.103116     35.103116     70.206232
     -3.948949     41.104813     41.104813     82.209626
     -3.938939     47.189682     47.189682     94.379365
     -3.928929     53.124935     53.124935    106.249870
     -3.918919     58.761443     58.761443    117.522885
     -3.908909     63.989556     63.989556    127.979111
     -3.898899     68.656335     68.656335    137.312670
     -3.888889     72.477316     72.477316    144.954633
     -3.878879     75.001018     75.001018    150.002037
     -3.868869     75.672417     75.672417    151.344833
     -3.858859     73.993633     73.993633    147.987265
     -3.848849     69.725086     69.725086    139.450172
     -3.838839     63.042239     63.042239    126.084478
     -3.828829     54.577094     54.577094    109.154189
     -3.818819     45.319645     45.319645     90.639291
     -3.808809     36.407821     36.407821     72.815642
     -3.798799     28.871979     28.871979     57.743959
     -3.788789     23.410315     23.410315     46.820630
     -3.778779     20.256258     20.256258     40.512516
     -3.768769     19.167887     19.167887     38.335773
     -3.758759     19.534588     19.534588     39.069177
     -3.748749     20.567385     20.567385     41.134770
     -3.738739     21.521959     21.521959     43.043918
     -3.728729     21.898814     21.898814     43.797627
     -3.718719     21.571732     21.571732     43.143464
     -3.708709     20.811334     20.811334     41.622668
     -3.698699     20.193195     20.193195     40.386390
     -3.688689     20.408128     20.408128     40.816257
     -3.678679     22.022321     22.022321     44.044642
     -3.668669     25.258735     25.258735     50.517470
     -3.658659     29.875961     29.875961     59.751921
     -3.648649     35.196119     35.196119     70.392239
     -3.638639     40.281184     40.281184     80.562367
     -3.628629     44.196862     44.196862     88.393723
     -3.618619     46.265934     46.265934     92.531868
     -3.608609     46.221444     46.221444     92.442888
     -3.598599     44.220620     44.220620     88.441241
     -3.588589     40.741769     40.741769     81.483538
     -3.578579     36.422897     36.422897     72.845794
     -3.568569     31.899165     31.899165     63.798330
     -3.558559     27.673010     27.673010     55.346020
     -3.548549     24.032263     24.032263     48.064526
     -3.538539     21.027693     21.027693     42.055386
     -3.528529     18.519488     18.519488     37.038976
     -3.518519     16.285989     16.285989     32.571979
     -3.508509     14.159653     14.159653     28.319306
     -3.498498     12.135543     12.135543     24.271086
     -3.488488     10.405203     10.405203     20.810405
     -3.478478      9.301022      9.301022     18.602044
     -3.468468      9.172634      9.172634     18.345267
     -3.458458     10.238905     10.238905     20.477810
     -3.448448     12.464198     12.464198     24.928396
     -3.438438     15.503320     15.503320     31.006639
     -3.428428     18.748214     18.748214     37.496428
     -3.418418     21.483501     21.483501     42.967001
     -3.408408     23.114481     23.114481     46.228962
     -3.398398     23.386819     23.386819     46.773639
     -3.388388     22.503023     22.503023     45.006046
     -3.378378     21.076806     21.076806     42.153612
     -3.368368     19.938319     19.938319     39.876639
     -3.358358     19.868754     19.868754     39.737507
     -3.348348     21.363486     21.363486     42.726972
     -3.338338     24.493752     24.493752     48.987505
     -3.328328     28.887097     28.887097     57.774194
     -3.318318     33.811873     33.811873     67.623745
     -3.308308     38.341729     38.341729     76.683459
     -3.298298     41.574265     41.574265     83.148531
     -3.288288     42.861740     42.861740     85.723480
     -3.278278     41.984799     41.984799     83.969599
     -3.268268     39.194479     39.194479     78.388957
     -3.258258     35.091154     35.091154     70.182307
     -3.248248     30.389048     30.389048     60.778096
     -3.238238     25.678608     25.678608     51.357216
     -3.228228     21.296411     21.296411     42.592821
     -3.218218     17.342062     17.342062     34.684124
     -3.208208     13.795016     13.795016     27.590032
     -3.198198     10.641548     10.641548     21.283095
     -3.188188      7.943885      7.943885     15.887771
     -3.178178      5.840324      5.840324     11.680648
     -3.168168      4.509217      4.509217      9.018434
     -3.158158      4.134247      4.134247      8.268495
     -3.148148      4.882211      4.882211      9.764421
     -3.138138      6.876889      6.876889     13.753778
     -3.128128     10.147896     10.147896     20.295793
     -3.118118     14.555621     14.555621     29.111243
     -3.108108     19.726238     19.726238     39.452475
     -3.098098     25.048880     25.048880     50.097760
     -3.088088     29.771464     29.771464     59.542929
     -3.078078     33.183528     33.183528     66.367056
     -3.068068     34.819051     34.819051     69.638103
     -3.058058     34.586517     34.586517     69.173034
     -3.048048     32.761181     32.761181     65.522362
     -3.038038     29.845316     29.845316     59.690631
     -3.028028     26.373283     26.373283     52.746567
     -3.018018     22.763122     22.763122     45.526243
     -3.008008     19.278998     19.278998     38.557996
     -2.997998     16.096950     16.096950     32.193901
     -2.987988     13.408884     13.408884     26.817767
     -2.977978     11.490031     11.490031     22.980063
     -2.967968     10.688789     10.688789     21.377578
     -2.957958     11.344217     11.344217     22.688433
     -2.947948     13.667153     13.667153     27.334306
     -2.937938     17.628707     17.628707     35.257415
     -2.927928     22.894552     22.894552     45.789105
     -2.917918     28.834091     28.834091     57.668182
     -2.907908     34.619089     34.619089     69.238177
     -2.897898     39.401092     39.401092     78.802184
     -2.887888     42.523146     42.523146     85.046292
     -2.877878     43.693999     43.693999     87.387999
     -2.867868     43.052467     43.052467     86.104935
     -2.857858     41.086098     41.086098     82.172196
     -2.847848     38.430867     38.430867     76.861734
     -2.837838     35.636733     35.636733     71.273466
     -2.827828     33.003346     33.003346     66.006691
     -2.817818     30.555439     30.555439     61.110879
     -2.807808     28.154466     28.154466     56.308932
     -2.797798     25.672418     25.672418     51.344837
     -2.787788     23.126370     23.126370     46.252740
     -2.777778     20.703232     20.703232     41.406464
     -2.767768     18.673704     18.673704     37.347409
     -2.757758     17.259891     17.259891     34.519783
     -2.747748     16.543150     16.543150     33.086299
     -2.737738     16.465154     16.465154     32.930309
     -2.727728     16.908464     16.908464     33.816928
     -2.717718     17.787854     17.787854     35.575709
     -2.707708     19.078952     19.078952     38.157904
     -2.697698     20.761408     20.761408     41.522815
     -2.687688     22.724745     22.724745     45.449490
     -2.677678     24.722687     24.722687     49.445375
     -2.667668     26.433746     26.433746     52.867493
     -2.657658     27.608220     27.608220     55.216441
     -2.647648     28.210954     28.210954     56.421907
     -2.637638     28.460436     28.460436     56.920872
     -2.627628     28.728255     28.728255     57.456510
     -2.617618     29.353478     29.353478     58.706956
     -2.607608     30.478378     30.478378     60.956756
     -2.597598     31.989809     31.989809     63.979618
     -2.587588     33.576748     33.576748     67.153495
     -2.577578     34.847745     34.847745     69.695491
     -2.567568     35.438630     35.438630     70.877259
     -2.557558     35.078703     35.078703     70.157406
     -2.547548     33.630235     33.630235     67.260469
     -2.537538     31.128737     31.128737     62.257473
     -2.527528     27.824805     27.824805     55.649610
     -2.517518     24.193729     24.193729     48.387458
     -2.507508     20.873248     20.873248     41.746497
     -2.497497     18.521753     18.521753     37.043507
     -2.487487     17.636249     17.636249     35.272498
     -2.477477     18.399415     18.399415     36.798829
     -2.467467     20.620654     20.620654     41.241307
     -2.457457     23.801075     23.801075     47.602151
     -2.447447     27.303606     27.303606     54.607212
     -2.437437     30.566058     30.566058     61.132116
     -2.427427     33.273430     33.273430     66.546861
     -2.417417     35.416574     35.416574     70.833147
     -2.407407     37.207776     37.207776     74.415552
     -2.397397     38.886376     38.886376     77.772752
     -2.387387     40.503921     40.503921     81.007842
     -2.377377     41.799934     41.799934     83.599869
     -2.367367     42.246949     42.246949     84.493898
     -2.357357     41.262810     41.262810     82.525620
     -2.347347     38.496891     38.496891     76.993782
     -2.337337     34.048937     34.048937     68.097874
     -2.327327     28.509770     28.509770     57.019539
     -2.317317     22.807051     22.807051     45.614103
     -2.307307     17.937227     17.937227     35.874453
     -2.297297     14.706523     14.706523     29.413046
     -2.287287     13.573246     13.573246     27.146493
     -2.277277     14.614503     14.614503     29.229007
     -2.267267     17.583191     17.583191     35.166382
     -2.257257     22.003029     22.003029     44.006058
     -2.247247     27.263779     27.263779     54.527559
     -2.237237     32.702126     32.702126     65.404251
     -2.227227     37.668900     37.668900     75.337800
     -2.217217     41.588106     41.588106     83.176212
     -2.207207     44.013135     44.013135     88.026269
     -2.197197     44.683825     44.683825     89.367649
     -2.187187     43.581858     43.581858     87.163717
     -2.177177     40.968603     40.968603     81.937206
     -2.167167     37.374656     37.374656     74.749313
     -2.157157     33.509607     33.509607     67.019214
     -2.147147     30.087305     30.087305     60.174609
     -2.137137     27.610710     27.610710     55.221420
     -2.127127     26.202124     26.202124     52.404248
     -2.117117     25.564850     25.564850     51.129699
     -2.107107     25.109348     25.109348     50.218695
     -2.097097     24.196199     24.196199     48.392398
     -2.087087     22.387704     22.387704     44.775407
     -2.077077     19.597438     19.597438     39.194876
     -2.067067     16.083453     16.083453     32.166907
     -2.057057     12.310373     12.310373     24.620746
     -2.047047      8.761679      8.761679     17.523358
     -2.037037      5.789121      5.789121     11.578242
     -2.027027      3.548429      3.548429      7.096858
     -2.017017      2.019647      2.019647      4.039294
     -2.007007      1.076262      1.076262      2.152524
     -1.996997      0.561546      0.561546      1.123091
     -1.986987      0.345454      0.345454      0.690908
     -1.976977      0.354960      0.354960      0.709921
     -1.966967      0.582732      0.582732      1.165465
     -1.956957      1.080678      1.080678      2.161357
     -1.946947      1.940636      1.940636      3.881273
     -1.936937      3.261386      3.261386      6.522773
     -1.926927      5.104090      5.104090     10.208180
     -1.916917      7.446599      7.446599     14.893199
     -1.906907     10.154668     10.154668     20.309336
     -1.896897     12.987082     12.987082     25.974163
     -1.886887     15.639382     15.639382     31.278764
     -1.876877     17.813480     17.813480     35.626961
     -1.866867     19.289303     19.289303     38.578606
     -1.856857     19.975926     19.975926     39.951853
     -1.846847     19.929219     19.929219     39.858438
     -1.836837     19.331802     19.331802     38.663603
     -1.826827     18.436599     18.436599     36.873198
     -1.816817     17.483522     17.483522     34.967043
     -1.806807     16.613862     16.613862     33.227724
     -1.796797     15.819858     15.819858     31.639716
     -1.786787     14.960677     14.960677     29.921354
     -1.776777     13.844890     13.844890     27.689780
     -1.766767     12.340236     12.340236     24.680472
     -1.756757     10.453043     10.453043     20.906086
     -1.746747      8.337816      8.337816     16.675632
     -1.736737      6.239980      6.239980     12.479959
     -1.726727      4.411303      4.411303      8.822606
     -1.716717      3.044700      3.044700      6.089400
     -1.706707      2.252865      2.252865      4.505729
     -1.696697      2.082931      2.082931      4.165862
     -1.686687      2.538916      2.538916      5.077832
     -1.676677      3.585349      3.585349      7.170698
     -1.666667      5.125165      5.125165     10.250330
     -1.656657      6.969516      6.969516     13.939032
     -1.646647      8.831587      8.831587     17.663173
     -1.636637     10.370465     10.370465     20.740929
     -1.626627     11.285303     11.285303     22.570606
