# EIG2DOS: Utility for SIESTA to obtain the electronic density of states
#  E. Artacho, Apr 1999, A. Garcia, Apr 2012
#  Nick R. Papior, Feb 2017
# ------------------------------------------
# Eigenvalues calculated from a non-polarized calculation
# Eigenvalues read from siesta.EIG
# Kpoint weights read from siesta.KP
# Using smearing parameter:   0.0500
# Using 1000 points in the energy range
# Selected bands: 1 to: 2981
# Emin, Emax in file for selected band(s):    -27.4243141    218.4025110
# Nbands, Nspin, Nk   =   2981     1     1
# E_F                 =    -4.2032 eV --> (shifted to ZERO)
# Broadening          =     0.0500 eV
#
#        E            N(up)  (=)   N(down)         Ntot
     -5.000000     30.320109     30.320109     60.640219
     -4.989990     35.260041     35.260041     70.520083
     -4.979980     40.158699     40.158699     80.317399
     -4.969970     44.215916     44.215916     88.431832
     -4.959960     46.672240     46.672240     93.344480
     -4.949950     47.057771     47.057771     94.115542
     -4.939940     45.358545     45.358545     90.717089
     -4.929930     42.042325     42.042325     84.084650
     -4.919920     37.952010     37.952010     75.904019
     -4.909910     34.122243     34.122243     68.244486
     -4.899900     31.578083     31.578083     63.156167
     -4.889890     31.145769     31.145769     62.291538
     -4.879880     33.281951     33.281951     66.563903
     -4.869870     37.935631     37.935631     75.871262
     -4.859860     44.486242     44.486242     88.972485
     -4.849850     51.814369     51.814369    103.628739
     -4.839840     58.529471     58.529471    117.058942
     -4.829830     63.309986     63.309986    126.619972
     -4.819820     65.246800     65.246800    130.493600
     -4.809810     64.064953     64.064953    128.129906
     -4.799800     60.144740     60.144740    120.289480
     -4.789790     54.347655     54.347655    108.695310
     -4.779780     47.729335     47.729335     95.458669
     -4.769770     41.253210     41.253210     82.506420
     -4.759760     35.596227     35.596227     71.192453
     -4.749750     31.082655     31.082655     62.165310
     -4.739740     27.726665     27.726665     55.453330
     -4.729730     25.333185     25.333185     50.666370
     -4.719720     23.605362     23.605362     47.210724
     -4.709710     22.227032     22.227032     44.454063
     -4.699700     20.915629     20.915629     41.831258
     -4.689690     19.460690     19.460690     38.921381
     -4.679680     17.765525     17.765525     35.531049
     -4.669670     15.894515     15.894515     31.789029
     -4.659660     14.107407     14.107407     28.214815
     -4.649650     12.851144     12.851144     25.702289
     -4.639640     12.687725     12.687725     25.375450
     -4.629630     14.158669     14.158669     28.317337
     -4.619620     17.611968     17.611968     35.223935
     -4.609610     23.038339     23.038339     46.076678
     -4.599600     29.975751     29.975751     59.951503
     -4.589590     37.537351     37.537351     75.074702
     -4.579580     44.588281     44.588281     89.176561
     -4.569570     50.041228     50.041228    100.082456
     -4.559560     53.179225     53.179225    106.358450
     -4.549550     53.882008     53.882008    107.764016
     -4.539540     52.655435     52.655435    105.310871
     -4.529530     50.438911     50.438911    100.877822
     -4.519520     48.259590     48.259590     96.519180
     -4.509510     46.868952     46.868952     93.737904
     -4.499499     46.504652     46.504652     93.009305
     -4.489489     46.864906     46.864906     93.729813
     -4.479479     47.290039     47.290039     94.580077
     -4.469469     47.059549     47.059549     94.119098
     -4.459459     45.672847     45.672847     91.345694
     -4.449449     43.004334     43.004334     86.008668
     -4.439439     39.293747     39.293747     78.587495
     -4.429429     35.012232     35.012232     70.024463
     -4.419419     30.692254     30.692254     61.384507
     -4.409409     26.803332     26.803332     53.606663
     -4.399399     23.705441     23.705441     47.410881
     -4.389389     21.654083     21.654083     43.308166
     -4.379379     20.804920     20.804920     41.609839
     -4.369369     21.186725     21.186725     42.373449
     -4.359359     22.658627     22.658627     45.317254
     -4.349349     24.900607     24.900607     49.801213
     -4.339339     27.477070     27.477070     54.954140
     -4.329329     29.968133     29.968133     59.936267
     -4.319319     32.115320     32.115320     64.230640
     -4.309309     33.910675     33.910675     67.821350
     -4.299299     35.580066     35.580066     71.160133
     -4.289289     37.457193     37.457193     74.914386
     -4.279279     39.791399     39.791399     79.582799
     -4.269269     42.563705     42.563705     85.127410
     -4.259259     45.393475     45.393475     90.786950
     -4.249249     47.596242     47.596242     95.192484
     -4.239239     48.398215     48.398215     96.796429
     -4.229229     47.238186     47.238186     94.476372
     -4.219219     44.029080     44.029080     88.058161
     -4.209209     39.250870     39.250870     78.501741
     -4.199199     33.818056     33.818056     67.636111
     -4.189189     28.774681     28.774681     57.549363
     -4.179179     24.954656     24.954656     49.909312
     -4.169169     22.755412     22.755412     45.510824
     -4.159159     22.107301     22.107301     44.214601
     -4.149149     22.622818     22.622818     45.245635
     -4.139139     23.833107     23.833107     47.666214
     -4.129129     25.395545     25.395545     50.791090
     -4.119119     27.184309     27.184309     54.368619
     -4.109109     29.235185     29.235185     58.470369
     -4.099099     31.582791     31.582791     63.165583
     -4.089089     34.081287     34.081287     68.162575
     -4.079079     36.316135     36.316135     72.632270
     -4.069069     37.678195     37.678195     75.356390
     -4.059059     37.588489     37.588489     75.176979
     -4.049049     35.772330     35.772330     71.544660
     -4.039039     32.441193     32.441193     64.882387
     -4.029029     28.281800     28.281800     56.563601
     -4.019019     24.253058     24.253058     48.506116
     -4.009009     21.289741     21.289741     42.579482
     -3.998999     20.047732     20.047732     40.095464
     -3.988989     20.785076     20.785076     41.570152
     -3.978979     23.391463     23.391463     46.782925
     -3.968969     27.510269     27.510269     55.020538
     -3.958959     32.677243     32.677243     65.354486
     -3.948949     38.425992     38.425992     76.851984
     -3.938939     44.351820     44.351820     88.703640
     -3.928929     50.148431     50.148431    100.296861
     -3.918919     55.625112     55.625112    111.250223
     -3.908909     60.692305     60.692305    121.384610
     -3.898899     65.299262     65.299262    130.598524
     -3.888889     69.331758     69.331758    138.663517
     -3.878879     72.514956     72.514956    145.029913
     -3.868869     74.385095     74.385095    148.770190
     -3.858859     74.372864     74.372864    148.745728
     -3.848849     71.987878     71.987878    143.975756
     -3.838839     67.037211     67.037211    134.074422
     -3.828829     59.783880     59.783880    119.567760
     -3.818819     50.969271     50.969271    101.938542
     -3.808809     41.677892     41.677892     83.355783
     -3.798799     33.086514     33.086514     66.173028
     -3.788789     26.182715     26.182715     52.365430
     -3.778779     21.543224     21.543224     43.086447
     -3.768769     19.233740     19.233740     38.467479
     -3.758759     18.847211     18.847211     37.694422
     -3.748749     19.657037     19.657037     39.314074
     -3.738739     20.836687     20.836687     41.673374
     -3.728729     21.688643     21.688643     43.377286
     -3.718719     21.828815     21.828815     43.657629
     -3.708709     21.283275     21.283275     42.566550
     -3.698699     20.470871     20.470871     40.941742
     -3.688689     20.068443     20.068443     40.136886
     -3.678679     20.785214     20.785214     41.570429
     -3.668669     23.105192     23.105192     46.210384
     -3.658659     27.080000     27.080000     54.160000
     -3.648649     32.253036     32.253036     64.506073
     -3.638639     37.757618     37.757618     75.515236
     -3.628629     42.563749     42.563749     85.127499
     -3.618619     45.781106     45.781106     91.562212
     -3.608609     46.899617     46.899617     93.799235
     -3.598599     45.883336     45.883336     91.766672
     -3.588589     43.108032     43.108032     86.216064
     -3.578579     39.200229     39.200229     78.400458
     -3.568569     34.856775     34.856775     69.713550
     -3.558559     30.699507     30.699507     61.399013
     -3.548549     27.181332     27.181332     54.362665
     -3.538539     24.539048     24.539048     49.078097
     -3.528529     22.788250     22.788250     45.576500
     -3.518519     21.759454     21.759454     43.518908
     -3.508509     21.168448     21.168448     42.336896
     -3.498498     20.702662     20.702662     41.405325
     -3.488488     20.101812     20.101812     40.203623
     -3.478478     19.217806     19.217806     38.435611
     -3.468468     18.046068     18.046068     36.092136
     -3.458458     16.720493     16.720493     33.440986
     -3.448448     15.464079     15.464079     30.928158
     -3.438438     14.499827     14.499827     28.999653
     -3.428428     13.952114     13.952114     27.904229
     -3.418418     13.788372     13.788372     27.576745
     -3.408408     13.841687     13.841687     27.683374
     -3.398398     13.913816     13.913816     27.827631
     -3.388388     13.909173     13.909173     27.818346
     -3.378378     13.928052     13.928052     27.856105
     -3.368368     14.268827     14.268827     28.537654
     -3.358358     15.339315     15.339315     30.678630
     -3.348348     17.521366     17.521366     35.042732
     -3.338338     21.041957     21.041957     42.083914
     -3.328328     25.880694     25.880694     51.761387
     -3.318318     31.716507     31.716507     63.433015
     -3.308308     37.913975     37.913975     75.827949
     -3.298298     43.570907     43.570907     87.141813
     -3.288288     47.660907     47.660907     95.321814
     -3.278278     49.274627     49.274627     98.549254
     -3.268268     47.896854     47.896854     95.793709
     -3.258258     43.602395     43.602395     87.204790
     -3.248248     37.065258     37.065258     74.130517
     -3.238238     29.359904     29.359904     58.719808
     -3.228228     21.638713     21.638713     43.277426
     -3.218218     14.826563     14.826563     29.653126
     -3.208208      9.448786      9.448786     18.897572
     -3.198198      5.628461      5.628461     11.256922
     -3.188188      3.209464      3.209464      6.418929
     -3.178178      1.925131      1.925131      3.850263
     -3.168168      1.542826      1.542826      3.085652
     -3.158158      1.947898      1.947898      3.895797
     -3.148148      3.159787      3.159787      6.319573
     -3.138138      5.287852      5.287852     10.575704
     -3.128128      8.440940      8.440940     16.881880
     -3.118118     12.613558     12.613558     25.227115
     -3.108108     17.585687     17.585687     35.171375
     -3.098098     22.883049     22.883049     45.766098
     -3.088088     27.834702     27.834702     55.669405
     -3.078078     31.728386     31.728386     63.456773
     -3.068068     34.013325     34.013325     68.026650
     -3.058058     34.464720     34.464720     68.929439
     -3.048048     33.231821     33.231821     66.463642
     -3.038038     30.746351     30.746351     61.492703
     -3.028028     27.541361     27.541361     55.082722
     -3.018018     24.076675     24.076675     48.153351
     -3.008008     20.655489     20.655489     41.310978
     -2.997998     17.455867     17.455867     34.911733
     -2.987988     14.632505     14.632505     29.265010
     -2.977978     12.411329     12.411329     24.822659
     -2.967968     11.116031     11.116031     22.232063
     -2.957958     11.111031     11.111031     22.222062
     -2.947948     12.687033     12.687033     25.374066
     -2.937938     15.934941     15.934941     31.869881
     -2.927928     20.653718     20.653718     41.307435
     -2.917918     26.328203     26.328203     52.656405
     -2.907908     32.197632     32.197632     64.395264
     -2.897898     37.411310     37.411310     74.822621
     -2.887888     41.234746     41.234746     82.469491
     -2.877878     43.239783     43.239783     86.479566
     -2.867868     43.405058     43.405058     86.810116
     -2.857858     42.080740     42.080740     84.161480
     -2.847848     39.827223     39.827223     79.654447
     -2.837838     37.195442     37.195442     74.390884
     -2.827828     34.545397     34.545397     69.090794
     -2.817818     31.980761     31.980761     63.961523
     -2.807808     29.418181     29.418181     58.836363
     -2.797798     26.740934     26.740934     53.481868
     -2.787788     23.945761     23.945761     47.891522
     -2.777778     21.201634     21.201634     42.403268
     -2.767768     18.793836     18.793836     37.587673
     -2.757758     16.994319     16.994319     33.988638
     -2.747748     15.940606     15.940606     31.881211
     -2.737738     15.596426     15.596426     31.192853
     -2.727728     15.813086     15.813086     31.626172
     -2.717718     16.444460     16.444460     32.888921
     -2.707708     17.432992     17.432992     34.865984
     -2.697698     18.804539     18.804539     37.609078
     -2.687688     20.575634     20.575634     41.151267
     -2.677678     22.643886     22.643886     45.287771
     -2.667668     24.751812     24.751812     49.503625
     -2.657658     26.567840     26.567840     53.135680
     -2.647648     27.844871     27.844871     55.689743
     -2.637638     28.556200     28.556200     57.112400
     -2.627628     28.916847     28.916847     57.833694
     -2.617618     29.271848     29.271848     58.543697
     -2.607608     29.918660     29.918660     59.837320
     -2.597598     30.966872     30.966872     61.933744
     -2.587588     32.302569     32.302569     64.605137
     -2.577578     33.650402     33.650402     67.300803
     -2.567568     34.673208     34.673208     69.346415
     -2.557558     35.052281     35.052281     70.104562
     -2.547548     34.535984     34.535984     69.071968
     -2.537538     32.982421     32.982421     65.964841
     -2.527528     30.418294     30.418294     60.836588
     -2.517518     27.098302     27.098302     54.196603
     -2.507508     23.517133     23.517133     47.034266
     -2.497497     20.332827     20.332827     40.665655
     -2.487487     18.204665     18.204665     36.409329
     -2.477477     17.599697     17.599697     35.199394
     -2.467467     18.646346     18.646346     37.292692
     -2.457457     21.098631     21.098631     42.197261
     -2.447447     24.430200     24.430200     48.860401
     -2.437437     28.023623     28.023623     56.047245
     -2.427427     31.378655     31.378655     62.757310
     -2.417417     34.251257     34.251257     68.502514
     -2.407407     36.661891     36.661891     73.323782
     -2.397397     38.770195     38.770195     77.540389
     -2.387387     40.678703     40.678703     81.357406
     -2.377377     42.268419     42.268419     84.536838
     -2.367367     43.160008     43.160008     86.320016
     -2.357357     42.835577     42.835577     85.671154
     -2.347347     40.873411     40.873411     81.746822
     -2.337337     37.184790     37.184790     74.369579
     -2.327327     32.135414     32.135414     64.270827
     -2.317317     26.490795     26.490795     52.981590
     -2.307307     21.212541     21.212541     42.425082
     -2.297297     17.198822     17.198822     34.397643
     -2.287287     15.072296     15.072296     30.144591
     -2.277277     15.077110     15.077110     30.154219
     -2.267267     17.088277     17.088277     34.176554
     -2.257257     20.696849     20.696849     41.393697
     -2.247247     25.324841     25.324841     50.649682
     -2.237237     30.335059     30.335059     60.670117
     -2.227227     35.117312     35.117312     70.234625
     -2.217217     39.146142     39.146142     78.292284
     -2.207207     42.015786     42.015786     84.031572
     -2.197197     43.465819     43.465819     86.931639
     -2.187187     43.410944     43.410944     86.821888
     -2.177177     41.975235     41.975235     83.950470
     -2.167167     39.507839     39.507839     79.015677
     -2.157157     36.540905     36.540905     73.081809
     -2.147147     33.663443     33.663443     67.326886
     -2.137137     31.332200     31.332200     62.664400
     -2.127127     29.696665     29.696665     59.393329
     -2.117117     28.535272     28.535272     57.070545
     -2.107107     27.356040     27.356040     54.712079
     -2.097097     25.625932     25.625932     51.251865
     -2.087087     23.016716     23.016716     46.033431
     -2.077077     19.544677     19.544677     39.089354
     -2.067067     15.544973     15.544973     31.089946
     -2.057057     11.514056     11.514056     23.028112
     -2.047047      7.915129      7.915129     15.830257
     -2.037037      5.039903      5.039903     10.079806
     -2.027027      2.969527      2.969527      5.939053
     -2.017017      1.619489      1.619489      3.238977
     -2.007007      0.821931      0.821931      1.643863
     -1.996997      0.401480      0.401480      0.802959
     -1.986987      0.222841      0.222841      0.445682
     -1.976977      0.210357      0.210357      0.420713
     -1.966967      0.350244      0.350244      0.700488
     -1.956957      0.685107      0.685107      1.370213
     -1.946947      1.303169      1.303169      2.606338
     -1.936937      2.318349      2.318349      4.636697
     -1.926927      3.836515      3.836515      7.673030
     -1.916917      5.909612      5.909612     11.819224
     -1.906907      8.489729      8.489729     16.979458
     -1.896897     11.402844     11.402844     22.805688
     -1.886887     14.359926     14.359926     28.719853
     -1.876877     17.010019     17.010019     34.020039
     -1.866867     19.022399     19.022399     38.044799
     -1.856857     20.172557     20.172557     40.345114
     -1.846847     20.404675     20.404675     40.809350
     -1.836837     19.849417     19.849417     39.698833
     -1.826827     18.786308     18.786308     37.572616
     -1.816817     17.554691     17.554691     35.109382
     -1.806807     16.437376     16.437376     32.874753
     -1.796797     15.560441     15.560441     31.120881
     -1.786787     14.856253     14.856253     29.712506
     -1.776777     14.113146     14.113146     28.226291
     -1.766767     13.091439     13.091439     26.182877
     -1.756757     11.648195     11.648195     23.296391
     -1.746747      9.808702      9.808702     19.617403
     -1.736737      7.755531      7.755531     15.511062
     -1.726727      5.753531      5.753531     11.507062
     -1.716717      4.059501      4.059501      8.119002
     -1.706707      2.861950      2.861950      5.723900
     -1.696697      2.267176      2.267176      4.534352
     -1.686687      2.315933      2.315933      4.631866
     -1.676677      3.000247      3.000247      6.000494
     -1.666667      4.258483      4.258483      8.516966
     -1.656657      5.950296      5.950296     11.900592
     -1.646647      7.836072      7.836072     15.672144
     -1.636637      9.592760      9.592760     19.185520
     -1.626627     10.882902     10.882902     21.765805
