# EIG2DOS: Utility for SIESTA to obtain the electronic density of states
#  E. Artacho, Apr 1999, A. Garcia, Apr 2012
#  Nick R. Papior, Feb 2017
# ------------------------------------------
# Eigenvalues calculated from a non-polarized calculation
# Eigenvalues read from siesta.EIG
# Kpoint weights read from siesta.KP
# Using smearing parameter:   0.0500
# Using 1000 points in the energy range
# Selected bands: 1 to: 2981
# Emin, Emax in file for selected band(s):    -27.2294492    218.3659630
# Nbands, Nspin, Nk   =   2981     1     1
# E_F                 =    -4.2356 eV --> (shifted to ZERO)
# Broadening          =     0.0500 eV
#
#        E            N(up)  (=)   N(down)         Ntot
     -5.000000     36.414677     36.414677     72.829355
     -4.989990     39.925136     39.925136     79.850272
     -4.979980     42.489815     42.489815     84.979630
     -4.969970     43.738399     43.738399     87.476798
     -4.959960     43.500860     43.500860     87.001721
     -4.949950     41.861667     41.861667     83.723335
     -4.939940     39.150678     39.150678     78.301355
     -4.929930     35.890262     35.890262     71.780524
     -4.919920     32.727685     32.727685     65.455369
     -4.909910     30.365907     30.365907     60.731815
     -4.899900     29.479104     29.479104     58.958209
     -4.889890     30.587162     30.587162     61.174324
     -4.879880     33.886616     33.886616     67.773233
     -4.869870     39.087927     39.087927     78.175854
     -4.859860     45.353705     45.353705     90.707411
     -4.849850     51.423883     51.423883    102.847767
     -4.839840     55.936020     55.936020    111.872041
     -4.829830     57.838712     57.838712    115.677424
     -4.819820     56.724510     56.724510    113.449019
     -4.809810     52.931132     52.931132    105.862264
     -4.799800     47.370762     47.370762     94.741525
     -4.789790     41.180225     41.180225     82.360450
     -4.779780     35.358666     35.358666     70.717332
     -4.769770     30.536493     30.536493     61.072986
     -4.759760     26.928388     26.928388     53.856777
     -4.749750     24.429758     24.429758     48.859516
     -4.739740     22.770637     22.770637     45.541273
     -4.729730     21.650492     21.650492     43.300984
     -4.719720     20.815621     20.815621     41.631242
     -4.709710     20.079881     20.079881     40.159763
     -4.699700     19.315725     19.315725     38.631451
     -4.689690     18.451595     18.451595     36.903191
     -4.679680     17.500779     17.500779     35.001559
     -4.669670     16.617613     16.617613     33.235226
     -4.659660     16.143753     16.143753     32.287506
     -4.649650     16.592721     16.592721     33.185442
     -4.639640     18.539327     18.539327     37.078653
     -4.629630     22.425593     22.425593     44.851186
     -4.619620     28.343596     28.343596     56.687192
     -4.609610     35.883363     35.883363     71.766726
     -4.599600     44.125892     44.125892     88.251783
     -4.589590     51.816441     51.816441    103.632883
     -4.579580     57.684657     57.684657    115.369315
     -4.569570     60.811944     60.811944    121.623888
     -4.559560     60.914193     60.914193    121.828386
     -4.549550     58.430198     58.430198    116.860395
     -4.539540     54.377618     54.377618    108.755235
     -4.529530     50.027712     50.027712    100.055424
     -4.519520     46.516793     46.516793     93.033585
     -4.509510     44.529161     44.529161     89.058322
     -4.499499     44.150731     44.150731     88.301462
     -4.489489     44.923738     44.923738     89.847475
     -4.479479     46.060139     46.060139     92.120278
     -4.469469     46.722148     46.722148     93.444297
     -4.459459     46.269168     46.269168     92.538335
     -4.449449     44.400479     44.400479     88.800958
     -4.439439     41.175214     41.175214     82.350429
     -4.429429     36.939691     36.939691     73.879381
     -4.419419     32.215542     32.215542     64.431083
     -4.409409     27.593365     27.593365     55.186730
     -4.399399     23.647555     23.647555     47.295110
     -4.389389     20.862158     20.862158     41.724317
     -4.379379     19.554639     19.554639     39.109278
     -4.369369     19.805136     19.805136     39.610272
     -4.359359     21.423300     21.423300     42.846601
     -4.349349     23.987726     23.987726     47.975452
     -4.339339     26.964881     26.964881     53.929763
     -4.329329     29.871127     29.871127     59.742255
     -4.319319     32.412646     32.412646     64.825292
     -4.309309     34.544751     34.544751     69.089502
     -4.299299     36.429653     36.429653     72.859306
     -4.289289     38.315661     38.315661     76.631322
     -4.279279     40.387028     40.387028     80.774056
     -4.269269     42.636745     42.636745     85.273489
     -4.259259     44.805264     44.805264     89.610527
     -4.249249     46.415105     46.415105     92.830210
     -4.239239     46.909406     46.909406     93.818812
     -4.229229     45.863083     45.863083     91.726166
     -4.219219     43.188078     43.188078     86.376156
     -4.209209     39.232065     39.232065     78.464130
     -4.199199     34.703616     34.703616     69.407233
     -4.189189     30.440596     30.440596     60.881192
     -4.179179     27.124603     27.124603     54.249206
     -4.169169     25.076066     25.076066     50.152132
     -4.159159     24.220617     24.220617     48.441234
     -4.149149     24.226456     24.226456     48.452912
     -4.139139     24.728892     24.728892     49.457784
     -4.129129     25.523593     25.523593     51.047186
     -4.119119     26.633369     26.633369     53.266738
     -4.109109     28.217906     28.217906     56.435812
     -4.099099     30.374471     30.374471     60.748942
     -4.089089     32.939294     32.939294     65.878587
     -4.079079     35.412766     35.412766     70.825531
     -4.069069     37.078340     37.078340     74.156681
     -4.059059     37.280975     37.280975     74.561949
     -4.049049     35.731801     35.731801     71.463602
     -4.039039     32.677315     32.677315     65.354631
     -4.029029     28.840068     28.840068     57.680136
     -4.019019     25.163917     25.163917     50.327835
     -4.009009     22.499300     22.499300     44.998600
     -3.998999     21.379358     21.379358     42.758715
     -3.988989     21.965098     21.965098     43.930197
     -3.978979     24.133869     24.133869     48.267737
     -3.968969     27.619522     27.619522     55.239043
     -3.958959     32.118085     32.118085     64.236170
     -3.948949     37.329444     37.329444     74.658888
     -3.938939     42.961948     42.961948     85.923897
     -3.928929     48.741212     48.741212     97.482425
     -3.918919     54.434940     54.434940    108.869880
     -3.908909     59.867206     59.867206    119.734412
     -3.898899     64.887370     64.887370    129.774739
     -3.888889     69.290763     69.290763    138.581527
     -3.878879     72.734826     72.734826    145.469652
     -3.868869     74.717300     74.717300    149.434600
     -3.858859     74.661866     74.661866    149.323732
     -3.848849     72.101492     72.101492    144.202983
     -3.838839     66.892367     66.892367    133.784734
     -3.828829     59.363760     59.363760    118.727519
     -3.818819     50.327272     50.327272    100.654544
     -3.808809     40.924834     40.924834     81.849668
     -3.798799     32.361409     32.361409     64.722818
     -3.788789     25.613768     25.613768     51.227537
     -3.778779     21.211211     21.211211     42.422423
     -3.768769     19.150693     19.150693     38.301386
     -3.758759     18.958299     18.958299     37.916597
     -3.748749     19.865027     19.865027     39.730055
     -3.738739     21.040426     21.040426     42.080852
     -3.728729     21.822547     21.822547     43.645095
     -3.718719     21.890073     21.890073     43.780146
     -3.708709     21.336573     21.336573     42.673146
     -3.698699     20.626323     20.626323     41.252647
     -3.688689     20.436851     20.436851     40.873702
     -3.678679     21.424609     21.424609     42.849217
     -3.668669     23.980171     23.980171     47.960343
     -3.658659     28.054990     28.054990     56.109980
     -3.648649     33.128579     33.128579     66.257157
     -3.638639     38.338215     38.338215     76.676429
     -3.628629     42.727553     42.727553     85.455106
     -3.618619     45.518376     45.518376     91.036752
     -3.608609     46.302633     46.302633     92.605266
     -3.598599     45.096148     45.096148     90.192296
     -3.588589     42.262998     42.262998     84.525995
     -3.578579     38.367945     38.367945     76.735891
     -3.568569     34.019689     34.019689     68.039377
     -3.558559     29.742037     29.742037     59.484073
     -3.548549     25.885125     25.885125     51.770249
     -3.538539     22.583259     22.583259     45.166518
     -3.528529     19.770546     19.770546     39.541092
     -3.518519     17.258224     17.258224     34.516447
     -3.508509     14.852117     14.852117     29.704233
     -3.498498     12.463049     12.463049     24.926098
     -3.488488     10.161512     10.161512     20.323023
     -3.478478      8.155537      8.155537     16.311073
     -3.468468      6.708350      6.708350     13.416700
     -3.458458      6.035144      6.035144     12.070287
     -3.448448      6.217400      6.217400     12.434800
     -3.438438      7.159053      7.159053     14.318106
     -3.428428      8.595790      8.595790     17.191580
     -3.418418     10.160004     10.160004     20.320009
     -3.408408     11.491829     11.491829     22.983659
     -3.398398     12.367130     12.367130     24.734260
     -3.388388     12.795820     12.795820     25.591641
     -3.378378     13.045251     13.045251     26.090502
     -3.368368     13.570926     13.570926     27.141853
     -3.358358     14.877350     14.877350     29.754699
     -3.348348     17.360241     17.360241     34.720483
     -3.338338     21.180837     21.180837     42.361674
     -3.328328     26.199141     26.199141     52.398282
     -3.318318     31.968218     31.968218     63.936437
     -3.308308     37.783799     37.783799     75.567598
     -3.298298     42.789258     42.789258     85.578517
     -3.288288     46.135395     46.135395     92.270790
     -3.278278     47.173054     47.173054     94.346108
     -3.268268     45.625125     45.625125     91.250250
     -3.258258     41.671493     41.671493     83.342986
     -3.248248     35.906167     35.906167     71.812333
     -3.238238     29.179971     29.179971     58.359942
     -3.228228     22.391407     22.391407     44.782815
     -3.218218     16.303030     16.303030     32.606060
     -3.208208     11.436685     11.436685     22.873370
     -3.198198      8.057705      8.057705     16.115409
     -3.188188      6.221408      6.221408     12.442816
     -3.178178      5.840924      5.840924     11.681849
     -3.168168      6.744632      6.744632     13.489264
     -3.158158      8.713627      8.713627     17.427255
     -3.148148     11.508270     11.508270     23.016541
     -3.138138     14.895168     14.895168     29.790335
     -3.128128     18.671645     18.671645     37.343290
     -3.118118     22.669040     22.669040     45.338079
     -3.108108     26.718969     26.718969     53.437939
     -3.098098     30.593869     30.593869     61.187738
     -3.088088     33.965368     33.965368     67.930736
     -3.078078     36.429758     36.429758     72.859515
     -3.068068     37.613216     37.613216     75.226432
     -3.058058     37.311058     37.311058     74.622116
     -3.048048     35.580014     35.580014     71.160028
     -3.038038     32.723254     32.723254     65.446509
     -3.028028     29.174436     29.174436     58.348872
     -3.018018     25.351391     25.351391     50.702782
     -3.008008     21.564626     21.564626     43.129253
     -2.997998     18.022076     18.022076     36.044153
     -2.987988     14.905217     14.905217     29.810435
     -2.977978     12.450630     12.450630     24.901260
     -2.967968     10.977416     10.977416     21.954833
     -2.957958     10.839513     10.839513     21.679025
     -2.947948     12.321558     12.321558     24.643115
     -2.937938     15.517828     15.517828     31.035656
     -2.927928     20.236934     20.236934     40.473868
     -2.917918     25.969697     25.969697     51.939393
     -2.907908     31.946384     31.946384     63.892769
     -2.897898     37.286889     37.286889     74.573777
     -2.887888     41.212287     41.212287     82.424574
     -2.877878     43.251027     43.251027     86.502054
     -2.867868     43.359536     43.359536     86.719072
     -2.857858     41.901303     41.901303     83.802607
     -2.847848     39.485892     39.485892     78.971783
     -2.837838     36.733689     36.733689     73.467379
     -2.827828     34.068857     34.068857     68.137714
     -2.817818     31.629198     31.629198     63.258396
     -2.807808     29.322102     29.322102     58.644203
     -2.797798     26.981337     26.981337     53.962674
     -2.787788     24.531013     24.531013     49.062025
     -2.777778     22.067247     22.067247     44.134493
     -2.767768     19.821678     19.821678     39.643357
     -2.757758     18.042092     18.042092     36.084184
     -2.747748     16.872066     16.872066     33.744133
     -2.737738     16.305970     16.305970     32.611940
     -2.727728     16.241663     16.241663     32.483327
     -2.717718     16.585505     16.585505     33.171009
     -2.707708     17.327884     17.327884     34.655767
     -2.697698     18.528853     18.528853     37.057707
     -2.687688     20.220201     20.220201     40.440402
     -2.677678     22.296705     22.296705     44.593409
     -2.667668     24.486120     24.486120     48.972239
     -2.657658     26.438053     26.438053     52.876107
     -2.647648     27.887844     27.887844     55.775689
     -2.637638     28.792809     28.792809     57.585619
     -2.627628     29.349843     29.349843     58.699686
     -2.617618     29.879650     29.879650     59.759300
     -2.607608     30.649263     30.649263     61.298526
     -2.597598     31.738304     31.738304     63.476607
     -2.587588     33.014295     33.014295     66.028591
     -2.577578     34.204362     34.204362     68.408724
     -2.567568     34.997401     34.997401     69.994802
     -2.557558     35.118260     35.118260     70.236520
     -2.547548     34.365262     34.365262     68.730525
     -2.537538     32.642505     32.642505     65.285011
     -2.527528     30.012059     30.012059     60.024119
     -2.517518     26.748984     26.748984     53.497968
     -2.507508     23.347988     23.347988     46.695975
     -2.497497     20.439907     20.439907     40.879814
     -2.487487     18.625418     18.625418     37.250836
     -2.477477     18.286919     18.286919     36.573837
     -2.467467     19.461155     19.461155     38.922309
     -2.457457     21.832809     21.832809     43.665618
     -2.447447     24.856838     24.856838     49.713676
     -2.437437     27.960971     27.960971     55.921942
     -2.427427     30.744034     30.744034     61.488068
     -2.417417     33.085501     33.085501     66.171003
     -2.407407     35.118096     35.118096     70.236192
     -2.397397     37.074600     37.074600     74.149200
     -2.387387     39.078363     39.078363     78.156725
     -2.377377     40.978944     40.978944     81.957889
     -2.367367     42.322684     42.322684     84.645369
     -2.357357     42.491294     42.491294     84.982588
     -2.347347     40.960091     40.960091     81.920182
     -2.337337     37.560718     37.560718     75.121436
     -2.327327     32.621988     32.621988     65.243975
     -2.317317     26.919826     26.919826     53.839653
     -2.307307     21.462113     21.462113     42.924225
     -2.297297     17.209051     17.209051     34.418102
     -2.287287     14.842590     14.842590     29.685180
     -2.277277     14.652545     14.652545     29.305089
     -2.267267     16.542329     16.542329     33.084658
     -2.257257     20.114175     20.114175     40.228351
     -2.247247     24.785489     24.785489     49.570977
     -2.237237     29.901461     29.901461     59.802922
     -2.227227     34.825445     34.825445     69.650891
     -2.217217     39.000142     39.000142     78.000284
     -2.207207     41.982131     41.982131     83.964262
     -2.197197     43.461944     43.461944     86.923887
     -2.187187     43.286393     43.286393     86.572787
     -2.177177     41.490838     41.490838     82.981675
     -2.167167     38.326712     38.326712     76.653425
     -2.157157     34.249638     34.249638     68.499277
     -2.147147     29.837490     29.837490     59.674981
     -2.137137     25.643785     25.643785     51.287570
     -2.127127     22.039707     22.039707     44.079414
     -2.117117     19.121163     19.121163     38.242326
     -2.107107     16.731464     16.731464     33.462929
     -2.097097     14.587779     14.587779     29.175558
     -2.087087     12.442060     12.442060     24.884119
     -2.077077     10.193712     10.193712     20.387424
     -2.067067      7.907936      7.907936     15.815872
     -2.057057      5.751428      5.751428     11.502855
     -2.047047      3.897042      3.897042      7.794085
     -2.037037      2.451004      2.451004      4.902008
     -2.027027      1.429077      1.429077      2.858153
     -2.017017      0.776118      0.776118      1.552235
     -2.007007      0.406196      0.406196      0.812392
     -1.996997      0.241851      0.241851      0.483701
     -1.986987      0.242493      0.242493      0.484987
     -1.976977      0.422211      0.422211      0.844422
     -1.966967      0.859893      0.859893      1.719785
     -1.956957      1.699884      1.699884      3.399768
     -1.946947      3.134259      3.134259      6.268517
     -1.936937      5.355730      5.355730     10.711460
     -1.926927      8.479438      8.479438     16.958875
     -1.916917     12.452238     12.452238     24.904475
     -1.906907     16.989377     16.989377     33.978754
     -1.896897     21.583019     21.583019     43.166038
     -1.886887     25.603033     25.603033     51.206066
     -1.876877     28.465089     28.465089     56.930179
     -1.866867     29.801445     29.801445     59.602890
     -1.856857     29.563679     29.563679     59.127357
     -1.846847     28.019137     28.019137     56.038273
     -1.836837     25.651210     25.651210     51.302420
     -1.826827     23.007651     23.007651     46.015301
     -1.816817     20.548434     20.548434     41.096867
     -1.806807     18.534686     18.534686     37.069372
     -1.796797     16.986421     16.986421     33.972843
     -1.786787     15.720869     15.720869     31.441738
     -1.776777     14.459136     14.459136     28.918273
     -1.766767     12.960262     12.960262     25.920524
     -1.756757     11.125935     11.125935     22.251870
     -1.746747      9.032491      9.032491     18.064982
     -1.736737      6.885447      6.885447     13.770894
     -1.726727      4.931507      4.931507      9.863014
     -1.716717      3.378288      3.378288      6.756576
     -1.706707      2.356221      2.356221      4.712442
     -1.696697      1.924866      1.924866      3.849732
     -1.686687      2.099386      2.099386      4.198772
     -1.676677      2.866361      2.866361      5.732722
     -1.666667      4.171765      4.171765      8.343531
     -1.656657      5.887973      5.887973     11.775947
     -1.646647      7.787278      7.787278     15.574556
     -1.636637      9.554320      9.554320     19.108640
     -1.626627     10.853606     10.853606     21.707212
