# EIG2DOS: Utility for SIESTA to obtain the electronic density of states
#  E. Artacho, Apr 1999, A. Garcia, Apr 2012
#  Nick R. Papior, Feb 2017
# ------------------------------------------
# Eigenvalues calculated from a non-polarized calculation
# Eigenvalues read from siesta.EIG
# Kpoint weights read from siesta.KP
# Using smearing parameter:   0.0500
# Using 1000 points in the energy range
# Selected bands: 1 to: 2981
# Emin, Emax in file for selected band(s):    -27.2673232    218.3934190
# Nbands, Nspin, Nk   =   2981     1     1
# E_F                 =    -4.2049 eV --> (shifted to ZERO)
# Broadening          =     0.0500 eV
#
#        E            N(up)  (=)   N(down)         Ntot
     -5.000000     31.173475     31.173475     62.346950
     -4.989990     36.077211     36.077211     72.154422
     -4.979980     40.792142     40.792142     81.584284
     -4.969970     44.533344     44.533344     89.066688
     -4.959960     46.600626     46.600626     93.201252
     -4.949950     46.609380     46.609380     93.218760
     -4.939940     44.625524     44.625524     89.251049
     -4.929930     41.161478     41.161478     82.322956
     -4.919920     37.054992     37.054992     74.109984
     -4.909910     33.289945     33.289945     66.579890
     -4.899900     30.810429     30.810429     61.620858
     -4.889890     30.346791     30.346791     60.693583
     -4.879880     32.254199     32.254199     64.508398
     -4.869870     36.382170     36.382170     72.764340
     -4.859860     42.028825     42.028825     84.057651
     -4.849850     48.042916     48.042916     96.085833
     -4.839840     53.091531     53.091531    106.183061
     -4.829830     56.027822     56.027822    112.055644
     -4.819820     56.224174     56.224174    112.448347
     -4.809810     53.733263     53.733263    107.466527
     -4.799800     49.212900     49.212900     98.425801
     -4.789790     43.660005     43.660005     87.320010
     -4.779780     38.080776     38.080776     76.161553
     -4.769770     33.233831     33.233831     66.467662
     -4.759760     29.524238     29.524238     59.048475
     -4.749750     27.042050     27.042050     54.084099
     -4.739740     25.678295     25.678295     51.356590
     -4.729730     25.238388     25.238388     50.476777
     -4.719720     25.500551     25.500551     51.001102
     -4.709710     26.212503     26.212503     52.425007
     -4.699700     27.061253     27.061253     54.122507
     -4.689690     27.670850     27.670850     55.341699
     -4.679680     27.670096     27.670096     55.340193
     -4.669670     26.828318     26.828318     53.656636
     -4.659660     25.204540     25.204540     50.409081
     -4.649650     23.227571     23.227571     46.455142
     -4.639640     21.642720     21.642720     43.285439
     -4.629630     21.316986     21.316986     42.633972
     -4.619620     22.957676     22.957676     45.915352
     -4.609610     26.839917     26.839917     53.679834
     -4.599600     32.644026     32.644026     65.288053
     -4.589590     39.475615     39.475615     78.951229
     -4.579580     46.085712     46.085712     92.171424
     -4.569570     51.235761     51.235761    102.471522
     -4.559560     54.086283     54.086283    108.172566
     -4.549550     54.461766     54.461766    108.923533
     -4.539540     52.881437     52.881437    105.762875
     -4.529530     50.338062     50.338062    100.676125
     -4.519520     47.913323     47.913323     95.826646
     -4.509510     46.386434     46.386434     92.772869
     -4.499499     45.989876     45.989876     91.979752
     -4.489489     46.395904     46.395904     92.791809
     -4.479479     46.915486     46.915486     93.830972
     -4.469469     46.805678     46.805678     93.611355
     -4.459459     45.549626     45.549626     91.099253
     -4.449449     43.004934     43.004934     86.009868
     -4.439439     39.389945     39.389945     78.779889
     -4.429429     35.153695     35.153695     70.307390
     -4.419419     30.815886     30.815886     61.631772
     -4.409409     26.851661     26.851661     53.703322
     -4.399399     23.645881     23.645881     47.291763
     -4.389389     21.488957     21.488957     42.977915
     -4.379379     20.566899     20.566899     41.133798
     -4.369369     20.922572     20.922572     41.845144
     -4.359359     22.410259     22.410259     44.820519
     -4.349349     24.692822     24.692822     49.385644
     -4.339339     27.316141     27.316141     54.632282
     -4.329329     29.848698     29.848698     59.697396
     -4.319319     32.028885     32.028885     64.057769
     -4.309309     33.849741     33.849741     67.699482
     -4.299299     35.536349     35.536349     71.072698
     -4.289289     37.417479     37.417479     74.834959
     -4.279279     39.736760     39.736760     79.473521
     -4.269269     42.475441     42.475441     84.950883
     -4.259259     45.263804     45.263804     90.527608
     -4.249249     47.437195     47.437195     94.874390
     -4.239239     48.242130     48.242130     96.484261
     -4.229229     47.128007     47.128007     94.256014
     -4.219219     44.002975     44.002975     88.005949
     -4.209209     39.328939     39.328939     78.657878
     -4.199199     33.996940     33.996940     67.993880
     -4.189189     29.030745     29.030745     58.061490
     -4.179179     25.252056     25.252056     50.504111
     -4.169169     23.054457     23.054457     46.108915
     -4.159159     22.370592     22.370592     44.741184
     -4.149149     22.819328     22.819328     45.638656
     -4.139139     23.941598     23.941598     47.883197
     -4.129129     25.407996     25.407996     50.815991
     -4.119119     27.108459     27.108459     54.216919
     -4.109109     29.094213     29.094213     58.188426
     -4.099099     31.410623     31.410623     62.821245
     -4.089089     33.914059     33.914059     67.828117
     -4.079079     36.182869     36.182869     72.365738
     -4.069069     37.594905     37.594905     75.189811
     -4.059059     37.558522     37.558522     75.117043
     -4.049049     35.792183     35.792183     71.584366
     -4.039039     32.507603     32.507603     65.015206
     -4.029029     28.394969     28.394969     56.789939
     -4.019019     24.413498     24.413498     48.826997
     -4.009009     21.490706     21.490706     42.981412
     -3.998999     20.268651     20.268651     40.537302
     -3.988989     20.991380     20.991380     41.982761
     -3.978979     23.542590     23.542590     47.085181
     -3.968969     27.572733     27.572733     55.145466
     -3.958959     32.636623     32.636623     65.273247
     -3.948949     38.292428     38.292428     76.584855
     -3.938939     44.157276     44.157276     88.314552
     -3.928929     49.938018     49.938018     99.876036
     -3.918919     55.446527     55.446527    110.893055
     -3.908909     60.586482     60.586482    121.172963
     -3.898899     65.293161     65.293161    130.586322
     -3.888889     69.432956     69.432956    138.865911
     -3.878879     72.708214     72.708214    145.416429
     -3.868869     74.632561     74.632561    149.265121
     -3.858859     74.620078     74.620078    149.240155
     -3.848849     72.176122     72.176122    144.352244
     -3.838839     67.119415     67.119415    134.238829
     -3.828829     59.738476     59.738476    119.476951
     -3.818819     50.806258     50.806258    101.612515
     -3.808809     41.434472     41.434472     82.868945
     -3.798799     32.814289     32.814289     65.628578
     -3.788789     25.931872     25.931872     51.863744
     -3.778779     21.349662     21.349662     42.699324
     -3.768769     19.112840     19.112840     38.225680
     -3.758759     18.794747     18.794747     37.589494
     -3.748749     19.655346     19.655346     39.310693
     -3.738739     20.863387     20.863387     41.726773
     -3.728729     21.725429     21.725429     43.450858
     -3.718719     21.868333     21.868333     43.736665
     -3.708709     21.332248     21.332248     42.664497
     -3.698699     20.547918     20.547918     41.095835
     -3.688689     20.196068     20.196068     40.392136
     -3.678679     20.977653     20.977653     41.955305
     -3.668669     23.356447     23.356447     46.712893
     -3.658659     27.357955     27.357955     54.715910
     -3.648649     32.504221     32.504221     65.008443
     -3.638639     37.922706     37.922706     75.845413
     -3.628629     42.598065     42.598065     85.196130
     -3.618619     45.670772     45.670772     91.341544
     -3.608609     46.665170     46.665170     93.330341
     -3.598599     45.568243     45.568243     91.136485
     -3.588589     42.755967     42.755967     85.511934
     -3.578579     38.828050     38.828050     77.656101
     -3.568569     34.428620     34.428620     68.857241
     -3.558559     30.104146     30.104146     60.208291
     -3.548549     26.214477     26.214477     52.428955
     -3.538539     22.897009     22.897009     45.794018
     -3.528529     20.086187     20.086187     40.172374
     -3.518519     17.589053     17.589053     35.178105
     -3.508509     15.199024     15.199024     30.398047
     -3.498498     12.806451     12.806451     25.612902
     -3.488488     10.459353     10.459353     20.918706
     -3.478478      8.350608      8.350608     16.701217
     -3.468468      6.743866      6.743866     13.487733
     -3.458458      5.874832      5.874832     11.749664
     -3.448448      5.865764      5.865764     11.731528
     -3.438438      6.677435      6.677435     13.354869
     -3.428428      8.109917      8.109917     16.219834
     -3.418418      9.856358      9.856358     19.712716
     -3.408408     11.604300     11.604300     23.208599
     -3.398398     13.159426     13.159426     26.318852
     -3.388388     14.543833     14.543833     29.087667
     -3.378378     16.015256     16.015256     32.030511
     -3.368368     17.980455     17.980455     35.960910
     -3.358358     20.827417     20.827417     41.654835
     -3.348348     24.746310     24.746310     49.492620
     -3.338338     29.616468     29.616468     59.232936
     -3.328328     34.999687     34.999687     69.999373
     -3.318318     40.225990     40.225990     80.451980
     -3.308308     44.526017     44.526017     89.052033
     -3.298298     47.171331     47.171331     94.342661
     -3.288288     47.610183     47.610183     95.220366
     -3.278278     45.595488     45.595488     91.190975
     -3.268268     41.281351     41.281351     82.562703
     -3.258258     35.240422     35.240422     70.480844
     -3.248248     28.364225     28.364225     56.728451
     -3.238238     21.659193     21.659193     43.318387
     -3.228228     16.007152     16.007152     32.014303
     -3.218218     11.976911     11.976911     23.953822
     -3.208208      9.742464      9.742464     19.484927
     -3.198198      9.111879      9.111879     18.223757
     -3.188188      9.636200      9.636200     19.272399
     -3.178178     10.761410     10.761410     21.522820
     -3.168168     11.992584     11.992584     23.985167
     -3.158158     13.038149     13.038149     26.076298
     -3.148148     13.893504     13.893504     27.787007
     -3.138138     14.824938     14.824938     29.649876
     -3.128128     16.242195     16.242195     32.484391
     -3.118118     18.495562     18.495562     36.991123
     -3.108108     21.676178     21.676178     43.352356
     -3.098098     25.508964     25.508964     51.017929
     -3.088088     29.394647     29.394647     58.789294
     -3.078078     32.592694     32.592694     65.185389
     -3.068068     34.470388     34.470388     68.940776
     -3.058058     34.708977     34.708977     69.417954
     -3.048048     33.377146     33.377146     66.754291
     -3.038038     30.848725     30.848725     61.697451
     -3.028028     27.620865     27.620865     55.241731
     -3.018018     24.134913     24.134913     48.269827
     -3.008008     20.687889     20.687889     41.375778
     -2.997998     17.459207     17.459207     34.918414
     -2.987988     14.608101     14.608101     29.216201
     -2.977978     12.364714     12.364714     24.729428
     -2.967968     11.054660     11.054660     22.109321
     -2.957958     11.041889     11.041889     22.083778
     -2.947948     12.615601     12.615601     25.231202
     -2.937938     15.865855     15.865855     31.731709
     -2.927928     20.592303     20.592303     41.184605
     -2.917918     26.281458     26.281458     52.562917
     -2.907908     32.173553     32.173553     64.347107
     -2.897898     37.416428     37.416428     74.832856
     -2.887888     41.270973     41.270973     82.541946
     -2.877878     43.302305     43.302305     86.604610
     -2.867868     43.482672     43.482672     86.965345
     -2.857858     42.158827     42.158827     84.317655
     -2.847848     39.892131     39.892131     79.784262
     -2.837838     37.238362     37.238362     74.476723
     -2.827828     34.564223     34.564223     69.128446
     -2.817818     31.979556     31.979556     63.959113
     -2.807808     29.404941     29.404941     58.809881
     -2.797798     26.724769     26.724769     53.449538
     -2.787788     23.934345     23.934345     47.868691
     -2.777778     21.199254     21.199254     42.398509
     -2.767768     18.800051     18.800051     37.600103
     -2.757758     17.003231     17.003231     34.006461
     -2.747748     15.940937     15.940937     31.881873
     -2.737738     15.572759     15.572759     31.145517
     -2.727728     15.748591     15.748591     31.497183
     -2.717718     16.325174     16.325174     32.650349
     -2.707708     17.253113     17.253113     34.506227
     -2.697698     18.571431     18.571431     37.142862
     -2.687688     20.312435     20.312435     40.624870
     -2.677678     22.387539     22.387539     44.775079
     -2.667668     24.545550     24.545550     49.091099
     -2.657658     26.449664     26.449664     52.899328
     -2.647648     27.836135     27.836135     55.672270
     -2.637638     28.655147     28.655147     57.310295
     -2.627628     29.099971     29.099971     58.199942
     -2.617618     29.502123     29.502123     59.004245
     -2.607608     30.156558     30.156558     60.313117
     -2.597598     31.179566     31.179566     62.359131
     -2.587588     32.468782     32.468782     64.937564
     -2.577578     33.761181     33.761181     67.522361
     -2.567568     34.730366     34.730366     69.460732
     -2.557558     35.066029     35.066029     70.132059
     -2.547548     34.522179     34.522179     69.044358
     -2.537538     32.959289     32.959289     65.918578
     -2.527528     30.402765     30.402765     60.805530
     -2.517518     27.102673     27.102673     54.205347
     -2.507508     23.546941     23.546941     47.093883
     -2.497497     20.386360     20.386360     40.772719
     -2.487487     18.273983     18.273983     36.547965
     -2.477477     17.672813     17.672813     35.345626
     -2.467467     18.710301     18.710301     37.420601
     -2.457457     21.143191     21.143191     42.286382
     -2.447447     24.451449     24.451449     48.902898
     -2.437437     28.026167     28.026167     56.052333
     -2.427427     31.375211     31.375211     62.750422
     -2.417417     34.259275     34.259275     68.518550
     -2.407407     36.698140     36.698140     73.396279
     -2.397397     38.845015     38.845015     77.690029
     -2.387387     40.791623     40.791623     81.583246
     -2.377377     42.406395     42.406395     84.812791
     -2.367367     43.299160     43.299160     86.598320
     -2.357357     42.946696     42.946696     85.893392
     -2.347347     40.930293     40.930293     81.860587
     -2.337337     37.172730     37.172730     74.345460
     -2.327327     32.056241     32.056241     64.112483
     -2.317317     26.361850     26.361850     52.723699
     -2.307307     21.059834     21.059834     42.119667
     -2.297297     17.047605     17.047605     34.095211
     -2.287287     14.939462     14.939462     29.878924
     -2.277277     14.968554     14.968554     29.937109
     -2.267267     17.001625     17.001625     34.003250
     -2.257257     20.627273     20.627273     41.254545
     -2.247247     25.270342     25.270342     50.540684
     -2.237237     30.297775     30.297775     60.595550
     -2.227227     35.098792     35.098792     70.197583
     -2.217217     39.136293     39.136293     78.272586
     -2.207207     41.976654     41.976654     83.953308
     -2.197197     43.312131     43.312131     86.624263
     -2.187187     42.990235     42.990235     85.980470
     -2.177177     41.052643     41.052643     82.105287
     -2.167167     37.764784     37.764784     75.529567
     -2.157157     33.600557     33.600557     67.201114
     -2.147147     29.154019     29.154019     58.308038
     -2.137137     24.986922     24.986922     49.973844
     -2.127127     21.468021     21.468021     42.936042
     -2.117117     18.681428     18.681428     37.362857
     -2.107107     16.454393     16.454393     32.908787
     -2.097097     14.492084     14.492084     28.984168
     -2.087087     12.549239     12.549239     25.098478
     -2.077077     10.553914     10.553914     21.107829
     -2.067067      8.633008      8.633008     17.266016
     -2.057057      7.044842      7.044842     14.089685
     -2.047047      6.063899      6.063899     12.127798
     -2.037037      5.869165      5.869165     11.738330
     -2.027027      6.470073      6.470073     12.940146
     -2.017017      7.683950      7.683950     15.367900
     -2.007007      9.167961      9.167961     18.335923
     -1.996997     10.501900     10.501900     21.003800
     -1.986987     11.305805     11.305805     22.611610
     -1.976977     11.358666     11.358666     22.717333
     -1.966967     10.674671     10.674671     21.349341
     -1.956957      9.504672      9.504672     19.009344
     -1.946947      8.260835      8.260835     16.521671
     -1.936937      7.394072      7.394072     14.788145
     -1.926927      7.268406      7.268406     14.536811
     -1.916917      8.069204      8.069204     16.138408
     -1.906907      9.763646      9.763646     19.527292
     -1.896897     12.114846     12.114846     24.229692
     -1.886887     14.740912     14.740912     29.481823
     -1.876877     17.204043     17.204043     34.408085
     -1.866867     19.110061     19.110061     38.220121
     -1.856857     20.196404     20.196404     40.392808
     -1.846847     20.388453     20.388453     40.776905
     -1.836837     19.809234     19.809234     39.618467
     -1.826827     18.735216     18.735216     37.470432
     -1.816817     17.503231     17.503231     35.006462
     -1.806807     16.392476     16.392476     32.784952
     -1.796797     15.524488     15.524488     31.048976
     -1.786787     14.827428     14.827428     29.654855
     -1.776777     14.087177     14.087177     28.174355
     -1.766767     13.064087     13.064087     26.128173
     -1.756757     11.617319     11.617319     23.234638
     -1.746747      9.775061      9.775061     19.550122
     -1.736737      7.722213      7.722213     15.444426
     -1.726727      5.724637      5.724637     11.449274
     -1.716717      4.038950      4.038950      8.077901
     -1.706707      2.852924      2.852924      5.705849
     -1.696697      2.272118      2.272118      4.544236
     -1.686687      2.336566      2.336566      4.673132
     -1.676677      3.037089      3.037089      6.074178
     -1.666667      4.309760      4.309760      8.619521
     -1.656657      6.010803      6.010803     12.021606
     -1.646647      7.896898      7.896898     15.793797
     -1.636637      9.642646      9.642646     19.285293
     -1.626627     10.911175     10.911175     21.822349
