# EIG2DOS: Utility for SIESTA to obtain the electronic density of states
#  E. Artacho, Apr 1999, A. Garcia, Apr 2012
#  Nick R. Papior, Feb 2017
# ------------------------------------------
# Eigenvalues calculated from a non-polarized calculation
# Eigenvalues read from siesta.EIG
# Kpoint weights read from siesta.KP
# Using smearing parameter:   0.0500
# Using 1000 points in the energy range
# Selected bands: 1 to: 2981
# Emin, Emax in file for selected band(s):    -27.2936470    218.4039540
# Nbands, Nspin, Nk   =   2981     1     1
# E_F                 =    -4.1905 eV --> (shifted to ZERO)
# Broadening          =     0.0500 eV
#
#        E            N(up)  (=)   N(down)         Ntot
     -5.000000     30.759252     30.759252     61.518504
     -4.989990     35.937158     35.937158     71.874315
     -4.979980     40.988417     40.988417     81.976833
     -4.969970     45.048975     45.048975     90.097949
     -4.959960     47.341502     47.341502     94.683005
     -4.949950     47.433373     47.433373     94.866747
     -4.939940     45.387605     45.387605     90.775211
     -4.929930     41.757293     41.757293     83.514587
     -4.919920     37.446857     37.446857     74.893715
     -4.909910     33.506939     33.506939     67.013877
     -4.899900     30.924029     30.924029     61.848059
     -4.889890     30.431945     30.431945     60.863891
     -4.879880     32.351125     32.351125     64.702249
     -4.869870     36.475128     36.475128     72.950255
     -4.859860     42.052686     42.052686     84.105372
     -4.849850     47.916490     47.916490     95.832981
     -4.839840     52.762867     52.762867    105.525734
     -4.829830     55.509186     55.509186    111.018372
     -4.819820     55.599394     55.599394    111.198788
     -4.809810     53.135902     53.135902    106.271804
     -4.799800     48.790545     48.790545     97.581090
     -4.789790     43.546806     43.546806     87.093612
     -4.779780     38.392733     38.392733     76.785466
     -4.769770     34.084287     34.084287     68.168575
     -4.759760     31.040647     31.040647     62.081294
     -4.749750     29.358374     29.358374     58.716748
     -4.739740     28.885164     28.885164     57.770328
     -4.729730     29.295111     29.295111     58.590223
     -4.719720     30.142658     30.142658     60.285317
     -4.709710     30.910731     30.910731     61.821463
     -4.699700     31.083549     31.083549     62.167098
     -4.689690     30.258235     30.258235     60.516470
     -4.679680     28.274348     28.274348     56.548697
     -4.669670     25.311699     25.311699     50.623398
     -4.659660     21.905676     21.905676     43.811353
     -4.649650     18.858098     18.858098     37.716197
     -4.639640     17.061452     17.061452     34.122904
     -4.629630     17.281318     17.281318     34.562636
     -4.619620     19.947369     19.947369     39.894738
     -4.609610     24.998771     24.998771     49.997541
     -4.599600     31.828027     31.828027     63.656055
     -4.589590     39.363504     39.363504     78.727009
     -4.579580     46.305236     46.305236     92.610472
     -4.569570     51.471973     51.471973    102.943945
     -4.559560     54.151768     54.151768    108.303535
     -4.549550     54.318241     54.318241    108.636481
     -4.539540     52.612174     52.612174    105.224348
     -4.529530     50.083808     50.083808    100.167617
     -4.519520     47.796740     47.796740     95.593480
     -4.509510     46.454024     46.454024     92.908047
     -4.499499     46.191964     46.191964     92.383929
     -4.489489     46.608248     46.608248     93.216496
     -4.479479     46.989050     46.989050     93.978100
     -4.469469     46.621983     46.621983     93.243966
     -4.459459     45.060534     45.060534     90.121068
     -4.449449     42.245100     42.245100     84.490200
     -4.439439     38.462047     38.462047     76.924095
     -4.429429     34.195853     34.195853     68.391705
     -4.419419     29.964677     29.964677     59.929354
     -4.409409     26.212569     26.212569     52.425138
     -4.399399     23.277565     23.277565     46.555131
     -4.389389     21.401440     21.401440     42.802881
     -4.379379     20.729500     20.729500     41.459000
     -4.369369     21.276643     21.276643     42.553287
     -4.359359     22.883692     22.883692     45.767384
     -4.349349     25.215458     25.215458     50.430915
     -4.339339     27.835549     27.835549     55.671098
     -4.329329     30.343952     30.343952     60.687905
     -4.319319     32.517676     32.517676     65.035353
     -4.309309     34.383522     34.383522     68.767043
     -4.299299     36.180532     36.180532     72.361064
     -4.289289     38.218951     38.218951     76.437902
     -4.279279     40.687766     40.687766     81.375532
     -4.269269     43.488667     43.488667     86.977335
     -4.259259     46.174146     46.174146     92.348291
     -4.249249     48.037921     48.037921     96.075841
     -4.239239     48.347717     48.347717     96.695434
     -4.229229     46.640098     46.640098     93.280196
     -4.219219     42.950232     42.950232     85.900463
     -4.209209     37.862009     37.862009     75.724018
     -4.199199     32.341579     32.341579     64.683158
     -4.189189     27.421987     27.421987     54.843973
     -4.179179     23.878184     23.878184     47.756367
     -4.169169     22.029597     22.029597     44.059193
     -4.159159     21.737656     21.737656     43.475313
     -4.149149     22.571956     22.571956     45.143911
     -4.139139     24.049761     24.049761     48.099523
     -4.129129     25.835245     25.835245     51.670490
     -4.119119     27.814758     27.814758     55.629516
     -4.109109     30.024830     30.024830     60.049660
     -4.099099     32.478372     32.478372     64.956743
     -4.089089     34.987842     34.987842     69.975683
     -4.079079     37.095858     37.095858     74.191717
     -4.069069     38.177415     38.177415     76.354830
     -4.059059     37.686156     37.686156     75.372312
     -4.049049     35.428138     35.428138     70.856277
     -4.039039     31.718208     31.718208     63.436415
     -4.029029     27.331038     27.331038     54.662075
     -4.019019     23.267925     23.267925     46.535849
     -4.009009     20.452687     20.452687     40.905374
     -3.998999     19.491216     19.491216     38.982432
     -3.988989     20.576574     20.576574     41.153147
     -3.978979     23.538327     23.538327     47.076653
     -3.968969     27.974039     27.974039     55.948079
     -3.958959     33.389875     33.389875     66.779751
     -3.948949     39.306649     39.306649     78.613298
     -3.938939     45.325323     45.325323     90.650646
     -3.928929     51.162998     51.162998    102.325997
     -3.918919     56.661538     56.661538    113.323076
     -3.908909     61.755779     61.755779    123.511559
     -3.898899     66.392157     66.392157    132.784315
     -3.888889     70.417914     70.417914    140.835829
     -3.878879     73.495320     73.495320    146.990640
     -3.868869     75.103342     75.103342    150.206685
     -3.858859     74.656281     74.656281    149.312562
     -3.848849     71.709794     71.709794    143.419589
     -3.838839     66.173739     66.173739    132.347478
     -3.828829     58.438178     58.438178    116.876356
     -3.818819     49.351214     49.351214     98.702428
     -3.808809     40.047454     40.047454     80.094908
     -3.798799     31.683917     31.683917     63.367833
     -3.788789     25.170663     25.170663     50.341327
     -3.778779     20.977723     20.977723     41.955446
     -3.768769     19.067024     19.067024     38.134049
     -3.758759     18.956140     18.956140     37.912280
     -3.748749     19.885704     19.885704     39.771408
     -3.738739     21.041738     21.041738     42.083475
     -3.728729     21.777445     21.777445     43.554890
     -3.718719     21.782690     21.782690     43.565380
     -3.708709     21.160428     21.160428     42.320857
     -3.698699     20.387048     20.387048     40.774096
     -3.688689     20.158293     20.158293     40.316586
     -3.678679     21.153468     21.153468     42.306936
     -3.668669     23.782384     23.782384     47.564767
     -3.658659     27.999374     27.999374     55.998748
     -3.648649     33.260299     33.260299     66.520599
     -3.638639     38.653101     38.653101     77.306202
     -3.628629     43.162036     43.162036     86.324071
     -3.618619     45.964339     45.964339     91.928679
     -3.608609     46.643549     46.643549     93.287098
     -3.598599     45.248372     45.248372     90.496745
     -3.588589     42.202673     42.202673     84.405345
     -3.578579     38.132117     38.132117     76.264235
     -3.568569     33.684485     33.684485     67.368971
     -3.558559     29.391641     29.391641     58.783281
     -3.548549     25.586641     25.586641     51.173282
     -3.538539     22.375383     22.375383     44.750766
     -3.528529     19.664593     19.664593     39.329186
     -3.518519     17.244885     17.244885     34.489771
     -3.508509     14.908148     14.908148     29.816296
     -3.498498     12.556306     12.556306     25.112612
     -3.488488     10.256585     10.256585     20.513170
     -3.478478      8.223720      8.223720     16.447440
     -3.468468      6.745237      6.745237     13.490475
     -3.458458      6.087326      6.087326     12.174653
     -3.448448      6.415875      6.415875     12.831750
     -3.438438      7.750189      7.750189     15.500379
     -3.428428      9.952517      9.952517     19.905034
     -3.418418     12.751727     12.751727     25.503454
     -3.408408     15.798423     15.798423     31.596846
     -3.398398     18.743301     18.743301     37.486601
     -3.388388     21.320938     21.320938     42.641876
     -3.378378     23.415229     23.415229     46.830458
     -3.368368     25.086307     25.086307     50.172613
     -3.358358     26.549639     26.549639     53.099278
     -3.348348     28.108802     28.108802     56.217603
     -3.338338     30.050946     30.050946     60.101892
     -3.328328     32.522291     32.522291     65.044583
     -3.318318     35.415352     35.415352     70.830703
     -3.308308     38.315727     38.315727     76.631455
     -3.298298     40.557325     40.557325     81.114651
     -3.288288     41.403132     41.403132     82.806264
     -3.278278     40.306747     40.306747     80.613495
     -3.268268     37.150460     37.150460     74.300919
     -3.258258     32.343808     32.343808     64.687615
     -3.248248     26.722548     26.722548     53.445096
     -3.238238     21.284003     21.284003     42.568006
     -3.228228     16.872376     16.872376     33.744752
     -3.218218     13.942252     13.942252     27.884505
     -3.208208     12.480748     12.480748     24.961497
     -3.198198     12.095494     12.095494     24.190989
     -3.188188     12.216087     12.216087     24.432175
     -3.178178     12.328588     12.328588     24.657176
     -3.168168     12.163882     12.163882     24.327765
     -3.158158     11.783089     11.783089     23.566178
     -3.148148     11.538928     11.538928     23.077856
     -3.138138     11.931626     11.931626     23.863252
     -3.128128     13.409503     13.409503     26.819007
     -3.118118     16.179188     16.179188     32.358375
     -3.108108     20.086914     20.086914     40.173828
     -3.098098     24.613643     24.613643     49.227286
     -3.088088     28.994851     28.994851     57.989702
     -3.078078     32.433675     32.433675     64.867350
     -3.068068     34.334987     34.334987     68.669974
     -3.058058     34.469484     34.469484     68.938968
     -3.048048     33.000176     33.000176     66.000353
     -3.038038     30.366203     30.366203     60.732405
     -3.028028     27.089379     27.089379     54.178757
     -3.018018     23.604339     23.604339     47.208679
     -3.008008     20.190065     20.190065     40.380130
     -2.997998     17.014497     17.014497     34.028993
     -2.987988     14.238923     14.238923     28.477846
     -2.977978     12.104332     12.104332     24.208664
     -2.967968     10.945208     10.945208     21.890417
     -2.957958     11.122805     11.122805     22.245611
     -2.947948     12.908130     12.908130     25.816260
     -2.937938     16.360096     16.360096     32.720192
     -2.927928     21.241751     21.241751     42.483502
     -2.917918     27.007606     27.007606     54.015212
     -2.907908     32.880346     32.880346     65.760692
     -2.897898     38.011271     38.011271     76.022542
     -2.887888     41.686239     41.686239     83.372477
     -2.877878     43.510187     43.510187     87.020373
     -2.867868     43.497789     43.497789     86.995579
     -2.857858     42.027168     42.027168     84.054336
     -2.847848     39.670368     39.670368     79.340737
     -2.837838     36.972083     36.972083     73.944165
     -2.827828     34.274665     34.274665     68.549330
     -2.817818     31.664789     31.664789     63.329579
     -2.807808     29.054161     29.054161     58.108321
     -2.797798     26.337211     26.337211     52.674422
     -2.787788     23.531657     23.531657     47.063314
     -2.777778     20.824092     20.824092     41.648185
     -2.767768     18.502188     18.502188     37.004377
     -2.757758     16.822339     16.822339     33.644677
     -2.747748     15.897246     15.897246     31.794493
     -2.737738     15.671171     15.671171     31.342343
     -2.727728     15.991773     15.991773     31.983545
     -2.717718     16.723388     16.723388     33.446777
     -2.707708     17.819216     17.819216     35.638432
     -2.697698     19.299639     19.299639     38.599278
     -2.687688     21.153347     21.153347     42.306695
     -2.677678     23.239375     23.239375     46.478749
     -2.667668     25.275372     25.275372     50.550744
     -2.657658     26.940279     26.940279     53.880557
     -2.647648     28.035854     28.035854     56.071708
     -2.637638     28.602334     28.602334     57.204667
     -2.627628     28.907423     28.907423     57.814845
     -2.617618     29.309555     29.309555     58.619110
     -2.607608     30.076605     30.076605     60.153209
     -2.597598     31.262520     31.262520     62.525041
     -2.587588     32.696066     32.696066     65.392132
     -2.577578     34.060439     34.060439     68.120877
     -2.567568     34.998591     34.998591     69.997183
     -2.557558     35.192592     35.192592     70.385184
     -2.547548     34.412108     34.412108     68.824216
     -2.537538     32.558804     32.558804     65.117608
     -2.527528     29.722645     29.722645     59.445291
     -2.517518     26.228299     26.228299     52.456598
     -2.507508     22.625147     22.625147     45.250294
     -2.497497     19.589427     19.589427     39.178855
     -2.487487     17.753105     17.753105     35.506210
     -2.477477     17.518791     17.518791     35.037582
     -2.467467     18.935251     18.935251     37.870502
     -2.457457     21.687204     21.687204     43.374407
     -2.447447     25.208364     25.208364     50.416727
     -2.437437     28.877050     28.877050     57.754101
     -2.427427     32.217555     32.217555     64.435110
     -2.417417     35.023209     35.023209     70.046418
     -2.407407     37.346284     37.346284     74.692568
     -2.397397     39.358397     39.358397     78.716793
     -2.387387     41.149301     41.149301     82.298603
     -2.377377     42.569830     42.569830     85.139660
     -2.367367     43.211821     43.211821     86.423641
     -2.357357     42.553076     42.553076     85.106152
     -2.347347     40.207592     40.207592     80.415185
     -2.337337     36.158881     36.158881     72.317762
     -2.327327     30.857088     30.857088     61.714176
     -2.317317     25.130503     25.130503     50.261006
     -2.307307     19.956581     19.956581     39.913163
     -2.297297     16.198960     16.198960     32.397920
     -2.287287     14.413673     14.413673     28.827347
     -2.277277     14.774346     14.774346     29.548693
     -2.267267     17.104843     17.104843     34.209685
     -2.257257     20.973383     20.973383     41.946766
     -2.247247     25.801273     25.801273     51.602546
     -2.237237     30.957160     30.957160     61.914320
     -2.227227     35.826806     35.826806     71.653612
     -2.217217     39.860974     39.860974     79.721948
     -2.207207     42.610829     42.610829     85.221659
     -2.197197     43.762666     43.762666     87.525332
     -2.187187     43.179739     43.179739     86.359478
     -2.177177     40.945724     40.945724     81.891448
     -2.167167     37.385836     37.385836     74.771672
     -2.157157     33.031975     33.031975     66.063951
     -2.147147     28.513205     28.513205     57.026410
     -2.137137     24.393153     24.393153     48.786307
     -2.127127     21.018429     21.018429     42.036858
     -2.117117     18.452752     18.452752     36.905505
     -2.107107     16.533511     16.533511     33.067023
     -2.097097     15.019798     15.019798     30.039595
     -2.087087     13.747666     13.747666     27.495331
     -2.077077     12.706025     12.706025     25.412049
     -2.067067     11.997154     11.997154     23.994308
     -2.057057     11.716125     11.716125     23.432250
     -2.047047     11.829467     11.829467     23.658935
     -2.037037     12.129363     12.129363     24.258727
     -2.027027     12.291636     12.291636     24.583272
     -2.017017     12.004931     12.004931     24.009862
     -2.007007     11.100681     11.100681     22.201361
     -1.996997      9.618461      9.618461     19.236922
     -1.986987      7.782349      7.782349     15.564698
     -1.976977      5.913029      5.913029     11.826058
     -1.966967      4.327908      4.327908      8.655816
     -1.956957      3.274520      3.274520      6.549040
     -1.946947      2.911571      2.911571      5.823141
     -1.936937      3.320593      3.320593      6.641187
     -1.926927      4.518726      4.518726      9.037452
     -1.916917      6.453576      6.453576     12.907153
     -1.906907      8.983508      8.983508     17.967016
     -1.896897     11.864305     11.864305     23.728610
     -1.886887     14.764625     14.764625     29.529249
     -1.876877     17.318297     17.318297     34.636594
     -1.866867     19.201878     19.201878     38.403756
     -1.856857     20.212920     20.212920     40.425841
     -1.846847     20.322955     20.322955     40.645911
     -1.836837     19.685761     19.685761     39.371522
     -1.826827     18.591974     18.591974     37.183947
     -1.816817     17.375823     17.375823     34.751646
     -1.806807     16.299915     16.299915     32.599830
     -1.796797     15.462271     15.462271     30.924542
     -1.786787     14.770747     14.770747     29.541494
     -1.776777     14.003286     14.003286     28.006572
     -1.766767     12.928150     12.928150     25.856300
     -1.756757     11.424053     11.424053     22.848106
     -1.746747      9.540923      9.540923     19.081845
     -1.736737      7.478361      7.478361     14.956722
     -1.726727      5.505695      5.505695     11.011390
     -1.716717      3.873759      3.873759      7.747518
     -1.706707      2.760777      2.760777      5.521553
     -1.696697      2.263721      2.263721      4.527442
     -1.686687      2.416112      2.416112      4.832224
     -1.676677      3.201880      3.201880      6.403759
     -1.666667      4.546500      4.546500      9.093000
     -1.656657      6.291197      6.291197     12.582394
     -1.646647      8.177277      8.177277     16.354555
     -1.636637      9.871352      9.871352     19.742703
     -1.626627     11.043462     11.043462     22.086924
