# EIG2DOS: Utility for SIESTA to obtain the electronic density of states
#  E. Artacho, Apr 1999, A. Garcia, Apr 2012
#  Nick R. Papior, Feb 2017
# ------------------------------------------
# Eigenvalues calculated from a non-polarized calculation
# Eigenvalues read from siesta.EIG
# Kpoint weights read from siesta.KP
# Using smearing parameter:   0.0500
# Using 1000 points in the energy range
# Selected bands: 1 to: 2981
# Emin, Emax in file for selected band(s):    -27.0380806    218.3224500
# Nbands, Nspin, Nk   =   2981     1     1
# E_F                 =    -4.2850 eV --> (shifted to ZERO)
# Broadening          =     0.0500 eV
#
#        E            N(up)  (=)   N(down)         Ntot
     -5.000000     43.283743     43.283743     86.567485
     -4.989990     44.972147     44.972147     89.944294
     -4.979980     45.946591     45.946591     91.893182
     -4.969970     46.094716     46.094716     92.189433
     -4.959960     45.303038     45.303038     90.606077
     -4.949950     43.538130     43.538130     87.076259
     -4.939940     40.917692     40.917692     81.835383
     -4.929930     37.743908     37.743908     75.487816
     -4.919920     34.495532     34.495532     68.991064
     -4.909910     31.786375     31.786375     63.572749
     -4.899900     30.289466     30.289466     60.578931
     -4.889890     30.613015     30.613015     61.226029
     -4.879880     33.122196     33.122196     66.244391
     -4.869870     37.741777     37.741777     75.483554
     -4.859860     43.827244     43.827244     87.654489
     -4.849850     50.208801     50.208801    100.417601
     -4.839840     55.457277     55.457277    110.914554
     -4.829830     58.307404     58.307404    116.614809
     -4.819820     58.069373     58.069373    116.138747
     -4.809810     54.840601     54.840601    109.681202
     -4.799800     49.421254     49.421254     98.842507
     -4.789790     42.986971     42.986971     85.973941
     -4.779780     36.685473     36.685473     73.370946
     -4.769770     31.333478     31.333478     62.666956
     -4.759760     27.305022     27.305022     54.610043
     -4.749750     24.591043     24.591043     49.182086
     -4.739740     22.943463     22.943463     45.886926
     -4.729730     22.017412     22.017412     44.034823
     -4.719720     21.466392     21.466392     42.932785
     -4.709710     20.987704     20.987704     41.975408
     -4.699700     20.338782     20.338782     40.677563
     -4.689690     19.349651     19.349651     38.699302
     -4.679680     17.948949     17.948949     35.897899
     -4.669670     16.205003     16.205003     32.410006
     -4.659660     14.364952     14.364952     28.729904
     -4.649650     12.863523     12.863523     25.727045
     -4.639640     12.276267     12.276267     24.552534
     -4.629630     13.208215     13.208215     26.416431
     -4.619620     16.130222     16.130222     32.260444
     -4.609610     21.197060     21.197060     42.394119
     -4.599600     28.102107     28.102107     56.204213
     -4.589590     36.036366     36.036366     72.072731
     -4.579580     43.807707     43.807707     87.615414
     -4.569570     50.125881     50.125881    100.251761
     -4.559560     53.980591     53.980591    107.961181
     -4.549550     54.974129     54.974129    109.948259
     -4.539540     53.463573     53.463573    106.927146
     -4.529530     50.437456     50.437456    100.874911
     -4.519520     47.167655     47.167655     94.335311
     -4.509510     44.777715     44.777715     89.555430
     -4.499499     43.900778     43.900778     87.801555
     -4.489489     44.550122     44.550122     89.100244
     -4.479479     46.223331     46.223331     92.446662
     -4.469469     48.161202     48.161202     96.322404
     -4.459459     49.631632     49.631632     99.263264
     -4.449449     50.124872     50.124872    100.249743
     -4.439439     49.413088     49.413088     98.826175
     -4.429429     47.503856     47.503856     95.007712
     -4.419419     44.561543     44.561543     89.123086
     -4.409409     40.860547     40.860547     81.721094
     -4.399399     36.782175     36.782175     73.564350
     -4.389389     32.813057     32.813057     65.626115
     -4.379379     29.489785     29.489785     58.979571
     -4.369369     27.273912     27.273912     54.547824
     -4.359359     26.403866     26.403866     52.807733
     -4.349349     26.805938     26.805938     53.611876
     -4.339339     28.125136     28.125136     56.250272
     -4.329329     29.871566     29.871566     59.743133
     -4.319319     31.613894     31.613894     63.227788
     -4.309309     33.129705     33.129705     66.259411
     -4.299299     34.451299     34.451299     68.902598
     -4.289289     35.799270     35.799270     71.598539
     -4.279279     37.440802     37.440802     74.881605
     -4.269269     39.528150     39.528150     79.056299
     -4.259259     41.971893     41.971893     83.943787
     -4.249249     44.396141     44.396141     88.792281
     -4.239239     46.208457     46.208457     92.416915
     -4.229229     46.783918     46.783918     93.567835
     -4.219219     45.708254     45.708254     91.416509
     -4.209209     42.976151     42.976151     85.952303
     -4.199199     39.039064     39.039064     78.078129
     -4.189189     34.661909     34.661909     69.323817
     -4.179179     30.648952     30.648952     61.297904
     -4.169169     27.571938     27.571938     55.143876
     -4.159159     25.628857     25.628857     51.257715
     -4.149149     24.684884     24.684884     49.369767
     -4.139139     24.449655     24.449655     48.899310
     -4.129129     24.683811     24.683811     49.367623
     -4.119119     25.326628     25.326628     50.653256
     -4.109109     26.484449     26.484449     52.968898
     -4.099099     28.289672     28.289672     56.579343
     -4.089089     30.705944     30.705944     61.411888
     -4.079079     33.391782     33.391782     66.783564
     -4.069069     35.719006     35.719006     71.438012
     -4.059059     36.968654     36.968654     73.937307
     -4.049049     36.625707     36.625707     73.251414
     -4.039039     34.625252     34.625252     69.250503
     -4.029029     31.417406     31.417406     62.834811
     -4.019019     27.815240     27.815240     55.630480
     -4.009009     24.708917     24.708917     49.417833
     -3.998999     22.793325     22.793325     45.586650
     -3.988989     22.428089     22.428089     44.856178
     -3.978979     23.655655     23.655655     47.311309
     -3.968969     26.313512     26.313512     52.627023
     -3.958959     30.147369     30.147369     60.294737
     -3.948949     34.870009     34.870009     69.740019
     -3.938939     40.174085     40.174085     80.348171
     -3.928929     45.742987     45.742987     91.485974
     -3.918919     51.288849     51.288849    102.577698
     -3.908909     56.601529     56.601529    113.203058
     -3.898899     61.561003     61.561003    123.122006
     -3.888889     66.078048     66.078048    132.156095
     -3.878879     69.978319     69.978319    139.956638
     -3.868869     72.897338     72.897338    145.794677
     -3.858859     74.269786     74.269786    148.539572
     -3.848849     73.459077     73.459077    146.918155
     -3.838839     69.998366     69.998366    139.996731
     -3.828829     63.842921     63.842921    127.685842
     -3.818819     55.509965     55.509965    111.019930
     -3.808809     46.024553     46.024553     92.049106
     -3.798799     36.678339     36.678339     73.356678
     -3.788789     28.692603     28.692603     57.385206
     -3.778779     22.912244     22.912244     45.824488
     -3.768769     19.631426     19.631426     39.262852
     -3.758759     18.588727     18.588727     37.177455
     -3.748749     19.108169     19.108169     38.216339
     -3.738739     20.327228     20.327228     40.654456
     -3.728729     21.445486     21.445486     42.890971
     -3.718719     21.935919     21.935919     43.871838
     -3.708709     21.673969     21.673969     43.347938
     -3.698699     20.954696     20.954696     41.909392
     -3.688689     20.388582     20.388582     40.777165
     -3.678679     20.694709     20.694709     41.389417
     -3.668669     22.443314     22.443314     44.886628
     -3.658659     25.827323     25.827323     51.654647
     -3.648649     30.547529     30.547529     61.095057
     -3.638639     35.865268     35.865268     71.730536
     -3.628629     40.812702     40.812702     81.625404
     -3.618619     44.481112     44.481112     88.962224
     -3.608609     46.271928     46.271928     92.543856
     -3.598599     46.018333     46.018333     92.036666
     -3.588589     43.954346     43.954346     87.908693
     -3.578579     40.578015     40.578015     81.156030
     -3.568569     36.483677     36.483677     72.967353
     -3.558559     32.219399     32.219399     64.438799
     -3.548549     28.189926     28.189926     56.379852
     -3.538539     24.605936     24.605936     49.211873
     -3.528529     21.482478     21.482478     42.964956
     -3.518519     18.692095     18.692095     37.384190
     -3.508509     16.063254     16.063254     32.126509
     -3.498498     13.489004     13.489004     26.978008
     -3.488488     10.998561     10.998561     21.997122
     -3.478478      8.760801      8.760801     17.521601
     -3.468468      7.023196      7.023196     14.046392
     -3.458458      6.017970      6.017970     12.035940
     -3.448448      5.873430      5.873430     11.746861
     -3.438438      6.557370      6.557370     13.114739
     -3.428428      7.866190      7.866190     15.732380
     -3.418418      9.465597      9.465597     18.931194
     -3.408408     10.980598     10.980598     21.961197
     -3.398398     12.116075     12.116075     24.232150
     -3.388388     12.768319     12.768319     25.536637
     -3.378378     13.079287     13.079287     26.158573
     -3.368368     13.402938     13.402938     26.805875
     -3.358358     14.191995     14.191995     28.383989
     -3.348348     15.849823     15.849823     31.699647
     -3.338338     18.601412     18.601412     37.202825
     -3.328328     22.416238     22.416238     44.832476
     -3.318318     26.985531     26.985531     53.971062
     -3.308308     31.744149     31.744149     63.488298
     -3.298298     35.938972     35.938972     71.877943
     -3.288288     38.758799     38.758799     77.517598
     -3.278278     39.525642     39.525642     79.051285
     -3.268268     37.901716     37.901716     75.803432
     -3.258258     34.025552     34.025552     68.051105
     -3.248248     28.498770     28.498770     56.997540
     -3.238238     22.211233     22.211233     44.422465
     -3.228228     16.076363     16.076363     32.152725
     -3.218218     10.791969     10.791969     21.583937
     -3.208208      6.717743      6.717743     13.435485
     -3.198198      3.891507      3.891507      7.783013
     -3.188188      2.141441      2.141441      4.282882
     -3.178178      1.226080      1.226080      2.452160
     -3.168168      0.948358      0.948358      1.896715
     -3.158158      1.220821      1.220821      2.441641
     -3.148148      2.082334      2.082334      4.164668
     -3.138138      3.673744      3.673744      7.347488
     -3.128128      6.178110      6.178110     12.356221
     -3.118118      9.732523      9.732523     19.465045
     -3.108108     14.329723     14.329723     28.659446
     -3.098098     19.743587     19.743587     39.487175
     -3.088088     25.518647     25.518647     51.037294
     -3.078078     31.046702     31.046702     62.093404
     -3.068068     35.713669     35.713669     71.427337
     -3.058058     39.057472     39.057472     78.114943
     -3.048048     40.863659     40.863659     81.727319
     -3.038038     41.157263     41.157263     82.314527
     -3.028028     40.112493     40.112493     80.224986
     -3.018018     37.953167     37.953167     75.906334
     -3.008008     34.916194     34.916194     69.832388
     -2.997998     31.295380     31.295380     62.590760
     -2.987988     27.514448     27.514448     55.028896
     -2.977978     24.149086     24.149086     48.298172
     -2.967968     21.849285     21.849285     43.698571
     -2.957958     21.179328     21.179328     42.358656
     -2.947948     22.444864     22.444864     44.889729
     -2.937938     25.582791     25.582791     51.165581
     -2.927928     30.154718     30.154718     60.309437
     -2.917918     35.438502     35.438502     70.877005
     -2.907908     40.582126     40.582126     81.164252
     -2.897898     44.777971     44.777971     89.555943
     -2.887888     47.422371     47.422371     94.844741
     -2.877878     48.231396     48.231396     96.462792
     -2.867868     47.285788     47.285788     94.571576
     -2.857858     44.984802     44.984802     89.969603
     -2.847848     41.910838     41.910838     83.821676
     -2.837838     38.641843     38.641843     77.283686
     -2.827828     35.578605     35.578605     71.157210
     -2.817818     32.856860     32.856860     65.713720
     -2.807808     30.380121     30.380121     60.760243
     -2.797798     27.951990     27.951990     55.903980
     -2.787788     25.436823     25.436823     50.873646
     -2.777778     22.864289     22.864289     45.728577
     -2.767768     20.426026     20.426026     40.852052
     -2.757758     18.374424     18.374424     36.748847
     -2.747748     16.889492     16.889492     33.778984
     -2.737738     15.996877     15.996877     31.993755
     -2.727728     15.586701     15.586701     31.173402
     -2.717718     15.517959     15.517959     31.035919
     -2.707708     15.736544     15.736544     31.473089
     -2.697698     16.323726     16.323726     32.647453
     -2.687688     17.436005     17.436005     34.872009
     -2.677678     19.170259     19.170259     38.340518
     -2.667668     21.442568     21.442568     42.885135
     -2.657658     23.966695     23.966695     47.933389
     -2.647648     26.357065     26.357065     52.714131
     -2.637638     28.299482     28.299482     56.598965
     -2.627628     29.686229     29.686229     59.372459
     -2.617618     30.634455     30.634455     61.268909
     -2.607608     31.383517     31.383517     62.767034
     -2.597598     32.143459     32.143459     64.286919
     -2.587588     32.987911     32.987911     65.975823
     -2.577578     33.839324     33.839324     67.678648
     -2.567568     34.524001     34.524001     69.048002
     -2.557558     34.837536     34.837536     69.675072
     -2.547548     34.582396     34.582396     69.164793
     -2.537538     33.589330     33.589330     67.178660
     -2.527528     31.759953     31.759953     63.519905
     -2.517518     29.143257     29.143257     58.286513
     -2.507508     26.008263     26.008263     52.016526
     -2.497497     22.848397     22.848397     45.696793
     -2.487487     20.279219     20.279219     40.558439
     -2.477477     18.853650     18.853650     37.707300
     -2.467467     18.873475     18.873475     37.746949
     -2.457457     20.286745     20.286745     40.573490
     -2.447447     22.722511     22.722511     45.445021
     -2.437437     25.649633     25.649633     51.299265
     -2.427427     28.587835     28.587835     57.175670
     -2.417417     31.273753     31.273753     62.547507
     -2.407407     33.704638     33.704638     67.409277
     -2.397397     36.039983     36.039983     72.079966
     -2.387387     38.410919     38.410919     76.821838
     -2.377377     40.735454     40.735454     81.470908
     -2.367367     42.639880     42.639880     85.279761
     -2.357357     43.539559     43.539559     87.079119
     -2.347347     42.856018     42.856018     85.712035
     -2.337337     40.277776     40.277776     80.555552
     -2.327327     35.945526     35.945526     71.891052
     -2.317317     30.474773     30.474773     60.949545
     -2.307307     24.805299     24.805299     49.610599
     -2.297297     19.944667     19.944667     39.889334
     -2.287287     16.710278     16.710278     33.420557
     -2.277277     15.557225     15.557225     31.114451
     -2.267267     16.527810     16.527810     33.055620
     -2.257257     19.308139     19.308139     38.616279
     -2.247247     23.349703     23.349703     46.699405
     -2.237237     28.009327     28.009327     56.018653
     -2.227227     32.668533     32.668533     65.337066
     -2.217217     36.806634     36.806634     73.613267
     -2.207207     40.021555     40.021555     80.043110
     -2.197197     42.016589     42.016589     84.033178
     -2.187187     42.588688     42.588688     85.177376
     -2.177177     41.649043     41.649043     83.298085
     -2.167167     39.275751     39.275751     78.551502
     -2.157157     35.759228     35.759228     71.518456
     -2.147147     31.584932     31.584932     63.169865
     -2.137137     27.325160     27.325160     54.650319
     -2.127127     23.470020     23.470020     46.940041
     -2.117117     20.276916     20.276916     40.553832
     -2.107107     17.718730     17.718730     35.437460
     -2.097097     15.558227     15.558227     31.116454
     -2.087087     13.504391     13.504391     27.008782
     -2.077077     11.364190     11.364190     22.728381
     -2.067067      9.116149      9.116149     18.232298
     -2.057057      6.885793      6.885793     13.771585
     -2.047047      4.858174      4.858174      9.716348
     -2.037037      3.185902      3.185902      6.371803
     -2.027027      1.936610      1.936610      3.873220
     -2.017017      1.090654      1.090654      2.181309
     -2.007007      0.572623      0.572623      1.145246
     -1.996997      0.291818      0.291818      0.583635
     -1.986987      0.174237      0.174237      0.348473
     -1.976977      0.180961      0.180961      0.361922
     -1.966967      0.316030      0.316030      0.632060
     -1.956957      0.627880      0.627880      1.255760
     -1.946947      1.204491      1.204491      2.408983
     -1.936937      2.158084      2.158084      4.316169
     -1.926927      3.595039      3.595039      7.190078
     -1.916917      5.572717      5.572717     11.145435
     -1.906907      8.054899      8.054899     16.109798
     -1.896897     10.885151     10.885151     21.770302
     -1.886887     13.795626     13.795626     27.591253
     -1.876877     16.455916     16.455916     32.911831
     -1.866867     18.549255     18.549255     37.098509
     -1.856857     19.851877     19.851877     39.703754
     -1.846847     20.290738     20.290738     40.581475
     -1.836837     19.962027     19.962027     39.924054
     -1.826827     19.101979     19.101979     38.203958
     -1.816817     18.012049     18.012049     36.024097
     -1.806807     16.956197     16.956197     33.912394
     -1.796797     16.066498     16.066498     32.132996
     -1.786787     15.301148     15.301148     30.602295
     -1.776777     14.482042     14.482042     28.964084
     -1.766767     13.399712     13.399712     26.799424
     -1.756757     11.935008     11.935008     23.870016
     -1.746747     10.137237     10.137237     20.274474
     -1.736737      8.225294      8.225294     16.450587
     -1.726727      6.522073      6.522073     13.044146
     -1.716717      5.362281      5.362281     10.724561
     -1.706707      5.013057      5.013057     10.026115
     -1.696697      5.624066      5.624066     11.248131
     -1.686687      7.201679      7.201679     14.403359
     -1.676677      9.597094      9.597094     19.194187
     -1.666667     12.508723     12.508723     25.017446
     -1.656657     15.510397     15.510397     31.020793
     -1.646647     18.115479     18.115479     36.230958
     -1.636637     19.872388     19.872388     39.744776
     -1.626627     20.469344     20.469344     40.938687
