# EIG2DOS: Utility for SIESTA to obtain the electronic density of states
#  E. Artacho, Apr 1999, A. Garcia, Apr 2012
#  Nick R. Papior, Feb 2017
# ------------------------------------------
# Eigenvalues calculated from a non-polarized calculation
# Eigenvalues read from siesta.EIG
# Kpoint weights read from siesta.KP
# Using smearing parameter:   0.0500
# Using 1000 points in the energy range
# Selected bands: 1 to: 2981
# Emin, Emax in file for selected band(s):    -27.2376000    218.3738810
# Nbands, Nspin, Nk   =   2981     1     1
# E_F                 =    -4.2232 eV --> (shifted to ZERO)
# Broadening          =     0.0500 eV
#
#        E            N(up)  (=)   N(down)         Ntot
     -5.000000     33.009397     33.009397     66.018793
     -4.989990     37.751603     37.751603     75.503206
     -4.979980     42.006446     42.006446     84.012891
     -4.969970     45.046319     45.046319     90.092638
     -4.959960     46.311656     46.311656     92.623311
     -4.949950     45.596294     45.596294     91.192588
     -4.939940     43.121084     43.121084     86.242167
     -4.929930     39.482510     39.482510     78.965019
     -4.919920     35.518404     35.518404     71.036808
     -4.909910     32.148504     32.148504     64.297008
     -4.899900     30.222075     30.222075     60.444149
     -4.889890     30.369997     30.369997     60.739995
     -4.879880     32.853087     32.853087     65.706173
     -4.869870     37.431913     37.431913     74.863827
     -4.859860     43.325500     43.325500     86.650999
     -4.849850     49.329478     49.329478     98.658956
     -4.839840     54.106113     54.106113    108.212226
     -4.829830     56.565484     56.565484    113.130968
     -4.819820     56.189742     56.189742    112.379483
     -4.809810     53.161484     53.161484    106.322968
     -4.799800     48.245090     48.245090     96.490181
     -4.789790     42.485972     42.485972     84.971945
     -4.779780     36.868729     36.868729     73.737459
     -4.769770     32.071530     32.071530     64.143059
     -4.759760     28.383881     28.383881     56.767762
     -4.749750     25.768994     25.768994     51.537989
     -4.739740     23.998935     23.998935     47.997870
     -4.729730     22.787384     22.787384     45.574769
     -4.719720     21.875645     21.875645     43.751291
     -4.709710     21.066423     21.066423     42.132846
     -4.699700     20.227951     20.227951     40.455902
     -4.689690     19.299730     19.299730     38.599459
     -4.679680     18.318941     18.318941     36.637882
     -4.669670     17.460028     17.460028     34.920056
     -4.659660     17.055357     17.055357     34.110714
     -4.649650     17.560743     17.560743     35.121485
     -4.639640     19.451501     19.451501     38.903003
     -4.629630     23.069375     23.069375     46.138749
     -4.619620     28.466995     28.466995     56.933990
     -4.609610     35.303324     35.303324     70.606648
     -4.599600     42.833867     42.833867     85.667734
     -4.589590     50.020252     50.020252    100.040504
     -4.579580     55.754720     55.754720    111.509440
     -4.569570     59.153703     59.153703    118.307406
     -4.559560     59.831299     59.831299    119.662598
     -4.549550     58.044733     58.044733    116.089465
     -4.539540     54.634667     54.634667    109.269333
     -4.529530     50.761273     50.761273    101.522547
     -4.519520     47.526621     47.526621     95.053241
     -4.509510     45.627160     45.627160     91.254321
     -4.499499     45.167776     45.167776     90.335553
     -4.489489     45.697745     45.697745     91.395489
     -4.479479     46.435387     46.435387     92.870774
     -4.469469     46.576379     46.576379     93.152758
     -4.459459     45.560689     45.560689     91.121377
     -4.449449     43.208548     43.208548     86.417096
     -4.439439     39.704665     39.704665     79.409330
     -4.429429     35.476583     35.476583     70.953166
     -4.419419     31.045882     31.045882     62.091763
     -4.409409     26.917435     26.917435     53.834871
     -4.399399     23.526169     23.526169     47.052339
     -4.389389     21.215655     21.215655     42.431309
     -4.379379     20.209637     20.209637     40.419275
     -4.369369     20.562888     20.562888     41.125775
     -4.359359     22.118077     22.118077     44.236155
     -4.349349     24.515071     24.515071     49.030141
     -4.339339     27.278948     27.278948     54.557895
     -4.329329     29.966093     29.966093     59.932186
     -4.319319     32.307499     32.307499     64.614998
     -4.309309     34.282724     34.282724     68.565447
     -4.299299     36.088634     36.088634     72.177269
     -4.289289     38.013292     38.013292     76.026585
     -4.279279     40.262824     40.262824     80.525648
     -4.269269     42.806642     42.806642     85.613284
     -4.259259     45.304755     45.304755     90.609510
     -4.249249     47.161325     47.161325     94.322650
     -4.239239     47.708164     47.708164     95.416328
     -4.229229     46.464300     46.464300     92.928600
     -4.219219     43.366761     43.366761     86.733523
     -4.209209     38.859367     38.859367     77.718734
     -4.199199     33.780924     33.780924     67.561849
     -4.189189     29.090819     29.090819     58.181638
     -4.179179     25.553585     25.553585     51.107171
     -4.169169     23.523303     23.523303     47.046606
     -4.159159     22.913367     22.913367     45.826734
     -4.149149     23.343081     23.343081     46.686162
     -4.139139     24.372653     24.372653     48.745305
     -4.129129     25.708283     25.708283     51.416567
     -4.119119     27.283853     27.283853     54.567706
     -4.109109     29.187971     29.187971     58.375941
     -4.099099     31.479977     31.479977     62.959954
     -4.089089     33.998118     33.998118     67.996236
     -4.079079     36.278614     36.278614     72.557228
     -4.069069     37.657145     37.657145     75.314289
     -4.059059     37.527000     37.527000     75.054000
     -4.049049     35.631713     35.631713     71.263426
     -4.039039     32.237215     32.237215     64.474430
     -4.029029     28.087564     28.087564     56.175129
     -4.019019     24.165240     24.165240     48.330480
     -4.009009     21.377512     21.377512     42.755025
     -3.998999     20.313888     20.313888     40.627775
     -3.988989     21.160795     21.160795     42.321590
     -3.978979     23.766095     23.766095     47.532189
     -3.968969     27.778630     27.778630     55.557260
     -3.958959     32.780064     32.780064     65.560128
     -3.948949     38.366621     38.366621     76.733243
     -3.938939     44.187170     44.187170     88.374340
     -3.928929     49.964219     49.964219     99.928439
     -3.918919     55.508384     55.508384    111.016769
     -3.908909     60.709296     60.709296    121.418592
     -3.898899     65.480195     65.480195    130.960390
     -3.888889     69.661568     69.661568    139.323135
     -3.878879     72.930786     72.930786    145.861572
     -3.868869     74.784125     74.784125    149.568250
     -3.858859     74.633448     74.633448    149.266897
     -3.848849     72.001888     72.001888    144.003776
     -3.838839     66.744546     66.744546    133.489093
     -3.828829     59.196072     59.196072    118.392143
     -3.818819     50.171412     50.171412    100.342824
     -3.808809     40.806433     40.806433     81.612867
     -3.798799     32.290451     32.290451     64.580901
     -3.788789     25.582110     25.582110     51.164220
     -3.778779     21.199089     21.199089     42.398177
     -3.768769     19.137856     19.137856     38.275711
     -3.758759     18.932990     18.932990     37.865980
     -3.748749     19.826199     19.826199     39.652398
     -3.738739     20.992977     20.992977     41.985954
     -3.728729     21.768996     21.768996     43.537992
     -3.718719     21.823534     21.823534     43.647068
     -3.708709     21.239292     21.239292     42.478584
     -3.698699     20.475862     20.475862     40.951724
     -3.688689     20.218635     20.218635     40.437269
     -3.678679     21.145687     21.145687     42.291375
     -3.668669     23.676505     23.676505     47.353010
     -3.658659     27.785740     27.785740     55.571480
     -3.648649     32.956734     32.956734     65.913467
     -3.638639     38.305083     38.305083     76.610166
     -3.628629     42.834009     42.834009     85.668018
     -3.618619     45.723684     45.723684     91.447369
     -3.608609     46.542310     46.542310     93.084620
     -3.598599     45.309358     45.309358     90.618715
     -3.588589     42.414900     42.414900     84.829800
     -3.578579     38.456582     38.456582     76.913164
     -3.568569     34.067075     34.067075     68.134150
     -3.558559     29.777807     29.777807     59.555615
     -3.548549     25.932907     25.932907     51.865815
     -3.538539     22.655134     22.655134     45.310268
     -3.528529     19.868334     19.868334     39.736668
     -3.518519     17.376872     17.376872     34.753744
     -3.508509     14.981499     14.981499     29.962997
     -3.498498     12.587782     12.587782     25.175565
     -3.488488     10.260784     10.260784     20.521568
     -3.478478      8.205076      8.205076     16.410152
     -3.468468      6.685365      6.685365     13.370731
     -3.458458      5.925589      5.925589     11.851178
     -3.448448      6.023757      6.023757     12.047514
     -3.438438      6.905826      6.905826     13.811653
     -3.428428      8.329354      8.329354     16.658709
     -3.418418      9.940348      9.940348     19.880697
     -3.408408     11.376703     11.376703     22.753406
     -3.398398     12.393012     12.393012     24.786024
     -3.388388     12.962520     12.962520     25.925041
     -3.378378     13.310042     13.310042     26.620084
     -3.368368     13.854572     13.854572     27.709144
     -3.358358     15.080875     15.080875     30.161750
     -3.348348     17.389513     17.389513     34.779026
     -3.338338     20.975066     20.975066     41.950131
     -3.328328     25.757111     25.757111     51.514222
     -3.318318     31.362429     31.362429     62.724858
     -3.308308     37.151751     37.151751     74.303503
     -3.298298     42.297497     42.297497     84.594994
     -3.288288     45.925260     45.925260     91.850520
     -3.278278     47.309895     47.309895     94.619790
     -3.268268     46.074839     46.074839     92.149678
     -3.258258     42.315692     42.315692     84.631383
     -3.248248     36.586695     36.586695     73.173390
     -3.238238     29.748088     29.748088     59.496177
     -3.228228     22.736421     22.736421     45.472843
     -3.218218     16.349167     16.349167     32.698335
     -3.208208     11.116397     11.116397     22.232794
     -3.198198      7.284059      7.284059     14.568118
     -3.188188      4.885484      4.885484      9.770968
     -3.178178      3.850868      3.850868      7.701736
     -3.168168      4.102813      4.102813      8.205625
     -3.158158      5.602415      5.602415     11.204829
     -3.148148      8.334963      8.334963     16.669925
     -3.138138     12.248520     12.248520     24.497040
     -3.128128     17.176056     17.176056     34.352112
     -3.118118     22.777796     22.777796     45.555592
     -3.108108     28.533884     28.533884     57.067767
     -3.098098     33.801147     33.801147     67.602294
     -3.088088     37.926930     37.926930     75.853860
     -3.078078     40.392274     40.392274     80.784548
     -3.068068     40.940591     40.940591     81.881182
     -3.058058     39.643076     39.643076     79.286152
     -3.048048     36.867236     36.867236     73.734472
     -3.038038     33.152361     33.152361     66.304722
     -3.028028     29.041521     29.041521     58.083041
     -3.018018     24.945862     24.945862     49.891725
     -3.008008     21.101564     21.101564     42.203128
     -2.997998     17.627698     17.627698     35.255396
     -2.987988     14.637167     14.637167     29.274334
     -2.977978     12.328697     12.328697     24.657394
     -2.967968     11.006852     11.006852     22.013704
     -2.957958     11.020082     11.020082     22.040165
     -2.947948     12.644529     12.644529     25.289058
     -2.937938     15.957977     15.957977     31.915953
     -2.927928     20.747535     20.747535     41.495071
     -2.917918     26.486295     26.486295     52.972591
     -2.907908     32.400638     32.400638     64.801276
     -2.897898     37.626385     37.626385     75.252770
     -2.887888     41.418130     41.418130     82.836260
     -2.877878     43.344476     43.344476     86.688952
     -2.867868     43.392899     43.392899     86.785798
     -2.857858     41.935149     41.935149     83.870297
     -2.847848     39.561300     39.561300     79.122599
     -2.837838     36.851405     36.851405     73.702810
     -2.827828     34.184958     34.184958     68.369916
     -2.817818     31.669969     31.669969     63.339937
     -2.807808     29.212233     29.212233     58.424467
     -2.797798     26.673561     26.673561     53.347122
     -2.787788     24.024895     24.024895     48.049790
     -2.777778     21.410328     21.410328     42.820655
     -2.767768     19.094305     19.094305     38.188610
     -2.757758     17.333809     17.333809     34.667618
     -2.747748     16.259193     16.259193     32.518387
     -2.737738     15.837206     15.837206     31.674412
     -2.727728     15.933763     15.933763     31.867526
     -2.717718     16.427275     16.427275     32.854550
     -2.707708     17.289133     17.289133     34.578265
     -2.697698     18.571017     18.571017     37.142033
     -2.687688     20.306012     20.306012     40.612023
     -2.677678     22.396906     22.396906     44.793812
     -2.667668     24.582000     24.582000     49.164000
     -2.657658     26.519790     26.519790     53.039579
     -2.647648     27.950134     27.950134     55.900267
     -2.637638     28.830451     28.830451     57.660902
     -2.627628     29.356056     29.356056     58.712113
     -2.617618     29.848495     29.848495     59.696990
     -2.607608     30.580914     30.580914     61.161828
     -2.597598     31.643554     31.643554     63.287107
     -2.587588     32.914312     32.914312     65.828623
     -2.577578     34.124219     34.124219     68.248437
     -2.567568     34.955877     34.955877     69.911754
     -2.557558     35.119062     35.119062     70.238124
     -2.547548     34.394084     34.394084     68.788169
     -2.537538     32.670762     32.670762     65.341523
     -2.527528     30.004587     30.004587     60.009174
     -2.517518     26.672176     26.672176     53.344353
     -2.507508     23.176831     23.176831     46.353662
     -2.497497     20.164840     20.164840     40.329679
     -2.487487     18.260080     18.260080     36.520160
     -2.477477     17.875233     17.875233     35.750465
     -2.467467     19.079040     19.079040     38.158081
     -2.457457     21.579539     21.579539     43.159077
     -2.447447     24.835028     24.835028     49.670056
     -2.437437     28.250413     28.250413     56.500827
     -2.427427     31.378598     31.378598     62.757196
     -2.417417     34.041069     34.041069     68.082138
     -2.407407     36.313806     36.313806     72.627613
     -2.397397     38.384230     38.384230     76.768460
     -2.387387     40.347530     40.347530     80.695060
     -2.377377     42.046709     42.046709     84.093419
     -2.367367     43.048374     43.048374     86.096747
     -2.357357     42.784825     42.784825     85.569649
     -2.347347     40.807786     40.807786     81.615572
     -2.337337     37.034696     37.034696     74.069392
     -2.327327     31.865095     31.865095     63.730189
     -2.317317     26.108813     26.108813     52.217626
     -2.307307     20.762314     20.762314     41.524627
     -2.297297     16.737131     16.737131     33.474262
     -2.287287     14.648620     14.648620     29.297240
     -2.277277     14.723367     14.723367     29.446734
     -2.267267     16.820538     16.820538     33.641076
     -2.257257     20.523572     20.523572     41.047144
     -2.247247     25.253879     25.253879     50.507758
     -2.237237     30.373814     30.373814     60.747628
     -2.227227     35.264463     35.264463     70.528925
     -2.217217     39.376856     39.376856     78.753711
     -2.207207     42.264189     42.264189     84.528378
     -2.197197     43.608627     43.608627     87.217254
     -2.187187     43.255467     43.255467     86.510934
     -2.177177     41.254862     41.254862     82.509724
     -2.167167     37.889896     37.889896     75.779792
     -2.157157     33.654953     33.654953     67.309906
     -2.147147     29.158681     29.158681     58.317363
     -2.137137     24.965112     24.965112     49.930224
     -2.127127     21.432703     21.432703     42.865406
     -2.117117     18.628554     18.628554     37.257107
     -2.107107     16.363677     16.363677     32.727354
     -2.097097     14.330632     14.330632     28.661264
     -2.087087     12.269549     12.269549     24.539099
     -2.077077     10.079405     10.079405     20.158810
     -2.067067      7.831326      7.831326     15.662652
     -2.057057      5.699208      5.699208     11.398416
     -2.047047      3.861363      3.861363      7.722726
     -2.037037      2.426976      2.426976      4.853951
     -2.027027      1.412722      1.412722      2.825444
     -2.017017      0.762697      0.762697      1.525394
     -2.007007      0.387879      0.387879      0.775758
     -1.996997      0.203161      0.203161      0.406323
     -1.986987      0.151833      0.151833      0.303666
     -1.976977      0.218524      0.218524      0.437048
     -1.966967      0.436163      0.436163      0.872326
     -1.956957      0.890263      0.890263      1.780527
     -1.946947      1.718082      1.718082      3.436165
     -1.936937      3.095016      3.095016      6.190032
     -1.926927      5.199880      5.199880     10.399760
     -1.916917      8.156834      8.156834     16.313667
     -1.906907     11.963864     11.963864     23.927728
     -1.896897     16.431070     16.431070     32.862141
     -1.886887     21.159031     21.159031     42.318063
     -1.876877     25.581997     25.581997     51.163993
     -1.866867     29.081055     29.081055     58.162109
     -1.856857     31.143685     31.143685     62.287370
     -1.846847     31.518881     31.518881     63.037761
     -1.836837     30.305233     30.305233     60.610465
     -1.826827     27.924852     27.924852     55.849704
     -1.816817     24.979844     24.979844     49.959688
     -1.806807     22.043678     22.043678     44.087355
     -1.796797     19.476860     19.476860     38.953720
     -1.786787     17.348743     17.348743     34.697486
     -1.776777     15.493845     15.493845     30.987690
     -1.766767     13.661411     13.661411     27.322821
     -1.756757     11.673316     11.673316     23.346632
     -1.746747      9.513079      9.513079     19.026158
     -1.736737      7.318312      7.318312     14.636623
     -1.726727      5.305012      5.305012     10.610024
     -1.716717      3.680140      3.680140      7.360281
     -1.706707      2.588250      2.588250      5.176500
     -1.696697      2.103931      2.103931      4.207862
     -1.686687      2.250259      2.250259      4.500518
     -1.676677      3.012316      3.012316      6.024632
     -1.666667      4.326586      4.326586      8.653173
     -1.656657      6.051404      6.051404     12.102808
     -1.646647      7.945169      7.945169     15.890339
     -1.636637      9.684022      9.684022     19.368044
     -1.626627     10.933685     10.933685     21.867370
