# EIG2DOS: Utility for SIESTA to obtain the electronic density of states
#  E. Artacho, Apr 1999, A. Garcia, Apr 2012
#  Nick R. Papior, Feb 2017
# ------------------------------------------
# Eigenvalues calculated from a non-polarized calculation
# Eigenvalues read from siesta.EIG
# Kpoint weights read from siesta.KP
# Using smearing parameter:   0.0500
# Using 1000 points in the energy range
# Selected bands: 1 to: 2981
# Emin, Emax in file for selected band(s):    -27.0244135    218.3108590
# Nbands, Nspin, Nk   =   2981     1     1
# E_F                 =    -4.3010 eV --> (shifted to ZERO)
# Broadening          =     0.0500 eV
#
#        E            N(up)  (=)   N(down)         Ntot
     -5.000000     42.932435     42.932435     85.864870
     -4.989990     47.689406     47.689406     95.378811
     -4.979980     51.186747     51.186747    102.373494
     -4.969970     52.922553     52.922553    105.845106
     -4.959960     52.656422     52.656422    105.312845
     -4.949950     50.486734     50.486734    100.973468
     -4.939940     46.835924     46.835924     93.671847
     -4.929930     42.362192     42.362192     84.724384
     -4.919920     37.845335     37.845335     75.690671
     -4.909910     34.087647     34.087647     68.175294
     -4.899900     31.834389     31.834389     63.668778
     -4.889890     31.681973     31.681973     63.363947
     -4.879880     33.941026     33.941026     67.882051
     -4.869870     38.468826     38.468826     76.937653
     -4.859860     44.553025     44.553025     89.106050
     -4.849850     50.958506     50.958506    101.917012
     -4.839840     56.197763     56.197763    112.395527
     -4.829830     58.965008     58.965008    117.930016
     -4.819820     58.559475     58.559475    117.118951
     -4.809810     55.099895     55.099895    110.199790
     -4.799800     49.428966     49.428966     98.857931
     -4.789790     42.766748     42.766748     85.533497
     -4.779780     36.291007     36.291007     72.582013
     -4.769770     30.828999     30.828999     61.657997
     -4.759760     26.751107     26.751107     53.502214
     -4.749750     24.039051     24.039051     48.078102
     -4.739740     22.435262     22.435262     44.870524
     -4.729730     21.585661     21.585661     43.171321
     -4.719720     21.133506     21.133506     42.267012
     -4.709710     20.764710     20.764710     41.529420
     -4.699700     20.225578     20.225578     40.451156
     -4.689690     19.336364     19.336364     38.672728
     -4.679680     18.016767     18.016767     36.033534
     -4.669670     16.325655     16.325655     32.651310
     -4.659660     14.500115     14.500115     29.000230
     -4.649650     12.966841     12.966841     25.933682
     -4.639640     12.300161     12.300161     24.600323
     -4.629630     13.115478     13.115478     26.230956
     -4.619620     15.907669     15.907669     31.815337
     -4.609610     20.866152     20.866152     41.732304
     -4.599600     27.720430     27.720430     55.440861
     -4.589590     35.685392     35.685392     71.370783
     -4.579580     43.567155     43.567155     87.134311
     -4.569570     50.041997     50.041997    100.083993
     -4.559560     54.040955     54.040955    108.081910
     -4.549550     55.101250     55.101250    110.202500
     -4.539540     53.532411     53.532411    107.064822
     -4.529530     50.311527     50.311527    100.623054
     -4.519520     46.739746     46.739746     93.479491
     -4.509510     43.998206     43.998206     87.996412
     -4.499499     42.779680     42.779680     85.559360
     -4.489489     43.126951     43.126951     86.253902
     -4.479479     44.511159     44.511159     89.022318
     -4.469469     46.086262     46.086262     92.172523
     -4.459459     47.002902     47.002902     94.005804
     -4.449449     46.669485     46.669485     93.338970
     -4.439439     44.893344     44.893344     89.786688
     -4.429429     41.890041     41.890041     83.780083
     -4.419419     38.188912     38.188912     76.377825
     -4.409409     34.478635     34.478635     68.957270
     -4.399399     31.434188     31.434188     62.868377
     -4.389389     29.558815     29.558815     59.117631
     -4.379379     29.070393     29.070393     58.140787
     -4.369369     29.859010     29.859010     59.718019
     -4.359359     31.532395     31.532395     63.064789
     -4.349349     33.542325     33.542325     67.084650
     -4.339339     35.354882     35.354882     70.709764
     -4.329329     36.607308     36.607308     73.214616
     -4.319319     37.198384     37.198384     74.396769
     -4.309309     37.287505     37.287505     74.575010
     -4.299299     37.214216     37.214216     74.428432
     -4.289289     37.374597     37.374597     74.749194
     -4.279279     38.093047     38.093047     76.186095
     -4.269269     39.514835     39.514835     79.029670
     -4.259259     41.534078     41.534078     83.068157
     -4.249249     43.774975     43.774975     87.549951
     -4.239239     45.651992     45.651992     91.303984
     -4.229229     46.523482     46.523482     93.046964
     -4.219219     45.910042     45.910042     91.820083
     -4.209209     43.694369     43.694369     87.388739
     -4.199199     40.199319     40.199319     80.398638
     -4.189189     36.086938     36.086938     72.173876
     -4.179179     32.115570     32.115570     64.231140
     -4.169169     28.873395     28.873395     57.746790
     -4.159159     26.618329     26.618329     53.236658
     -4.149149     25.289415     25.289415     50.578829
     -4.139139     24.659449     24.659449     49.318897
     -4.129129     24.530804     24.530804     49.061609
     -4.119119     24.866380     24.866380     49.732761
     -4.109109     25.788882     25.788882     51.577765
     -4.099099     27.449380     27.449380     54.898761
     -4.089089     29.833946     29.833946     59.667892
     -4.079079     32.618940     32.618940     65.237880
     -4.069069     35.175955     35.175955     70.351909
     -4.059059     36.757621     36.757621     73.515243
     -4.049049     36.792978     36.792978     73.585957
     -4.039039     35.146210     35.146210     70.292420
     -4.029029     32.200299     32.200299     64.400598
     -4.019019     28.721126     28.721126     57.442252
     -4.009009     25.579584     25.579584     51.159168
     -3.998999     23.479098     23.479098     46.958195
     -3.988989     22.811079     22.811079     45.622157
     -3.978979     23.666859     23.666859     47.333719
     -3.968969     25.942114     25.942114     51.884228
     -3.958959     29.439469     29.439469     58.878938
     -3.948949     33.914971     33.914971     67.829943
     -3.938939     39.080658     39.080658     78.161316
     -3.928929     44.612323     44.612323     89.224646
     -3.918919     50.194183     50.194183    100.388367
     -3.908909     55.582537     55.582537    111.165075
     -3.898899     60.634950     60.634950    121.269900
     -3.888889     65.262019     65.262019    130.524039
     -3.878879     69.310583     69.310583    138.621166
     -3.868869     72.444809     72.444809    144.889619
     -3.858859     74.114407     74.114407    148.228813
     -3.848849     73.666748     73.666748    147.333496
     -3.838839     70.584353     70.584353    141.168705
     -3.828829     64.751150     64.751150    129.502299
     -3.818819     56.617576     56.617576    113.235151
     -3.808809     47.170872     47.170872     94.341744
     -3.798799     37.706177     37.706177     75.412353
     -3.788789     29.485734     29.485734     58.971467
     -3.778779     23.417064     23.417064     46.834128
     -3.768769     19.859156     19.859156     39.718312
     -3.758759     18.601795     18.601795     37.203590
     -3.748749     18.997659     18.997659     37.995319
     -3.738739     20.187990     20.187990     40.375981
     -3.728729     21.353847     21.353847     42.707693
     -3.718719     21.933578     21.933578     43.867156
     -3.708709     21.760785     21.760785     43.521571
     -3.698699     21.091949     21.091949     42.183898
     -3.688689     20.512337     20.512337     41.024675
     -3.678679     20.736296     20.736296     41.472592
     -3.668669     22.351432     22.351432     44.702863
     -3.658659     25.585103     25.585103     51.170206
     -3.648649     30.179026     30.179026     60.358053
     -3.638639     35.429317     35.429317     70.858634
     -3.628629     40.386740     40.386740     80.773480
     -3.618619     44.141246     44.141246     88.282492
     -3.608609     46.076091     46.076091     92.152182
     -3.598599     45.996797     45.996797     91.993593
     -3.588589     44.107958     44.107958     88.215916
     -3.578579     40.882001     40.882001     81.764001
     -3.568569     36.894745     36.894745     73.789490
     -3.558559     32.684965     32.684965     65.369930
     -3.548549     28.658555     28.658555     57.317110
     -3.538539     25.037074     25.037074     50.074148
     -3.528529     21.852562     21.852562     43.705123
     -3.518519     18.994875     18.994875     37.989750
     -3.508509     16.304705     16.304705     32.609410
     -3.498498     13.679757     13.679757     27.359515
     -3.488488     11.147587     11.147587     22.295174
     -3.478478      8.872645      8.872645     17.745291
     -3.468468      7.098781      7.098781     14.197562
     -3.458458      6.057341      6.057341     12.114681
     -3.448448      5.878541      5.878541     11.757082
     -3.438438      6.533611      6.533611     13.067222
     -3.428428      7.822064      7.822064     15.644128
     -3.418418      9.410489      9.410489     18.820979
     -3.408408     10.921149     10.921149     21.842297
     -3.398398     12.052393     12.052393     24.104786
     -3.388388     12.691878     12.691878     25.383757
     -3.378378     12.974084     12.974084     25.948167
     -3.368368     13.250144     13.250144     26.500289
     -3.358358     13.976487     13.976487     27.952974
     -3.348348     15.565905     15.565905     31.131810
     -3.338338     18.255765     18.255765     36.511529
     -3.328328     22.028146     22.028146     44.056292
     -3.318318     26.585983     26.585983     53.171965
     -3.308308     31.374826     31.374826     62.749651
     -3.298298     35.649781     35.649781     71.299563
     -3.288288     38.600992     38.600992     77.201985
     -3.278278     39.539298     39.539298     79.078596
     -3.268268     38.101068     38.101068     76.202136
     -3.258258     34.389572     34.389572     68.779144
     -3.248248     28.973547     28.973547     57.947095
     -3.238238     22.724759     22.724759     45.449517
     -3.228228     16.559302     16.559302     33.118604
     -3.218218     11.194978     11.194978     22.389955
     -3.208208      7.018601      7.018601     14.037202
     -3.198198      4.091203      4.091203      8.182406
     -3.188188      2.253214      2.253214      4.506427
     -3.178178      1.262825      1.262825      2.525649
     -3.168168      0.912353      0.912353      1.824707
     -3.158158      1.097655      1.097655      2.195311
     -3.148148      1.839889      1.839889      3.679779
     -3.138138      3.267132      3.267132      6.534263
     -3.128128      5.561098      5.561098     11.122195
     -3.118118      8.873918      8.873918     17.747835
     -3.108108     13.229561     13.229561     26.459121
     -3.098098     18.441238     18.441238     36.882475
     -3.088088     24.086585     24.086585     48.173170
     -3.078078     29.571103     29.571103     59.142207
     -3.068068     34.272781     34.272781     68.545563
     -3.058058     37.713062     37.713062     75.426124
     -3.048048     39.673202     39.673202     79.346404
     -3.038038     40.196989     40.196989     80.393978
     -3.028028     39.486468     39.486468     78.972935
     -3.018018     37.766075     37.766075     75.532150
     -3.008008     35.211041     35.211041     70.422083
     -2.997998     31.987815     31.987815     63.975630
     -2.987988     28.369707     28.369707     56.739414
     -2.977978     24.831811     24.831811     49.663622
     -2.967968     22.037729     22.037729     44.075459
     -2.957958     20.697054     20.697054     41.394108
     -2.947948     21.348113     21.348113     42.696226
     -2.937938     24.158917     24.158917     48.317835
     -2.927928     28.827665     28.827665     57.655329
     -2.917918     34.620567     34.620567     69.241134
     -2.907908     40.535533     40.535533     81.071066
     -2.897898     45.542387     45.542387     91.084773
     -2.887888     48.830149     48.830149     97.660298
     -2.877878     49.990838     49.990838     99.981676
     -2.867868     49.087242     49.087242     98.174484
     -2.857858     46.586023     46.586023     93.172046
     -2.847848     43.179348     43.179348     86.358695
     -2.837838     39.555808     39.555808     79.111616
     -2.827828     36.200690     36.200690     72.401381
     -2.817818     33.296152     33.296152     66.592303
     -2.807808     30.752614     30.752614     61.505227
     -2.797798     28.346977     28.346977     56.693954
     -2.787788     25.895823     25.895823     51.791647
     -2.777778     23.377570     23.377570     46.755140
     -2.767768     20.946775     20.946775     41.893549
     -2.757758     18.843424     18.843424     37.686848
     -2.747748     17.258305     17.258305     34.516609
     -2.737738     16.238750     16.238750     32.477501
     -2.727728     15.692010     15.692010     31.384021
     -2.717718     15.480636     15.480636     30.961272
     -2.707708     15.543791     15.543791     31.087582
     -2.697698     15.959273     15.959273     31.918546
     -2.687688     16.897842     16.897842     33.795684
     -2.677678     18.492665     18.492665     36.985329
     -2.667668     20.706559     20.706559     41.413118
     -2.657658     23.287518     23.287518     46.575035
     -2.647648     25.850341     25.850341     51.700682
     -2.637638     28.041356     28.041356     56.082713
     -2.627628     29.687857     29.687857     59.375714
     -2.617618     30.843345     30.843345     61.686691
     -2.607608     31.708804     31.708804     63.417608
     -2.597598     32.489923     32.489923     64.979847
     -2.587588     33.282683     33.282683     66.565365
     -2.577578     34.044261     34.044261     68.088522
     -2.567568     34.636817     34.636817     69.273634
     -2.557558     34.887685     34.887685     69.775371
     -2.547548     34.623485     34.623485     69.246969
     -2.537538     33.685313     33.685313     67.370625
     -2.527528     31.963924     31.963924     63.927847
     -2.517518     29.474437     29.474437     58.948874
     -2.507508     26.438071     26.438071     52.876141
     -2.497497     23.304410     23.304410     46.608820
     -2.487487     20.666988     20.666988     41.333976
     -2.477477     19.086874     19.086874     38.173748
     -2.467467     18.899237     18.899237     37.798473
     -2.457457     20.095888     20.095888     40.191777
     -2.447447     22.342957     22.342957     44.685913
     -2.437437     25.128076     25.128076     50.256151
     -2.427427     27.969720     27.969720     55.939440
     -2.417417     30.591490     30.591490     61.182980
     -2.407407     32.979764     32.979764     65.959528
     -2.397397     35.297861     35.297861     70.595721
     -2.387387     37.699346     37.699346     75.398692
     -2.377377     40.134890     40.134890     80.269779
     -2.367367     42.255468     42.255468     84.510935
     -2.357357     43.473557     43.473557     86.947113
     -2.347347     43.170023     43.170023     86.340045
     -2.337337     40.961424     40.961424     81.922848
     -2.327327     36.907330     36.907330     73.814660
     -2.317317     31.561106     31.561106     63.122212
     -2.307307     25.840236     25.840236     51.680472
     -2.297297     20.774215     20.774215     41.548430
     -2.287287     17.234318     17.234318     34.468636
     -2.277277     15.740261     15.740261     31.480521
     -2.267267     16.389932     16.389932     32.779864
     -2.257257     18.904889     18.904889     37.809778
     -2.247247     22.751510     22.751510     45.503021
     -2.237237     27.288607     27.288607     54.577214
     -2.227227     31.897202     31.897202     63.794404
     -2.217217     36.060742     36.060742     72.121484
     -2.207207     39.385289     39.385289     78.770577
     -2.197197     41.577588     41.577588     83.155176
     -2.187187     42.421511     42.421511     84.843023
     -2.177177     41.791688     41.791688     83.583376
     -2.167167     39.710719     39.710719     79.421438
     -2.157157     36.411141     36.411141     72.822282
     -2.147147     32.339848     32.339848     64.679695
     -2.137137     28.065669     28.065669     56.131338
     -2.127127     24.111308     24.111308     48.222616
     -2.117117     20.787692     20.787692     41.575384
     -2.107107     18.118579     18.118579     36.237159
     -2.097097     15.895062     15.895062     31.790123
     -2.087087     13.825182     13.825182     27.650365
     -2.077077     11.693617     11.693617     23.387234
     -2.067067      9.451196      9.451196     18.902391
     -2.057057      7.204688      7.204688     14.409377
     -2.047047      5.135399      5.135399     10.270798
     -2.037037      3.404430      3.404430      6.808859
     -2.027027      2.092738      2.092738      4.185475
     -2.017017      1.191930      1.191930      2.383860
     -2.007007      0.632381      0.632381      1.264763
     -1.996997      0.323891      0.323891      0.647782
     -1.986987      0.189738      0.189738      0.379476
     -1.976977      0.187254      0.187254      0.374509
     -1.966967      0.317054      0.317054      0.634109
     -1.956957      0.624888      0.624888      1.249776
     -1.946947      1.196619      1.196619      2.393238
     -1.936937      2.142582      2.142582      4.285165
     -1.926927      3.567337      3.567337      7.134673
     -1.916917      5.526709      5.526709     11.053418
     -1.906907      7.983979      7.983979     15.967959
     -1.896897     10.784400     10.784400     21.568800
     -1.886887     13.665041     13.665041     27.330082
     -1.876877     16.303699     16.303699     32.607397
     -1.866867     18.393359     18.393359     36.786718
     -1.856857     19.717979     19.717979     39.435958
     -1.846847     20.206108     20.206108     40.412216
     -1.836837     19.946997     19.946997     39.893994
     -1.826827     19.162553     19.162553     38.325106
     -1.816817     18.137216     18.137216     36.274432
     -1.806807     17.121355     17.121355     34.242709
     -1.796797     16.241249     16.241249     32.482499
     -1.786787     15.457573     15.457573     30.915146
     -1.776777     14.599366     14.599366     29.198732
     -1.766767     13.462765     13.462765     26.925530
     -1.756757     11.925686     11.925686     23.851372
     -1.746747     10.019552     10.019552     20.039104
     -1.736737      7.926122      7.926122     15.852244
     -1.726727      5.912782      5.912782     11.825565
     -1.716717      4.251608      4.251608      8.503216
     -1.706707      3.166484      3.166484      6.332968
     -1.696697      2.823736      2.823736      5.647472
     -1.686687      3.347305      3.347305      6.694610
     -1.676677      4.822029      4.822029      9.644059
     -1.666667      7.258030      7.258030     14.516060
     -1.656657     10.520384     10.520384     21.040769
     -1.646647     14.264020     14.264020     28.528040
     -1.636637     17.931211     17.931211     35.862422
     -1.626627     20.851105     20.851105     41.702210
