# EIG2DOS: Utility for SIESTA to obtain the electronic density of states
#  E. Artacho, Apr 1999, A. Garcia, Apr 2012
#  Nick R. Papior, Feb 2017
# ------------------------------------------
# Eigenvalues calculated from a non-polarized calculation
# Eigenvalues read from siesta.EIG
# Kpoint weights read from siesta.KP
# Using smearing parameter:   0.0500
# Using 1000 points in the energy range
# Selected bands: 1 to: 2981
# Emin, Emax in file for selected band(s):    -27.0559530    218.3330930
# Nbands, Nspin, Nk   =   2981     1     1
# E_F                 =    -4.2740 eV --> (shifted to ZERO)
# Broadening          =     0.0500 eV
#
#        E            N(up)  (=)   N(down)         Ntot
     -5.000000     37.122019     37.122019     74.244037
     -4.989990     39.535212     39.535212     79.070423
     -4.979980     41.719949     41.719949     83.439898
     -4.969970     43.200049     43.200049     86.400097
     -4.959960     43.586740     43.586740     87.173481
     -4.949950     42.703084     42.703084     85.406168
     -4.939940     40.642127     40.642127     81.284254
     -4.929930     37.757295     37.757295     75.514591
     -4.919920     34.608044     34.608044     69.216089
     -4.909910     31.884786     31.884786     63.769573
     -4.899900     30.317180     30.317180     60.634360
     -4.889890     30.548900     30.548900     61.097801
     -4.879880     32.966473     32.966473     65.932946
     -4.869870     37.510462     37.510462     75.020924
     -4.859860     43.551505     43.551505     87.103011
     -4.849850     49.933361     49.933361     99.866723
     -4.839840     55.233372     55.233372    110.466744
     -4.829830     58.180109     58.180109    116.360219
     -4.819820     58.063902     58.063902    116.127803
     -4.809810     54.954223     54.954223    109.908445
     -4.799800     49.625233     49.625233     99.250467
     -4.789790     43.237664     43.237664     86.475328
     -4.779780     36.939057     36.939057     73.878115
     -4.769770     31.557684     31.557684     63.115369
     -4.759760     27.483916     27.483916     54.967832
     -4.749750     24.723077     24.723077     49.446154
     -4.739740     23.035869     23.035869     46.071738
     -4.729730     22.080413     22.080413     44.160826
     -4.719720     21.509317     21.509317     43.018635
     -4.709710     21.017423     21.017423     42.034845
     -4.699700     20.359905     20.359905     40.719811
     -4.689690     19.365755     19.365755     38.731511
     -4.679680     17.964207     17.964207     35.928415
     -4.669670     16.225683     16.225683     32.451365
     -4.659660     14.400057     14.400057     28.800113
     -4.649650     12.923689     12.923689     25.847377
     -4.639640     12.370223     12.370223     24.740445
     -4.629630     13.337016     13.337016     26.674031
     -4.619620     16.281163     16.281163     32.562327
     -4.609610     21.340846     21.340846     42.681693
     -4.599600     28.197068     28.197068     56.394137
     -4.589590     36.041063     36.041063     72.082126
     -4.579580     43.698574     43.698574     87.397148
     -4.569570     49.912361     49.912361     99.824721
     -4.559560     53.710044     53.710044    107.420087
     -4.549550     54.723990     54.723990    109.447980
     -4.539540     53.326147     53.326147    106.652295
     -4.529530     50.507980     50.507980    101.015961
     -4.519520     47.544387     47.544387     95.088775
     -4.509510     45.573698     45.573698     91.147396
     -4.499499     45.255005     45.255005     90.510011
     -4.489489     46.618062     46.618062     93.236123
     -4.479479     49.129858     49.129858     98.259716
     -4.469469     51.916192     51.916192    103.832384
     -4.459459     54.035773     54.035773    108.071546
     -4.449449     54.717030     54.717030    109.434061
     -4.439439     53.511481     53.511481    107.022963
     -4.429429     50.359262     50.359262    100.718524
     -4.419419     45.581857     45.581857     91.163713
     -4.409409     39.815498     39.815498     79.630996
     -4.399399     33.891810     33.891810     67.783619
     -4.389389     28.674670     28.674670     57.349339
     -4.379379     24.877405     24.877405     49.754811
     -4.369369     22.903338     22.903338     45.806676
     -4.359359     22.760561     22.760561     45.521122
     -4.349349     24.087215     24.087215     48.174429
     -4.339339     26.286883     26.286883     52.573767
     -4.329329     28.729907     28.729907     57.459813
     -4.319319     30.947943     30.947943     61.895886
     -4.309309     32.752434     32.752434     65.504868
     -4.299299     34.240891     34.240891     68.481783
     -4.289289     35.699081     35.699081     71.398162
     -4.279279     37.440082     37.440082     74.880163
     -4.269269     39.634071     39.634071     79.268142
     -4.259259     42.181982     42.181982     84.363964
     -4.249249     44.679969     44.679969     89.359938
     -4.239239     46.505609     46.505609     93.011218
     -4.229229     47.019294     47.019294     94.038588
     -4.219219     45.817491     45.817491     91.634983
     -4.209209     42.928371     42.928371     85.856742
     -4.199199     38.845719     38.845719     77.691438
     -4.189189     34.368493     34.368493     68.736986
     -4.179179     30.315590     30.315590     60.631179
     -4.169169     27.253399     27.253399     54.506798
     -4.159159     25.362367     25.362367     50.724735
     -4.149149     24.487861     24.487861     48.975722
     -4.139139     24.323998     24.323998     48.647997
     -4.129129     24.621568     24.621568     49.243136
     -4.119119     25.313777     25.313777     50.627555
     -4.109109     26.502723     26.502723     53.005446
     -4.099099     28.318341     28.318341     56.636681
     -4.089089     30.725177     30.725177     61.450353
     -4.079079     33.387228     33.387228     66.774455
     -4.069069     35.685375     35.685375     71.370751
     -4.059059     36.909919     36.909919     73.819839
     -4.049049     36.551455     36.551455     73.102910
     -4.039039     34.545327     34.545327     69.090653
     -4.029029     31.338289     31.338289     62.676578
     -4.019019     27.740374     27.740374     55.480747
     -4.009009     24.642231     24.642231     49.284462
     -3.998999     22.742775     22.742775     45.485550
     -3.988989     22.405993     22.405993     44.811987
     -3.978979     23.675020     23.675020     47.350040
     -3.968969     26.382515     26.382515     52.765030
     -3.958959     30.265490     30.265490     60.530980
     -3.948949     35.028182     35.028182     70.056364
     -3.938939     40.358652     40.358652     80.717304
     -3.928929     45.941051     45.941051     91.882102
     -3.918919     51.491995     51.491995    102.983989
     -3.908909     56.805940     56.805940    113.611880
     -3.898899     61.763983     61.763983    123.527966
     -3.888889     66.272958     66.272958    132.545916
     -3.878879     70.151098     70.151098    140.302196
     -3.868869     73.027353     73.027353    146.054707
     -3.858859     74.335590     74.335590    148.671180
     -3.848849     73.446683     73.446683    146.893366
     -3.838839     69.907787     69.907787    139.815574
     -3.828829     63.689403     63.689403    127.378806
     -3.818819     55.319218     55.319218    110.638436
     -3.808809     45.824552     45.824552     91.649105
     -3.798799     36.491686     36.491686     72.983372
     -3.788789     28.532497     28.532497     57.064994
     -3.778779     22.782761     22.782761     45.565523
     -3.768769     19.530699     19.530699     39.061399
     -3.758759     18.512776     18.512776     37.025553
     -3.748749     19.053596     19.053596     38.107192
     -3.738739     20.292090     20.292090     40.584181
     -3.728729     21.428712     21.428712     42.857425
     -3.718719     21.936182     21.936182     43.872363
     -3.708709     21.688930     21.688930     43.377860
     -3.698699     20.981130     20.981130     41.962260
     -3.688689     20.423282     20.423282     40.846565
     -3.678679     20.735607     20.735607     41.471213
     -3.668669     22.490086     22.490086     44.980172
     -3.658659     25.880972     25.880972     51.761943
     -3.648649     30.608981     30.608981     61.217962
     -3.638639     35.933609     35.933609     71.867219
     -3.628629     40.883922     40.883922     81.767843
     -3.618619     44.548054     44.548054     89.096109
     -3.608609     46.325559     46.325559     92.651119
     -3.598599     46.049879     46.049879     92.099758
     -3.588589     43.957546     43.957546     87.915091
     -3.578579     40.550815     40.550815     81.101631
     -3.568569     36.428963     36.428963     72.857926
     -3.558559     32.144634     32.144634     64.289267
     -3.548549     28.105774     28.105774     56.211548
     -3.538539     24.524151     24.524151     49.048302
     -3.528529     21.413475     21.413475     42.826951
     -3.518519     18.642808     18.642808     37.285616
     -3.508509     16.035861     16.035861     32.071722
     -3.498498     13.480885     13.480885     26.961769
     -3.488488     11.003453     11.003453     22.006907
     -3.478478      8.770713      8.770713     17.541426
     -3.468468      7.030463      7.030463     14.060927
     -3.458458      6.016950      6.016950     12.033899
     -3.448448      5.861590      5.861590     11.723181
     -3.438438      6.535711      6.535711     13.071422
     -3.428428      7.838956      7.838956     15.677911
     -3.418418      9.439191      9.439191     18.878382
     -3.408408     10.961761     10.961761     21.923521
     -3.398398     12.109682     12.109682     24.219365
     -3.388388     12.775498     12.775498     25.550997
     -3.378378     13.096557     13.096557     26.193114
     -3.368368     13.422755     13.422755     26.845510
     -3.358358     14.204580     14.204580     28.409161
     -3.348348     15.845809     15.845809     31.691618
     -3.338338     18.574724     18.574724     37.149448
     -3.328328     22.366588     22.366588     44.733176
     -3.318318     26.919734     26.919734     53.839467
     -3.308308     31.675404     31.675404     63.350808
     -3.298298     35.883693     35.883693     71.767386
     -3.288288     38.731624     38.731624     77.463249
     -3.278278     39.534473     39.534473     79.068947
     -3.268268     37.945036     37.945036     75.890071
     -3.258258     34.093356     34.093356     68.186712
     -3.248248     28.576600     28.576600     57.153200
     -3.238238     22.285275     22.285275     44.570551
     -3.228228     16.137292     16.137292     32.274583
     -3.218218     10.836279     10.836279     21.672558
     -3.208208      6.746847      6.746847     13.493694
     -3.198198      3.909869      3.909869      7.819739
     -3.188188      2.155182      2.155182      4.310364
     -3.178178      1.243044      1.243044      2.486088
     -3.168168      0.980209      0.980209      1.960419
     -3.158158      1.287610      1.287610      2.575220
     -3.148148      2.220050      2.220050      4.440099
     -3.138138      3.945088      3.945088      7.890176
     -3.128128      6.685138      6.685138     13.370276
     -3.118118     10.626224     10.626224     21.252447
     -3.108108     15.806519     15.806519     31.613039
     -3.098098     22.015197     22.015197     44.030395
     -3.088088     28.745438     28.745438     57.490875
     -3.078078     35.240516     35.240516     70.481033
     -3.068068     40.642164     40.642164     81.284328
     -3.058058     44.204662     44.204662     88.409324
     -3.048048     45.499639     45.499639     90.999278
     -3.038038     44.530619     44.530619     89.061238
     -3.028028     41.712421     41.712421     83.424841
     -3.018018     37.731237     37.731237     75.462474
     -3.008008     33.351351     33.351351     66.702702
     -2.997998     29.245496     29.245496     58.490991
     -2.987988     25.897616     25.897616     51.795231
     -2.977978     23.584652     23.584652     47.169304
     -2.967968     22.414834     22.414834     44.829669
     -2.957958     22.390959     22.390959     44.781917
     -2.947948     23.467946     23.467946     46.935892
     -2.937938     25.577146     25.577146     51.154293
     -2.927928     28.601338     28.601338     57.202675
     -2.917918     32.311864     32.311864     64.623729
     -2.907908     36.313101     36.313101     72.626203
     -2.897898     40.052580     40.052580     80.105159
     -2.887888     42.927394     42.927394     85.854788
     -2.877878     44.458842     44.458842     88.917684
     -2.867868     44.455350     44.455350     88.910700
     -2.857858     43.076489     43.076489     86.152978
     -2.847848     40.757161     40.757161     81.514321
     -2.837838     38.024157     38.024157     76.048315
     -2.827828     35.293985     35.293985     70.587969
     -2.817818     32.748708     32.748708     65.497416
     -2.807808     30.342622     30.342622     60.685244
     -2.797798     27.922268     27.922268     55.844535
     -2.787788     25.384418     25.384418     50.768836
     -2.777778     22.781811     22.781811     45.563623
     -2.767768     20.321383     20.321383     40.642765
     -2.757758     18.264228     18.264228     36.528455
     -2.747748     16.793820     16.793820     33.587640
     -2.737738     15.935815     15.935815     31.871630
     -2.727728     15.578630     15.578630     31.157260
     -2.717718     15.578548     15.578548     31.157096
     -2.707708     15.876852     15.876852     31.753704
     -2.697698     16.546331     16.546331     33.092661
     -2.687688     17.729771     17.729771     35.459542
     -2.677678     19.506416     19.506416     39.012831
     -2.667668     21.775723     21.775723     43.551446
     -2.657658     24.243032     24.243032     48.486065
     -2.647648     26.528323     26.528323     53.056646
     -2.637638     28.337468     28.337468     56.674936
     -2.627628     29.591352     29.591352     59.182705
     -2.617618     30.434365     30.434365     60.868729
     -2.607608     31.122996     31.122996     62.245991
     -2.597598     31.870731     31.870731     63.741461
     -2.587588     32.743056     32.743056     65.486112
     -2.577578     33.647788     33.647788     67.295576
     -2.567568     34.394956     34.394956     68.789913
     -2.557558     34.765380     34.765380     69.530760
     -2.547548     34.550169     34.550169     69.100338
     -2.537538     33.573717     33.573717     67.147434
     -2.527528     31.737443     31.737443     63.474886
     -2.517518     29.096154     29.096154     58.192307
     -2.507508     25.928767     25.928767     51.857535
     -2.497497     22.739694     22.739694     45.479388
     -2.487487     20.153908     20.153908     40.307816
     -2.477477     18.730773     18.730773     37.461547
     -2.467467     18.775234     18.775234     37.550468
     -2.457457     20.235119     20.235119     40.470239
     -2.447447     22.735506     22.735506     45.471012
     -2.437437     25.737256     25.737256     51.474512
     -2.427427     28.748695     28.748695     57.497391
     -2.417417     31.493591     31.493591     62.987183
     -2.407407     33.957622     33.957622     67.915244
     -2.397397     36.292663     36.292663     72.585326
     -2.387387     38.627974     38.627974     77.255947
     -2.377377     40.886081     40.886081     81.772162
     -2.367367     42.703705     42.703705     85.407411
     -2.357357     43.510886     43.510886     87.021771
     -2.347347     42.745189     42.745189     85.490378
     -2.337337     40.108838     40.108838     80.217676
     -2.327327     35.750455     35.750455     71.500909
     -2.317317     30.285942     30.285942     60.571885
     -2.307307     24.648680     24.648680     49.297359
     -2.297297     19.835882     19.835882     39.671764
     -2.287287     16.654247     16.654247     33.308494
     -2.277277     15.550550     15.550550     31.101100
     -2.267267     16.562219     16.562219     33.124438
     -2.257257     19.373384     19.373384     38.746768
     -2.247247     23.435038     23.435038     46.870075
     -2.237237     28.103597     28.103597     56.207194
     -2.227227     32.759613     32.759613     65.519226
     -2.217217     36.881340     36.881340     73.762680
     -2.207207     40.066947     40.066947     80.133894
     -2.197197     42.022733     42.022733     84.045465
     -2.187187     42.551848     42.551848     85.103696
     -2.177177     41.573615     41.573615     83.147229
     -2.167167     39.173618     39.173618     78.347235
     -2.157157     35.646491     35.646491     71.292983
     -2.147147     31.477361     31.477361     62.954721
     -2.137137     27.234252     27.234252     54.468505
     -2.127127     23.401114     23.401114     46.802228
     -2.117117     20.229605     20.229605     40.459210
     -2.107107     17.688865     17.688865     35.377729
     -2.097097     15.540328     15.540328     31.080655
     -2.087087     13.493527     13.493527     26.987054
     -2.077077     11.356920     11.356920     22.713840
     -2.067067      9.110595      9.110595     18.221190
     -2.057057      6.881220      6.881220     13.762441
     -2.047047      4.854442      4.854442      9.708883
     -2.037037      3.183032      3.183032      6.366065
     -2.027027      1.934567      1.934567      3.869135
     -2.017017      1.089280      1.089280      2.178560
     -2.007007      0.571645      0.571645      1.143290
     -1.996997      0.290839      0.290839      0.581679
     -1.986987      0.172654      0.172654      0.345308
     -1.976977      0.177798      0.177798      0.355596
     -1.966967      0.309741      0.309741      0.619482
     -1.956957      0.616248      0.616248      1.232496
     -1.946947      1.184812      1.184812      2.369624
     -1.936937      2.127820      2.127820      4.255641
     -1.926927      3.552964      3.552964      7.105929
     -1.916917      5.520239      5.520239     11.040479
     -1.906907      7.996902      7.996902     15.993804
     -1.896897     10.829627     10.829627     21.659254
     -1.886887     13.751746     13.751746     27.503491
     -1.876877     16.430979     16.430979     32.861958
     -1.866867     18.545716     18.545716     37.091431
     -1.856857     19.865822     19.865822     39.731645
     -1.846847     20.312686     20.312686     40.625372
     -1.836837     19.979952     19.979952     39.959904
     -1.826827     19.105643     19.105643     38.211287
     -1.816817     17.997449     17.997449     35.994899
     -1.806807     16.929250     16.929250     33.858501
     -1.796797     16.045978     16.045978     32.091955
     -1.786787     15.322111     15.322111     30.644222
     -1.776777     14.602002     14.602002     29.204003
     -1.766767     13.709324     13.709324     27.418649
     -1.756757     12.571520     12.571520     25.143040
     -1.746747     11.291994     11.291994     22.583988
     -1.736737     10.129288     10.129288     20.258575
     -1.726727      9.392489      9.392489     18.784979
     -1.716717      9.305648      9.305648     18.611296
     -1.706707      9.907767      9.907767     19.815534
     -1.696697     11.035145     11.035145     22.070291
     -1.686687     12.391537     12.391537     24.783074
     -1.676677     13.668516     13.668516     27.337032
     -1.666667     14.653780     14.653780     29.307561
     -1.656657     15.273152     15.273152     30.546303
     -1.646647     15.551808     15.551808     31.103615
     -1.636637     15.530502     15.530502     31.061004
     -1.626627     15.200606     15.200606     30.401212
