# EIG2DOS: Utility for SIESTA to obtain the electronic density of states
#  E. Artacho, Apr 1999, A. Garcia, Apr 2012
#  Nick R. Papior, Feb 2017
# ------------------------------------------
# Eigenvalues calculated from a non-polarized calculation
# Eigenvalues read from siesta.EIG
# Kpoint weights read from siesta.KP
# Using smearing parameter:   0.0500
# Using 1000 points in the energy range
# Selected bands: 1 to: 2981
# Emin, Emax in file for selected band(s):    -27.4006325    218.4035680
# Nbands, Nspin, Nk   =   2981     1     1
# E_F                 =    -4.1918 eV --> (shifted to ZERO)
# Broadening          =     0.0500 eV
#
#        E            N(up)  (=)   N(down)         Ntot
     -5.000000     30.404769     30.404769     60.809538
     -4.989990     35.535742     35.535742     71.071484
     -4.979980     40.600968     40.600968     81.201936
     -4.969970     44.747617     44.747617     89.495234
     -4.959960     47.187633     47.187633     94.375266
     -4.949950     47.457784     47.457784     94.915569
     -4.939940     45.582429     45.582429     91.164858
     -4.929930     42.083890     42.083890     84.167780
     -4.919920     37.856381     37.856381     75.712762
     -4.909910     33.966216     33.966216     67.932431
     -4.899900     31.440665     31.440665     62.881330
     -4.889890     31.076566     31.076566     62.153131
     -4.879880     33.276332     33.276332     66.552665
     -4.869870     37.927013     37.927013     75.854027
     -4.859860     44.363645     44.363645     88.727290
     -4.849850     51.464428     51.464428    102.928857
     -4.839840     57.888813     57.888813    115.777626
     -4.829830     62.404536     62.404536    124.809071
     -4.819820     64.197385     64.197385    128.394770
     -4.809810     63.054099     63.054099    126.108197
     -4.799800     59.358959     59.358959    118.717918
     -4.789790     53.920698     53.920698    107.841396
     -4.779780     47.708598     47.708598     95.417197
     -4.769770     41.597659     41.597659     83.195318
     -4.759760     36.199737     36.199737     72.399474
     -4.749750     31.809318     31.809318     63.618636
     -4.739740     28.445186     28.445186     56.890373
     -4.729730     25.942078     25.942078     51.884155
     -4.719720     24.045328     24.045328     48.090656
     -4.709710     22.480718     22.480718     44.961436
     -4.699700     20.998212     20.998212     41.996424
     -4.689690     19.407011     19.407011     38.814022
     -4.679680     17.619484     17.619484     35.238967
     -4.669670     15.703794     15.703794     31.407588
     -4.659660     13.922912     13.922912     27.845823
     -4.649650     12.728025     12.728025     25.456051
     -4.639640     12.684391     12.684391     25.368782
     -4.629630     14.331088     14.331088     28.662176
     -4.619620     18.002159     18.002159     36.004317
     -4.609610     23.658415     23.658415     47.316830
     -4.599600     30.792582     30.792582     61.585164
     -4.589590     38.466453     38.466453     76.932907
     -4.579580     45.505517     45.505517     91.011033
     -4.569570     50.814554     50.814554    101.629109
     -4.559560     53.711518     53.711518    107.423037
     -4.549550     54.146358     54.146358    108.292716
     -4.539540     52.703826     52.703826    105.407651
     -4.529530     50.376596     50.376596    100.753192
     -4.519520     48.195303     48.195303     96.390606
     -4.509510     46.864720     46.864720     93.729440
     -4.499499     46.549827     46.549827     93.099654
     -4.489489     46.886218     46.886218     93.772436
     -4.479479     47.190714     47.190714     94.381428
     -4.469469     46.766557     46.766557     93.533115
     -4.459459     45.169494     45.169494     90.338988
     -4.449449     42.335416     42.335416     84.670832
     -4.439439     38.545544     38.545544     77.091087
     -4.429429     34.281056     34.281056     68.562113
     -4.419419     30.057635     30.057635     60.115270
     -4.409409     26.315475     26.315475     52.630950
     -4.399399     23.386655     23.386655     46.773310
     -4.389389     21.506708     21.506708     43.013416
     -4.379379     20.817685     20.817685     41.635370
     -4.369369     21.336406     21.336406     42.672812
     -4.359359     22.909931     22.909931     45.819862
     -4.349349     25.209831     25.209831     50.419662
     -4.339339     27.802608     27.802608     55.605216
     -4.329329     30.285315     30.285315     60.570630
     -4.319319     32.428324     32.428324     64.856648
     -4.309309     34.253452     34.253452     68.506905
     -4.299299     36.002034     36.002034     72.004068
     -4.289289     37.996289     37.996289     75.992579
     -4.279279     40.444009     40.444009     80.888018
     -4.269269     43.264946     43.264946     86.529892
     -4.259259     46.019882     46.019882     92.039765
     -4.249249     47.995019     47.995019     95.990039
     -4.239239     48.435107     48.435107     96.870214
     -4.229229     46.845422     46.845422     93.690843
     -4.219219     43.232410     43.232410     86.464820
     -4.209209     38.163535     38.163535     76.327070
     -4.199199     32.605288     32.605288     65.210576
     -4.189189     27.605866     27.605866     55.211733
     -4.179179     23.963608     23.963608     47.927216
     -4.169169     22.021705     22.021705     44.043410
     -4.159159     21.659399     21.659399     43.318798
     -4.149149     22.454575     22.454575     44.909150
     -4.139139     23.922545     23.922545     47.845090
     -4.129129     25.717203     25.717203     51.434405
     -4.119119     27.710814     27.710814     55.421627
     -4.109109     29.928446     29.928446     59.856892
     -4.099099     32.380303     32.380303     64.760607
     -4.089089     34.887288     34.887288     69.774577
     -4.079079     37.007750     37.007750     74.015501
     -4.069069     38.130520     38.130520     76.261040
     -4.059059     37.711572     37.711572     75.423144
     -4.049049     35.543807     35.543807     71.087614
     -4.039039     31.918035     31.918035     63.836071
     -4.029029     27.584674     27.584674     55.169347
     -4.019019     23.530943     23.530943     47.061886
     -4.009009     20.681274     20.681274     41.362548
     -3.998999     19.654073     19.654073     39.308145
     -3.988989     20.659750     20.659750     41.319500
     -3.978979     23.543221     23.543221     47.086441
     -3.968969     27.911711     27.911711     55.823422
     -3.958959     33.274917     33.274917     66.549833
     -3.948949     39.152220     39.152220     78.304441
     -3.938939     45.139536     45.139536     90.279073
     -3.928929     50.946710     50.946710    101.893420
     -3.918919     56.408475     56.408475    112.816950
     -3.908909     61.456394     61.456394    122.912789
     -3.898899     66.041604     66.041604    132.083208
     -3.888889     70.026062     70.026062    140.052124
     -3.878879     73.094229     73.094229    146.188457
     -3.868869     74.746994     74.746994    149.493987
     -3.858859     74.409850     74.409850    148.819700
     -3.848849     71.630645     71.630645    143.261291
     -3.838839     66.291147     66.291147    132.582294
     -3.828829     58.740532     58.740532    117.481064
     -3.818819     49.786758     49.786758     99.573517
     -3.808809     40.538703     40.538703     81.077405
     -3.798799     32.149977     32.149977     64.299955
     -3.788789     25.548875     25.548875     51.097749
     -3.778779     21.237241     21.237241     42.474482
     -3.768769     19.211009     19.211009     38.422017
     -3.758759     19.013666     19.013666     38.027331
     -3.748749     19.897584     19.897584     39.795167
     -3.738739     21.045413     21.045413     42.090827
     -3.728729     21.795329     21.795329     43.590657
     -3.718719     21.816585     21.816585     43.633169
     -3.708709     21.192744     21.192744     42.385487
     -3.698699     20.387951     20.387951     40.775902
     -3.688689     20.096803     20.096803     40.193606
     -3.678679     21.009619     21.009619     42.019239
     -3.668669     23.556915     23.556915     47.113829
     -3.658659     27.717380     27.717380     55.434760
     -3.648649     32.966713     32.966713     65.933425
     -3.638639     38.400829     38.400829     76.801657
     -3.628629     42.997004     42.997004     85.994008
     -3.618619     45.913466     45.913466     91.826933
     -3.608609     46.710403     46.710403     93.420807
     -3.598599     45.417648     45.417648     90.835297
     -3.588589     42.451094     42.451094     84.902188
     -3.578579     38.442449     38.442449     76.884897
     -3.568569     34.061240     34.061240     68.122480
     -3.558559     29.879622     29.879622     59.759243
     -3.548549     26.293397     26.293397     52.586795
     -3.538539     23.494200     23.494200     46.988401
     -3.528529     21.486907     21.486907     42.973815
     -3.518519     20.144592     20.144592     40.289184
     -3.508509     19.281651     19.281651     38.563303
     -3.498498     18.716120     18.716120     37.432239
     -3.488488     18.300821     18.300821     36.601643
     -3.478478     17.927350     17.927350     35.854700
     -3.468468     17.524587     17.524587     35.049175
     -3.458458     17.066410     17.066410     34.132821
     -3.448448     16.579192     16.579192     33.158384
     -3.438438     16.126487     16.126487     32.252975
     -3.428428     15.764281     15.764281     31.528563
     -3.418418     15.493030     15.493030     30.986060
     -3.408408     15.249305     15.249305     30.498610
     -3.398398     14.958868     14.958868     29.917735
     -3.388388     14.627223     14.627223     29.254447
     -3.378378     14.410201     14.410201     28.820402
     -3.368368     14.614065     14.614065     29.228130
     -3.358358     15.616851     15.616851     31.233702
     -3.348348     17.746633     17.746633     35.493266
     -3.338338     21.166777     21.166777     42.333553
     -3.328328     25.799732     25.799732     51.599464
     -3.318318     31.294612     31.294612     62.589224
     -3.308308     37.036398     37.036398     74.072796
     -3.298298     42.207453     42.207453     84.414906
     -3.288288     45.919525     45.919525     91.839051
     -3.278278     47.411824     47.411824     94.823648
     -3.268268     46.263847     46.263847     92.527694
     -3.258258     42.537455     42.537455     85.074911
     -3.248248     36.776677     36.776677     73.553354
     -3.238238     29.855616     29.855616     59.711231
     -3.228228     22.736261     22.736261     45.472523
     -3.218218     16.234055     16.234055     32.468110
     -3.208208     10.872529     10.872529     21.745058
     -3.198198      6.857415      6.857415     13.714829
     -3.188188      4.149004      4.149004      8.298008
     -3.178178      2.583462      2.583462      5.166925
     -3.168168      1.992700      1.992700      3.985399
     -3.158158      2.287130      2.287130      4.574260
     -3.148148      3.482930      3.482930      6.965860
     -3.138138      5.669357      5.669357     11.338715
     -3.128128      8.924562      8.924562     17.849123
     -3.118118     13.204429     13.204429     26.408858
     -3.108108     18.246582     18.246582     36.493165
     -3.098098     23.539774     23.539774     47.079547
     -3.088088     28.394042     28.394042     56.788084
     -3.078078     32.105744     32.105744     64.211489
     -3.068068     34.160100     34.160100     68.320200
     -3.058058     34.382975     34.382975     68.765951
     -3.048048     32.968900     32.968900     65.937801
     -3.038038     30.372517     30.372517     60.745034
     -3.028028     27.122780     27.122780     54.245560
     -3.018018     23.657809     23.657809     47.315617
     -3.008008     20.258134     20.258134     40.516268
     -2.997998     17.091600     17.091600     34.183199
     -2.987988     14.318167     14.318167     28.636335
     -2.977978     12.177375     12.177375     24.354751
     -2.967968     11.003408     11.003408     22.006817
     -2.957958     11.158978     11.158978     22.317956
     -2.947948     12.917924     12.917924     25.835848
     -2.937938     16.342384     16.342384     32.684767
     -2.927928     21.198172     21.198172     42.396343
     -2.917918     26.941953     26.941953     53.883907
     -2.907908     32.798432     32.798432     65.596864
     -2.897898     37.921319     37.921319     75.842639
     -2.887888     41.599111     41.599111     83.198222
     -2.877878     43.438476     43.438476     86.876952
     -2.867868     43.453353     43.453353     86.906706
     -2.857858     42.017784     42.017784     84.035568
     -2.847848     39.697096     39.697096     79.394191
     -2.837838     37.028751     37.028751     74.057501
     -2.827828     34.349768     34.349768     68.699535
     -2.817818     31.744703     31.744703     63.489407
     -2.807808     29.126111     29.126111     58.252222
     -2.797798     26.391013     26.391013     52.782025
     -2.787788     23.560364     23.560364     47.120728
     -2.777778     20.824288     20.824288     41.648576
     -2.767768     18.474326     18.474326     36.948653
     -2.757758     16.770704     16.770704     33.541408
     -2.747748     15.828652     15.828652     31.657304
     -2.737738     15.592089     15.592089     31.184178
     -2.727728     15.904988     15.904988     31.809975
     -2.717718     16.626389     16.626389     33.252777
     -2.707708     17.706183     17.706183     35.412366
     -2.697698     19.166791     19.166791     38.333583
     -2.687688     21.004693     21.004693     42.009387
     -2.677678     23.088690     23.088690     46.177380
     -2.667668     25.141881     25.141881     50.283762
     -2.657658     26.839469     26.839469     53.678937
     -2.647648     27.970500     27.970500     55.941001
     -2.637638     28.559402     28.559402     57.118804
     -2.627628     28.863245     28.863245     57.726489
     -2.617618     29.240691     29.240691     58.481381
     -2.607608     29.970555     29.970555     59.941110
     -2.597598     31.123138     31.123138     62.246277
     -2.587588     32.542228     32.542228     65.084456
     -2.577578     33.920258     33.920258     67.840516
     -2.567568     34.902560     34.902560     69.805121
     -2.557558     35.167496     35.167496     70.334991
     -2.547548     34.475550     34.475550     68.951100
     -2.537538     32.713937     32.713937     65.427874
     -2.527528     29.954244     29.954244     59.908488
     -2.517518     26.502728     26.502728     53.005456
     -2.507508     22.896113     22.896113     45.792225
     -2.497497     19.808760     19.808760     39.617521
     -2.487487     17.882997     17.882997     35.765993
     -2.477477     17.540957     17.540957     35.081915
     -2.467467     18.853885     18.853885     37.707770
     -2.457457     21.525287     21.525287     43.050573
     -2.447447     24.999397     24.999397     49.998793
     -2.437437     28.655449     28.655449     57.310898
     -2.427427     32.010726     32.010726     64.021453
     -2.417417     34.847234     34.847234     69.694469
     -2.407407     37.205908     37.205908     74.411816
     -2.397397     39.251061     39.251061     78.502122
     -2.387387     41.071960     41.071960     82.143921
     -2.377377     42.525941     42.525941     85.051882
     -2.367367     43.214835     43.214835     86.429669
     -2.357357     42.623434     42.623434     85.246869
     -2.347347     40.363427     40.363427     80.726855
     -2.337337     36.404845     36.404845     72.809691
     -2.327327     31.177790     31.177790     62.355580
     -2.317317     25.492771     25.492771     50.985543
     -2.307307     20.319476     20.319476     40.638952
     -2.297297     16.525885     16.525885     33.051769
     -2.287287     14.680326     14.680326     29.360653
     -2.277277     14.969596     14.969596     29.939192
     -2.267267     17.226133     17.226133     34.452266
     -2.257257     21.021011     21.021011     42.042021
     -2.247247     25.775693     25.775693     51.551386
     -2.237237     30.861384     30.861384     61.722768
     -2.227227     35.673665     35.673665     71.347330
     -2.217217     39.683798     39.683798     79.367596
     -2.207207     42.476106     42.476106     84.952213
     -2.197197     43.783867     43.783867     87.567735
     -2.187187     43.531346     43.531346     87.062692
     -2.177177     41.874141     41.874141     83.748282
     -2.167167     39.209001     39.209001     78.418003
     -2.157157     36.114458     36.114458     72.228917
     -2.147147     33.203846     33.203846     66.407693
     -2.137137     30.923355     30.923355     61.846710
     -2.127127     29.380604     29.380604     58.761209
     -2.117117     28.300262     28.300262     56.600524
     -2.107107     27.149939     27.149939     54.299878
     -2.097097     25.386996     25.386996     50.773992
     -2.087087     22.705115     22.705115     45.410231
     -2.077077     19.159222     19.159222     38.318444
     -2.067067     15.119291     15.119291     30.238582
     -2.057057     11.098019     11.098019     22.196037
     -2.047047      7.553462      7.553462     15.106925
     -2.037037      4.758299      4.758299      9.516599
     -2.027027      2.771979      2.771979      5.543959
     -2.017017      1.494194      1.494194      2.988388
     -2.007007      0.750287      0.750287      1.500575
     -1.996997      0.365692      0.365692      0.731385
     -1.986987      0.210299      0.210299      0.420598
     -1.976977      0.215168      0.215168      0.430335
     -1.966967      0.373143      0.373143      0.746287
     -1.956957      0.732578      0.732578      1.465155
     -1.946947      1.385819      1.385819      2.771637
     -1.936937      2.448088      2.448088      4.896176
     -1.926927      4.022328      4.022328      8.044657
     -1.916917      6.152572      6.152572     12.305144
     -1.906907      8.778918      8.778918     17.557837
     -1.896897     11.714194     11.714194     23.428388
     -1.886887     14.659189     14.659189     29.318378
     -1.876877     17.259516     17.259516     34.519031
     -1.866867     19.189679     19.189679     38.379357
     -1.856857     20.238438     20.238438     40.476875
     -1.846847     20.368325     20.368325     40.736651
     -1.836837     19.728790     19.728790     39.457579
     -1.826827     18.613180     18.613180     37.226359
     -1.816817     17.365131     17.365131     34.730261
     -1.806807     16.260554     16.260554     32.521108
     -1.796797     15.410221     15.410221     30.820442
     -1.786787     14.729450     14.729450     29.458901
     -1.776777     13.995262     13.995262     27.990524
     -1.766767     12.966753     12.966753     25.933506
     -1.756757     11.508882     11.508882     23.017764
     -1.746747      9.658736      9.658736     19.317472
     -1.736737      7.608624      7.608624     15.217248
     -1.726727      5.627737      5.627737     11.255475
     -1.716717      3.972247      3.972247      7.944493
     -1.706707      2.827733      2.827733      5.655467
     -1.696697      2.297496      2.297496      4.594992
     -1.686687      2.419067      2.419067      4.838134
     -1.676677      3.178601      3.178601      6.357201
     -1.666667      4.503327      4.503327      9.006653
     -1.656657      6.236605      6.236605     12.473209
     -1.646647      8.121932      8.121932     16.243863
     -1.636637      9.826823      9.826823     19.653647
     -1.626627     11.019521     11.019521     22.039043
