# EIG2DOS: Utility for SIESTA to obtain the electronic density of states
#  E. Artacho, Apr 1999, A. Garcia, Apr 2012
#  Nick R. Papior, Feb 2017
# ------------------------------------------
# Eigenvalues calculated from a non-polarized calculation
# Eigenvalues read from siesta.EIG
# Kpoint weights read from siesta.KP
# Using smearing parameter:   0.0500
# Using 1000 points in the energy range
# Selected bands: 1 to: 2981
# Emin, Emax in file for selected band(s):    -27.3094663    218.3811650
# Nbands, Nspin, Nk   =   2981     1     1
# E_F                 =    -4.2193 eV --> (shifted to ZERO)
# Broadening          =     0.0500 eV
#
#        E            N(up)  (=)   N(down)         Ntot
     -5.000000     31.963531     31.963531     63.927061
     -4.989990     36.711363     36.711363     73.422725
     -4.979980     41.146003     41.146003     82.292005
     -4.969970     44.530912     44.530912     89.061823
     -4.959960     46.240635     46.240635     92.481270
     -4.949950     45.967950     45.967950     91.935900
     -4.939940     43.833573     43.833573     87.667146
     -4.929930     40.366905     40.366905     80.733810
     -4.919920     36.385640     36.385640     72.771281
     -4.909910     32.830636     32.830636     65.661273
     -4.899900     30.598356     30.598356     61.196713
     -4.889890     30.380207     30.380207     60.760414
     -4.879880     32.504875     32.504875     65.009750
     -4.869870     36.804032     36.804032     73.608064
     -4.859860     42.561081     42.561081     85.122162
     -4.849850     48.611612     48.611612     97.223224
     -4.839840     53.615237     53.615237    107.230475
     -4.829830     56.430136     56.430136    112.860272
     -4.819820     56.450221     56.450221    112.900442
     -4.809810     53.763571     53.763571    107.527142
     -4.799800     49.068993     49.068993     98.137986
     -4.789790     43.401421     43.401421     86.802841
     -4.779780     37.798641     37.798641     75.597282
     -4.769770     33.046789     33.046789     66.093577
     -4.759760     29.576732     29.576732     59.153463
     -4.749750     27.496381     27.496381     54.992762
     -4.739740     26.687615     26.687615     53.375230
     -4.729730     26.893961     26.893961     53.787922
     -4.719720     27.763674     27.763674     55.527348
     -4.709710     28.861473     28.861473     57.722946
     -4.699700     29.692404     29.692404     59.384808
     -4.689690     29.777771     29.777771     59.555542
     -4.679680     28.787616     28.787616     57.575233
     -4.669670     26.687037     26.687037     53.374073
     -4.659660     23.825494     23.825494     47.650988
     -4.649650     20.910678     20.910678     41.821357
     -4.639640     18.855417     18.855417     37.710835
     -4.629630     18.538131     18.538131     37.076261
     -4.619620     20.546560     20.546560     41.093119
     -4.609610     24.976157     24.976157     49.952315
     -4.599600     31.341689     31.341689     62.683378
     -4.589590     38.642010     38.642010     77.284019
     -4.579580     45.586841     45.586841     91.173683
     -4.569570     50.942676     50.942676    101.885351
     -4.559560     53.895761     53.895761    107.791521
     -4.549550     54.298614     54.298614    108.597227
     -4.539540     52.694050     52.694050    105.388100
     -4.529530     50.095827     50.095827    100.191655
     -4.519520     47.608449     47.608449     95.216899
     -4.509510     46.037543     46.037543     92.075086
     -4.499499     45.642151     45.642151     91.284302
     -4.489489     46.113474     46.113474     92.226948
     -4.479479     46.765336     46.765336     93.530673
     -4.469469     46.837081     46.837081     93.674162
     -4.459459     45.776359     45.776359     91.552718
     -4.449449     43.397525     43.397525     86.795049
     -4.439439     39.881554     39.881554     79.763109
     -4.429429     35.657747     35.657747     71.315493
     -4.419419     31.248922     31.248922     62.497845
     -4.409409     27.153350     27.153350     54.306700
     -4.399399     23.790023     23.790023     47.580045
     -4.389389     21.483527     21.483527     42.967055
     -4.379379     20.445410     20.445410     40.890819
     -4.369369     20.731492     20.731492     41.462983
     -4.359359     22.197215     22.197215     44.394431
     -4.349349     24.498337     24.498337     48.996673
     -4.339339     27.169149     27.169149     54.338298
     -4.329329     29.764330     29.764330     59.528660
     -4.319319     32.006781     32.006781     64.013561
     -4.309309     33.872451     33.872451     67.744901
     -4.299299     35.569523     35.569523     71.139046
     -4.289289     37.415098     37.415098     74.830197
     -4.279279     39.653828     39.653828     79.307656
     -4.269269     42.286575     42.286575     84.573149
     -4.259259     44.980654     44.980654     89.961307
     -4.249249     47.114668     47.114668     94.229336
     -4.239239     47.966648     47.966648     95.933297
     -4.229229     46.990079     46.990079     93.980158
     -4.219219     44.065715     44.065715     88.131430
     -4.209209     39.607109     39.607109     79.214217
     -4.199199     34.455165     34.455165     68.910329
     -4.189189     29.598939     29.598939     59.197877
     -4.179179     25.848097     25.848097     51.696195
     -4.169169     23.603408     23.603408     47.206815
     -4.159159     22.815035     22.815035     45.630070
     -4.149149     23.121889     23.121889     46.243778
     -4.139139     24.084040     24.084040     48.168080
     -4.129129     25.390576     25.390576     50.781151
     -4.119119     26.950258     26.950258     53.900516
     -4.109109     28.832475     28.832475     57.664951
     -4.099099     31.096516     31.096516     62.193031
     -4.089089     33.603904     33.603904     67.207809
     -4.079079     35.926811     35.926811     71.853623
     -4.069069     37.427151     37.427151     74.854302
     -4.059059     37.493111     37.493111     74.986223
     -4.049049     35.825469     35.825469     71.650939
     -4.039039     32.624884     32.624884     65.249768
     -4.029029     28.576627     28.576627     57.153254
     -4.019019     24.637073     24.637073     49.274146
     -4.009009     21.728967     21.728967     43.457935
     -3.998999     20.487311     20.487311     40.974621
     -3.988989     21.150956     21.150956     42.301913
     -3.978979     23.606205     23.606205     47.212410
     -3.968969     27.517124     27.517124     55.034248
     -3.958959     32.460532     32.460532     64.921064
     -3.948949     38.017167     38.017167     76.034333
     -3.938939     43.818434     43.818434     87.636869
     -3.928929     49.572283     49.572283     99.144566
     -3.918919     55.080382     55.080382    110.160764
     -3.908909     60.232434     60.232434    120.464868
     -3.898899     64.954935     64.954935    129.909870
     -3.888889     69.116067     69.116067    138.232134
     -3.878879     72.429240     72.429240    144.858480
     -3.868869     74.420915     74.420915    148.841831
     -3.858859     74.510150     74.510150    149.020299
     -3.848849     72.193180     72.193180    144.386360
     -3.838839     67.266579     67.266579    134.533159
     -3.828829     59.991794     59.991794    119.983589
     -3.818819     51.120589     51.120589    102.241178
     -3.808809     41.757150     41.757150     83.514299
     -3.798799     33.099971     33.099971     66.199942
     -3.788789     26.152429     26.152429     52.304858
     -3.778779     21.496506     21.496506     42.993012
     -3.768769     19.193059     19.193059     38.386118
     -3.758759     18.824480     18.824480     37.648960
     -3.748749     19.653491     19.653491     39.306982
     -3.738739     20.847064     20.847064     41.694128
     -3.728729     21.707153     21.707153     43.414307
     -3.718719     21.854317     21.854317     43.708633
     -3.708709     21.321655     21.321655     42.643309
     -3.698699     20.533423     20.533423     41.066846
     -3.688689     20.166254     20.166254     40.332508
     -3.678679     20.921231     20.921231     41.842463
     -3.668669     23.267396     23.267396     46.534793
     -3.658659     27.239789     27.239789     54.479578
     -3.648649     32.371431     32.371431     64.742863
     -3.638639     37.798223     37.798223     75.596447
     -3.628629     42.507224     42.507224     85.014447
     -3.618619     45.633938     45.633938     91.267875
     -3.608609     46.691936     46.691936     93.383872
     -3.598599     45.655394     45.655394     91.310788
     -3.588589     42.889605     42.889605     85.779211
     -3.578579     38.988442     38.988442     77.976884
     -3.568569     34.595488     34.595488     69.190975
     -3.558559     30.260520     30.260520     60.521041
     -3.548549     26.348426     26.348426     52.696852
     -3.538539     23.001685     23.001685     46.003370
     -3.528529     20.159182     20.159182     40.318364
     -3.518519     17.631822     17.631822     35.263644
     -3.508509     15.216575     15.216575     30.433150
     -3.498498     12.807018     12.807018     25.614035
     -3.488488     10.453679     10.453679     20.907357
     -3.478478      8.350684      8.350684     16.701367
     -3.468468      6.761253      6.761253     13.522505
     -3.458458      5.918945      5.918945     11.837890
     -3.448448      5.942766      5.942766     11.885533
     -3.438438      6.790765      6.790765     13.581529
     -3.428428      8.263583      8.263583     16.527167
     -3.418418     10.061215     10.061215     20.122430
     -3.408408     11.885126     11.885126     23.770253
     -3.398398     13.557585     13.557585     27.115171
     -3.388388     15.108992     15.108992     30.217984
     -3.378378     16.782847     16.782847     33.565694
     -3.368368     18.939878     18.939878     37.879756
     -3.358358     21.895665     21.895665     43.791330
     -3.348348     25.765765     25.765765     51.531530
     -3.338338     30.387991     30.387991     60.775981
     -3.328328     35.344162     35.344162     70.688324
     -3.318318     40.049081     40.049081     80.098161
     -3.308308     43.855017     43.855017     87.710034
     -3.298298     46.145595     46.145595     92.291191
     -3.288288     46.430625     46.430625     92.861250
     -3.278278     44.458753     44.458753     88.917505
     -3.268268     40.328299     40.328299     80.656598
     -3.258258     34.536199     34.536199     69.072398
     -3.248248     27.908684     27.908684     55.817368
     -3.238238     21.413459     21.413459     42.826918
     -3.228228     15.919999     15.919999     31.839998
     -3.218218     12.000800     12.000800     24.001600
     -3.208208      9.837581      9.837581     19.675161
     -3.198198      9.242565      9.242565     18.485130
     -3.188188      9.766040      9.766040     19.532081
     -3.178178     10.851657     10.851657     21.703314
     -3.168168     12.005263     12.005263     24.010527
     -3.158158     12.942134     12.942134     25.884269
     -3.148148     13.670605     13.670605     27.341211
     -3.138138     14.474003     14.474003     28.948005
     -3.128128     15.781035     15.781035     31.562070
     -3.118118     17.961347     17.961347     35.922693
     -3.108108     21.123862     21.123862     42.247723
     -3.098098     25.005689     25.005689     50.011378
     -3.088088     29.008276     29.008276     58.016552
     -3.078078     32.375736     32.375736     64.751472
     -3.068068     34.444798     34.444798     68.889595
     -3.058058     34.859145     34.859145     69.718290
     -3.048048     33.655504     33.655504     67.311008
     -3.038038     31.192100     31.192100     62.384201
     -3.028028     27.970045     27.970045     55.940090
     -3.018018     24.448706     24.448706     48.897413
     -3.008008     20.946776     20.946776     41.893553
     -2.997998     17.659690     17.659690     35.319380
     -2.987988     14.753117     14.753117     29.506234
     -2.977978     12.455954     12.455954     24.911908
     -2.967968     11.090018     11.090018     22.180036
     -2.957958     11.017857     11.017857     22.035715
     -2.947948     12.532153     12.532153     25.064307
     -2.937938     15.730755     15.730755     31.461510
     -2.927928     20.422439     20.422439     40.844878
     -2.917918     26.100159     26.100159     52.200319
     -2.907908     32.004500     32.004500     64.009000
     -2.897898     37.276378     37.276378     74.552757
     -2.887888     41.164400     41.164400     82.328801
     -2.877878     43.220634     43.220634     86.441268
     -2.867868     43.409044     43.409044     86.818087
     -2.857858     42.076915     42.076915     84.153831
     -2.847848     39.795524     39.795524     79.591049
     -2.837838     37.136379     37.136379     74.272758
     -2.827828     34.481169     34.481169     68.962337
     -2.817818     31.947045     31.947045     63.894090
     -2.807808     29.450060     29.450060     58.900120
     -2.797798     26.858985     26.858985     53.717970
     -2.787788     24.147963     24.147963     48.295926
     -2.777778     21.463731     21.463731     42.927462
     -2.767768     19.076741     19.076741     38.153481
     -2.757758     17.254241     17.254241     34.508483
     -2.747748     16.137346     16.137346     32.274692
     -2.737738     15.697515     15.697515     31.395030
     -2.727728     15.794740     15.794740     31.589480
     -2.717718     16.292510     16.292510     32.585020
     -2.707708     17.146612     17.146612     34.293224
     -2.697698     18.402776     18.402776     36.805553
     -2.687688     20.102983     20.102983     40.205966
     -2.677678     22.169145     22.169145     44.338290
     -2.667668     24.356318     24.356318     48.712635
     -2.657658     26.324732     26.324732     52.649464
     -2.647648     27.797168     27.797168     55.594336
     -2.637638     28.703697     28.703697     57.407393
     -2.627628     29.218008     29.218008     58.436016
     -2.617618     29.659076     29.659076     59.318153
     -2.607608     30.318975     30.318975     60.637950
     -2.597598     31.319227     31.319227     62.638453
     -2.587588     32.567401     32.567401     65.134801
     -2.577578     33.812274     33.812274     67.624548
     -2.567568     34.739516     34.739516     69.479033
     -2.557558     35.049632     35.049632     70.099265
     -2.547548     34.503777     34.503777     69.007554
     -2.537538     32.963262     32.963262     65.926524
     -2.527528     30.447056     30.447056     60.894112
     -2.517518     27.193486     27.193486     54.386973
     -2.507508     23.677594     23.677594     47.355188
     -2.497497     20.540085     20.540085     41.080171
     -2.487487     18.428380     18.428380     36.856760
     -2.477477     17.803392     17.803392     35.606784
     -2.467467     18.792203     18.792203     37.584407
     -2.457457     21.152195     21.152195     42.304391
     -2.447447     24.366153     24.366153     48.732307
     -2.437437     27.832288     27.832288     55.664576
     -2.427427     31.071084     31.071084     62.142168
     -2.417417     33.860345     33.860345     67.720690
     -2.407407     36.238352     36.238352     72.476704
     -2.397397     38.374147     38.374147     76.748294
     -2.387387     40.368770     40.368770     80.737539
     -2.377377     42.090408     42.090408     84.180815
     -2.367367     43.137206     43.137206     86.274413
     -2.357357     42.962963     42.962963     85.925927
     -2.347347     41.118081     41.118081     82.236161
     -2.337337     37.493505     37.493505     74.987010
     -2.327327     32.447469     32.447469     64.894938
     -2.317317     26.751854     26.751854     53.503709
     -2.307307     21.384746     21.384746     42.769491
     -2.297297     17.264600     17.264600     34.529201
     -2.287287     15.032468     15.032468     30.064936
     -2.277277     14.945906     14.945906     29.891811
     -2.267267     16.887955     16.887955     33.775911
     -2.257257     20.453353     20.453353     40.906707
     -2.247247     25.064633     25.064633     50.129266
     -2.237237     30.082400     30.082400     60.164801
     -2.227227     34.890627     34.890627     69.781253
     -2.217217     38.951315     38.951315     77.902629
     -2.207207     41.833870     41.833870     83.667739
     -2.197197     43.233549     43.233549     86.467098
     -2.187187     42.995727     42.995727     85.991454
     -2.177177     41.151913     41.151913     82.303826
     -2.167167     37.950906     37.950906     75.901811
     -2.157157     33.849205     33.849205     67.698409
     -2.147147     29.429613     29.429613     58.859225
     -2.137137     25.253127     25.253127     50.506254
     -2.127127     21.697504     21.697504     43.395009
     -2.117117     18.859878     18.859878     37.719755
     -2.107107     16.576147     16.576147     33.152295
     -2.097097     14.547593     14.547593     29.095185
     -2.087087     12.506252     12.506252     25.012505
     -2.077077     10.334794     10.334794     20.669589
     -2.067067      8.091673      8.091673     16.183346
     -2.057057      5.950775      5.950775     11.901550
     -2.047047      4.107059      4.107059      8.214119
     -2.037037      2.703918      2.703918      5.407836
     -2.027027      1.810694      1.810694      3.621389
     -2.017017      1.443655      1.443655      2.887310
     -2.007007      1.601871      1.601871      3.203743
     -1.996997      2.288175      2.288175      4.576351
     -1.986987      3.499862      3.499862      6.999724
     -1.976977      5.194814      5.194814     10.389628
     -1.966967      7.256716      7.256716     14.513431
     -1.956957      9.489021      9.489021     18.978042
     -1.946947     11.655183     11.655183     23.310366
     -1.936937     13.554905     13.554905     27.109810
     -1.926927     15.098142     15.098142     30.196285
     -1.916917     16.331143     16.331143     32.662286
     -1.906907     17.392403     17.392403     34.784806
     -1.896897     18.418591     18.418591     36.837182
     -1.886887     19.452667     19.452667     38.905334
     -1.876877     20.405772     20.405772     40.811545
     -1.866867     21.092631     21.092631     42.185262
     -1.856857     21.320037     21.320037     42.640073
     -1.846847     20.983554     20.983554     41.967109
     -1.836837     20.127164     20.127164     40.254329
     -1.826827     18.938176     18.938176     37.876351
     -1.816817     17.676170     17.676170     35.352341
     -1.806807     16.563350     16.563350     33.126700
     -1.796797     15.685499     15.685499     31.370997
     -1.786787     14.954443     14.954443     29.908887
     -1.776777     14.156020     14.156020     28.312040
     -1.766767     13.062059     13.062059     26.124118
     -1.756757     11.548205     11.548205     23.096409
     -1.746747      9.657106      9.657106     19.314213
     -1.736737      7.580876      7.580876     15.161752
     -1.726727      5.583697      5.583697     11.167395
     -1.716717      3.913679      3.913679      7.827358
     -1.706707      2.747427      2.747427      5.494854
     -1.696697      2.180870      2.180870      4.361740
     -1.686687      2.248760      2.248760      4.497521
     -1.676677      2.942080      2.942080      5.884160
     -1.666667      4.202109      4.202109      8.404217
     -1.656657      5.893604      5.893604     11.787208
     -1.646647      7.782165      7.782165     15.564329
     -1.636637      9.548003      9.548003     19.096006
     -1.626627     10.853367     10.853367     21.706733
