# EIG2DOS: Utility for SIESTA to obtain the electronic density of states
#  E. Artacho, Apr 1999, A. Garcia, Apr 2012
#  Nick R. Papior, Feb 2017
# ------------------------------------------
# Eigenvalues calculated from a non-polarized calculation
# Eigenvalues read from siesta.EIG
# Kpoint weights read from siesta.KP
# Using smearing parameter:   0.0500
# Using 1000 points in the energy range
# Selected bands: 1 to: 2981
# Emin, Emax in file for selected band(s):    -27.0452363    218.3034320
# Nbands, Nspin, Nk   =   2981     1     1
# E_F                 =    -4.3090 eV --> (shifted to ZERO)
# Broadening          =     0.0500 eV
#
#        E            N(up)  (=)   N(down)         Ntot
     -5.000000     46.489858     46.489858     92.979717
     -4.989990     49.634707     49.634707     99.269413
     -4.979980     51.100387     51.100387    102.200774
     -4.969970     50.828864     50.828864    101.657729
     -4.959960     49.014157     49.014157     98.028313
     -4.949950     46.026787     46.026787     92.053573
     -4.939940     42.325082     42.325082     84.650165
     -4.929930     38.397497     38.397497     76.794994
     -4.919920     34.751422     34.751422     69.502844
     -4.909910     31.927366     31.927366     63.854732
     -4.899900     30.491880     30.491880     60.983760
     -4.889890     30.961391     30.961391     61.922783
     -4.879880     33.640272     33.640272     67.280545
     -4.869870     38.416086     38.416086     76.832173
     -4.859860     44.615556     44.615556     89.231113
     -4.849850     51.039956     51.039956    102.079912
     -4.839840     56.235235     56.235235    112.470470
     -4.829830     58.928206     58.928206    117.856413
     -4.819820     58.448474     58.448474    116.896949
     -4.809810     54.937934     54.937934    109.875868
     -4.799800     49.250425     49.250425     98.500850
     -4.789790     42.604135     42.604135     85.208270
     -4.779780     36.165566     36.165566     72.331131
     -4.769770     30.747364     30.747364     61.494728
     -4.759760     26.707302     26.707302     53.414604
     -4.749750     24.019345     24.019345     48.038690
     -4.739740     22.423509     22.423509     44.847019
     -4.729730     21.567804     21.567804     43.135607
     -4.719720     21.100753     21.100753     42.201506
     -4.709710     20.715084     20.715084     41.430167
     -4.699700     20.163591     20.163591     40.327183
     -4.689690     19.271015     19.271015     38.542030
     -4.679680     17.958739     17.958739     35.917478
     -4.669670     16.284980     16.284980     32.569960
     -4.659660     14.485169     14.485169     28.970338
     -4.649650     12.984558     12.984558     25.969117
     -4.639640     12.356405     12.356405     24.712809
     -4.629630     13.214260     13.214260     26.428520
     -4.619620     16.048656     16.048656     32.097312
     -4.609610     21.041260     21.041260     42.082519
     -4.599600     27.911597     27.911597     55.823194
     -4.589590     35.865835     35.865835     71.731670
     -4.579580     43.707097     43.707097     87.414195
     -4.569570     50.117454     50.117454    100.234908
     -4.559560     54.042082     54.042082    108.084164
     -4.549550     55.036344     55.036344    110.072687
     -4.539540     53.425536     53.425536    106.851072
     -4.529530     50.194824     50.194824    100.389648
     -4.519520     46.644104     46.644104     93.288209
     -4.509510     43.946835     43.946835     87.893670
     -4.499499     42.788070     42.788070     85.576141
     -4.489489     43.210731     43.210731     86.421461
     -4.479479     44.701121     44.701121     89.402242
     -4.469469     46.447256     46.447256     92.894511
     -4.459459     47.649584     47.649584     95.299169
     -4.449449     47.767339     47.767339     95.534679
     -4.439439     46.630959     46.630959     93.261917
     -4.429429     44.413947     44.413947     88.827895
     -4.419419     41.509391     41.509391     83.018782
     -4.409409     38.380071     38.380071     76.760142
     -4.399399     35.441873     35.441873     70.883747
     -4.389389     33.006518     33.006518     66.013036
     -4.379379     31.271646     31.271646     62.543292
     -4.369369     30.326665     30.326665     60.653331
     -4.359359     30.151905     30.151905     60.303810
     -4.349349     30.615610     30.615610     61.231219
     -4.339339     31.492884     31.492884     62.985769
     -4.329329     32.524009     32.524009     65.048019
     -4.319319     33.500944     33.500944     67.001888
     -4.309309     34.344446     34.344446     68.688892
     -4.299299     35.131962     35.131962     70.263925
     -4.289289     36.059100     36.059100     72.118200
     -4.279279     37.346666     37.346666     74.693333
     -4.269269     39.123669     39.123669     78.247337
     -4.259259     41.322915     41.322915     82.645831
     -4.249249     43.628297     43.628297     87.256593
     -4.239239     45.510870     45.510870     91.021739
     -4.229229     46.370392     46.370392     92.740783
     -4.219219     45.751033     45.751033     91.502067
     -4.209209     43.544372     43.544372     87.088744
     -4.199199     40.072974     40.072974     80.145947
     -4.189189     35.994639     35.994639     71.989277
     -4.179179     32.062732     32.062732     64.125464
     -4.169169     28.860768     28.860768     57.721536
     -4.159159     26.642209     26.642209     53.284418
     -4.149149     25.342035     25.342035     50.684071
     -4.139139     24.730487     24.730487     49.460974
     -4.129129     24.610308     24.610308     49.220616
     -4.119119     24.948028     24.948028     49.896056
     -4.109109     25.871527     25.871527     51.743054
     -4.099099     27.535372     27.535372     55.070745
     -4.089089     29.924754     29.924754     59.849508
     -4.079079     32.710735     32.710735     65.421470
     -4.069069     35.258424     35.258424     70.516849
     -4.059059     36.817495     36.817495     73.634990
     -4.049049     36.820587     36.820587     73.641174
     -4.039039     35.141071     35.141071     70.282142
     -4.029029     32.172038     32.172038     64.344076
     -4.019019     28.684994     28.684994     57.369989
     -4.009009     25.549366     25.549366     51.098731
     -3.998999     23.461780     23.461780     46.923559
     -3.988989     22.806225     22.806225     45.612450
     -3.978979     23.670299     23.670299     47.340597
     -3.968969     25.950854     25.950854     51.901708
     -3.958959     29.454448     29.454448     58.908896
     -3.948949     33.940292     33.940292     67.880584
     -3.938939     39.120502     39.120502     78.241004
     -3.928929     44.667967     44.667967     89.335933
     -3.918919     50.262837     50.262837    100.525673
     -3.908909     55.658085     55.658085    111.316169
     -3.898899     60.709470     60.709470    121.418940
     -3.888889     65.326945     65.326945    130.653890
     -3.878879     69.357166     69.357166    138.714332
     -3.868869     72.464390     72.464390    144.928781
     -3.858859     74.099233     74.099233    148.198465
     -3.848849     73.611714     73.611714    147.223427
     -3.838839     70.489315     70.489315    140.978631
     -3.828829     64.622831     64.622831    129.245661
     -3.818819     56.469879     56.469879    112.939758
     -3.808809     47.022928     47.022928     94.045856
     -3.798799     37.578367     37.578367     75.156734
     -3.788789     29.394870     29.394870     58.789740
     -3.778779     23.372275     23.372275     46.744549
     -3.768769     19.859747     19.859747     39.719495
     -3.758759     18.637651     18.637651     37.275302
     -3.748749     19.052010     19.052010     38.104019
     -3.738739     20.241843     20.241843     40.483687
     -3.728729     21.391021     21.391021     42.782041
     -3.718719     21.945064     21.945064     43.890128
     -3.708709     21.747152     21.747152     43.494304
     -3.698699     21.062852     21.062852     42.125704
     -3.688689     20.483005     20.483005     40.966010
     -3.678679     20.721963     20.721963     41.443926
     -3.668669     22.361708     22.361708     44.723415
     -3.658659     25.620539     25.620539     51.241078
     -3.648649     30.231358     30.231358     60.462716
     -3.638639     35.485188     35.485188     70.970376
     -3.628629     40.432999     40.432999     80.865997
     -3.618619     44.169183     44.169183     88.338367
     -3.608609     46.082832     46.082832     92.165663
     -3.598599     45.983881     45.983881     91.967763
     -3.588589     44.078750     44.078750     88.157499
     -3.578579     40.839800     40.839800     81.679601
     -3.568569     36.842422     36.842422     73.684845
     -3.558559     32.625514     32.625514     65.251027
     -3.548549     28.595425     28.595425     57.190850
     -3.538539     24.973712     24.973712     49.947424
     -3.528529     21.791554     21.791554     43.583108
     -3.518519     18.937573     18.937573     37.875146
     -3.508509     16.251786     16.251786     32.503573
     -3.498498     13.632403     13.632403     27.264806
     -3.488488     11.108449     11.108449     22.216897
     -3.478478      8.845938      8.845938     17.691876
     -3.468468      7.089334      7.089334     14.178668
     -3.458458      6.068904      6.068904     12.137807
     -3.448448      5.911874      5.911874     11.823747
     -3.438438      6.584987      6.584987     13.169975
     -3.428428      7.882912      7.882912     15.765824
     -3.418418      9.468768      9.468768     18.937536
     -3.408408     10.964542     10.964542     21.929084
     -3.398398     12.072497     12.072497     24.144994
     -3.388388     12.687793     12.687793     25.375585
     -3.378378     12.953819     12.953819     25.907639
     -3.368368     13.229126     13.229126     26.458252
     -3.358358     13.973643     13.973643     27.947286
     -3.348348     15.598611     15.598611     31.197222
     -3.338338     18.334883     18.334883     36.669767
     -3.328328     22.154026     22.154026     44.308051
     -3.318318     26.746168     26.746168     53.492335
     -3.308308     31.544528     31.544528     63.089055
     -3.298298     35.796166     35.796166     71.592333
     -3.288288     38.691256     38.691256     77.382513
     -3.278278     39.550433     39.550433     79.100866
     -3.268268     38.027499     38.027499     76.054998
     -3.258258     34.245048     34.245048     68.490097
     -3.248248     28.786187     28.786187     57.572374
     -3.238238     22.527517     22.527517     45.055035
     -3.228228     16.380217     16.380217     32.760433
     -3.218218     11.051067     11.051067     22.102133
     -3.208208      6.914886      6.914886     13.829772
     -3.198198      4.023729      4.023729      8.047459
     -3.188188      2.213646      2.213646      4.427292
     -3.178178      1.242479      1.242479      2.484959
     -3.168168      0.904696      0.904696      1.809391
     -3.158158      1.099417      1.099417      2.198833
     -3.148148      1.851602      1.851602      3.703204
     -3.138138      3.294048      3.294048      6.588097
     -3.128128      5.615384      5.615384     11.230768
     -3.118118      8.978692      8.978692     17.957384
     -3.108108     13.424454     13.424454     26.848909
     -3.098098     18.787251     18.787251     37.574503
     -3.088088     24.665316     24.665316     49.330631
     -3.078078     30.471556     30.471556     60.943113
     -3.068068     35.560954     35.560954     71.121909
     -3.058058     39.387733     39.387733     78.775466
     -3.048048     41.624332     41.624332     83.248665
     -3.038038     42.193243     42.193243     84.386486
     -3.028028     41.215036     41.215036     82.430073
     -3.018018     38.926222     38.926222     77.852444
     -3.008008     35.630652     35.630652     71.261304
     -2.997998     31.709343     31.709343     63.418687
     -2.987988     27.656474     27.656474     55.312949
     -2.977978     24.079696     24.079696     48.159392
     -2.967968     21.623495     21.623495     43.246991
     -2.957958     20.827356     20.827356     41.654712
     -2.947948     21.975286     21.975286     43.950572
     -2.937938     25.000622     25.000622     50.001243
     -2.927928     29.481530     29.481530     58.963060
     -2.917918     34.723150     34.723150     69.446299
     -2.907908     39.896527     39.896527     79.793054
     -2.897898     44.199525     44.199525     88.399051
     -2.887888     47.010495     47.010495     94.020991
     -2.877878     48.008398     48.008398     96.016796
     -2.867868     47.230765     47.230765     94.461530
     -2.857858     45.043956     45.043956     90.087912
     -2.847848     42.020524     42.020524     84.041049
     -2.837838     38.754863     38.754863     77.509726
     -2.827828     35.682413     35.682413     71.364826
     -2.817818     32.975550     32.975550     65.951100
     -2.807808     30.559262     30.559262     61.118523
     -2.797798     28.233392     28.233392     56.466783
     -2.787788     25.835207     25.835207     51.670414
     -2.777778     23.356728     23.356728     46.713456
     -2.767768     20.958308     20.958308     41.916615
     -2.757758     18.879599     18.879599     37.759198
     -2.747748     17.307955     17.307955     34.615909
     -2.737738     16.287688     16.287688     32.575375
     -2.727728     15.726322     15.726322     31.452645
     -2.717718     15.491073     15.491073     30.982146
     -2.707708     15.528880     15.528880     31.057759
     -2.697698     15.925410     15.925410     31.850820
     -2.687688     16.856258     16.856258     33.712516
     -2.677678     18.454871     18.454871     36.909742
     -2.667668     20.680621     20.680621     41.361242
     -2.657658     23.276770     23.276770     46.553540
     -2.647648     25.854550     25.854550     51.709101
     -2.637638     28.058911     28.058911     56.117822
     -2.627628     29.717272     29.717272     59.434545
     -2.617618     30.883258     30.883258     61.766516
     -2.607608     31.756935     31.756935     63.513870
     -2.597598     32.542248     32.542248     65.084495
     -2.587588     33.333714     33.333714     66.667427
     -2.577578     34.088317     34.088317     68.176635
     -2.567568     34.669322     34.669322     69.338644
     -2.557558     34.905668     34.905668     69.811336
     -2.547548     34.625359     34.625359     69.250719
     -2.537538     33.670844     33.670844     67.341689
     -2.527528     31.935159     31.935159     63.870317
     -2.517518     29.437310     29.437310     58.874619
     -2.507508     26.403281     26.403281     52.806561
     -2.497497     23.286010     23.286010     46.572020
     -2.487487     20.678240     20.678240     41.356481
     -2.477477     19.134677     19.134677     38.269355
     -2.467467     18.979678     18.979678     37.959357
     -2.457457     20.193450     20.193450     40.386900
     -2.447447     22.434467     22.434467     44.868935
     -2.437437     25.190299     25.190299     50.380597
     -2.427427     27.987582     27.987582     55.975165
     -2.417417     30.563414     30.563414     61.126827
     -2.407407     32.917728     32.917728     65.835457
     -2.397397     35.222171     35.222171     70.444342
     -2.387387     37.630437     37.630437     75.260874
     -2.377377     40.085680     40.085680     80.171360
     -2.367367     42.227359     42.227359     84.454717
     -2.357357     43.457437     43.457437     86.914874
     -2.347347     43.151462     43.151462     86.302923
     -2.337337     40.927540     40.927540     81.855079
     -2.327327     36.852329     36.852329     73.704657
     -2.317317     31.488375     31.488375     62.976750
     -2.307307     25.760672     25.760672     51.521343
     -2.297297     20.702166     20.702166     41.404332
     -2.287287     17.183251     17.183251     34.366501
     -2.277277     15.719747     15.719747     31.439495
     -2.267267     16.404414     16.404414     32.808827
     -2.257257     18.953734     18.953734     37.907468
     -2.247247     22.829662     22.829662     45.659324
     -2.237237     27.387434     27.387434     54.774867
     -2.227227     32.005517     32.005517     64.011034
     -2.217217     36.166065     36.166065     72.332129
     -2.207207     39.475292     39.475292     78.950584
     -2.197197     41.641638     41.641638     83.283276
     -2.187187     42.452267     42.452267     84.904533
     -2.177177     41.786664     41.786664     83.573328
     -2.167167     39.673400     39.673400     79.346800
     -2.157157     36.350822     36.350822     72.701645
     -2.147147     32.269505     32.269505     64.539011
     -2.137137     27.998042     27.998042     55.996085
     -2.127127     24.054632     24.054632     48.109264
     -2.117117     20.743156     20.743156     41.486313
     -2.107107     18.080939     18.080939     36.161878
     -2.097097     15.856142     15.856142     31.712284
     -2.087087     13.778389     13.778389     27.556778
     -2.077077     11.637107     11.637107     23.274213
     -2.067067      9.388311      9.388311     18.776623
     -2.057057      7.141927      7.141927     14.283855
     -2.047047      5.079395      5.079395     10.158791
     -2.037037      3.359586      3.359586      6.719172
     -2.027027      2.060372      2.060372      4.120744
     -2.017017      1.170818      1.170818      2.341636
     -2.007007      0.619992      0.619992      1.239983
     -1.996997      0.317600      0.317600      0.635200
     -1.986987      0.187646      0.187646      0.375292
     -1.976977      0.188576      0.188576      0.377151
     -1.966967      0.322214      0.322214      0.644428
     -1.956957      0.635416      0.635416      1.270832
     -1.946947      1.214797      1.214797      2.429593
     -1.936937      2.170726      2.170726      4.341452
     -1.926927      3.606698      3.606698      7.213397
     -1.916917      5.576253      5.576253     11.152506
     -1.906907      8.039582      8.039582     16.079163
     -1.896897     10.839106     10.839106     21.678213
     -1.886887     13.710673     13.710673     27.421347
     -1.876877     16.333438     16.333438     32.666875
     -1.866867     18.404314     18.404314     36.808627
     -1.856857     19.712591     19.712591     39.425182
     -1.846847     20.191683     20.191683     40.383365
     -1.836837     19.933411     19.933411     39.866821
     -1.826827     19.158888     19.158888     38.317776
     -1.816817     18.148436     18.148436     36.296872
     -1.806807     17.146174     17.146174     34.292348
     -1.796797     16.272114     16.272114     32.544227
     -1.786787     15.483075     15.483075     30.966150
     -1.776777     14.608586     14.608586     29.217172
     -1.766767     13.450249     13.450249     26.900498
     -1.756757     11.895738     11.895738     23.791475
     -1.746747      9.989426      9.989426     19.978853
     -1.736737      7.929038      7.929038     15.858076
     -1.726727      6.002035      6.002035     12.004070
     -1.716717      4.505210      4.505210      9.010420
     -1.706707      3.687782      3.687782      7.375564
     -1.696697      3.729570      3.729570      7.459139
     -1.686687      4.735720      4.735720      9.471440
     -1.676677      6.719904      6.719904     13.439809
     -1.666667      9.564447      9.564447     19.128893
     -1.656657     12.976040     12.976040     25.952079
     -1.646647     16.477665     16.477665     32.955331
     -1.636637     19.472989     19.472989     38.945979
     -1.626627     21.386319     21.386319     42.772638
