# EIG2DOS: Utility for SIESTA to obtain the electronic density of states
#  E. Artacho, Apr 1999, A. Garcia, Apr 2012
#  Nick R. Papior, Feb 2017
# ------------------------------------------
# Eigenvalues calculated from a non-polarized calculation
# Eigenvalues read from siesta.EIG
# Kpoint weights read from siesta.KP
# Using smearing parameter:   0.0500
# Using 1000 points in the energy range
# Selected bands: 1 to: 2981
# Emin, Emax in file for selected band(s):    -27.2394238    218.3608460
# Nbands, Nspin, Nk   =   2981     1     1
# E_F                 =    -4.2443 eV --> (shifted to ZERO)
# Broadening          =     0.0500 eV
#
#        E            N(up)  (=)   N(down)         Ntot
     -5.000000     34.270154     34.270154     68.540309
     -4.989990     38.103285     38.103285     76.206569
     -4.979980     41.289290     41.289290     82.578581
     -4.969970     43.359247     43.359247     86.718493
     -4.959960     43.982700     43.982700     87.965400
     -4.949950     43.074015     43.074015     86.148030
     -4.939940     40.833554     40.833554     81.667107
     -4.929930     37.720313     37.720313     75.440627
     -4.919920     34.380535     34.380535     68.761071
     -4.909910     31.559603     31.559603     63.119206
     -4.899900     30.003548     30.003548     60.007096
     -4.889890     30.334067     30.334067     60.668135
     -4.879880     32.885646     32.885646     65.771292
     -4.869870     37.534192     37.534192     75.068385
     -4.859860     43.597572     43.597572     87.195144
     -4.849850     49.901849     49.901849     99.803697
     -4.839840     55.051570     55.051570    110.103140
     -4.829830     57.836231     57.836231    115.672463
     -4.819820     57.612678     57.612678    115.225356
     -4.809810     54.492377     54.492377    108.984754
     -4.799800     49.251094     49.251094     98.502188
     -4.789790     43.015826     43.015826     86.031653
     -4.779780     36.884583     36.884583     73.769167
     -4.769770     31.641018     31.641018     63.282036
     -4.759760     27.647592     27.647592     55.295184
     -4.749750     24.899965     24.899965     49.799929
     -4.739740     23.163860     23.163860     46.327721
     -4.729730     22.113740     22.113740     44.227480
     -4.719720     21.428050     21.428050     42.856099
     -4.709710     20.835495     20.835495     41.670989
     -4.699700     20.131997     20.131997     40.263994
     -4.689690     19.195746     19.195746     38.391492
     -4.679680     18.019513     18.019513     36.039025
     -4.669670     16.757970     16.757970     33.515940
     -4.659660     15.762497     15.762497     31.524995
     -4.649650     15.563083     15.563083     31.126166
     -4.639640     16.768694     16.768694     33.537387
     -4.629630     19.891562     19.891562     39.783124
     -4.619620     25.141251     25.141251     50.282501
     -4.609610     32.261871     32.261871     64.523742
     -4.599600     40.486775     40.486775     80.973550
     -4.589590     48.654915     48.654915     97.309831
     -4.579580     55.478050     55.478050    110.956101
     -4.569570     59.886483     59.886483    119.772967
     -4.559560     61.339685     61.339685    122.679369
     -4.549550     59.989222     59.989222    119.978445
     -4.539540     56.629089     56.629089    113.258178
     -4.529530     52.444601     52.444601    104.889203
     -4.519520     48.644545     48.644545     97.289090
     -4.509510     46.103001     46.103001     92.206002
     -4.499499     45.131537     45.131537     90.263074
     -4.489489     45.451327     45.451327     90.902655
     -4.479479     46.358220     46.358220     92.716441
     -4.469469     47.003107     47.003107     94.006214
     -4.459459     46.675382     46.675382     93.350765
     -4.449449     44.992374     44.992374     89.984747
     -4.439439     41.951459     41.951459     83.902918
     -4.429429     37.864580     37.864580     75.729161
     -4.419419     33.234964     33.234964     66.469928
     -4.409409     28.636478     28.636478     57.272956
     -4.399399     24.624727     24.624727     49.249455
     -4.389389     21.672271     21.672271     43.344543
     -4.379379     20.105958     20.105958     40.211917
     -4.369369     20.040978     20.040978     40.081956
     -4.359359     21.336608     21.336608     42.673216
     -4.349349     23.613116     23.613116     47.226232
     -4.339339     26.350255     26.350255     52.700510
     -4.329329     29.044764     29.044764     58.089527
     -4.319319     31.366716     31.366716     62.733431
     -4.309309     33.248628     33.248628     66.497256
     -4.299299     34.870156     34.870156     69.740312
     -4.289289     36.545472     36.545472     73.090944
     -4.279279     38.555837     38.555837     77.111675
     -4.269269     40.985590     40.985590     81.971180
     -4.259259     43.619744     43.619744     87.239489
     -4.249249     45.950244     45.950244     91.900489
     -4.239239     47.310981     47.310981     94.621961
     -4.229229     47.113325     47.113325     94.226651
     -4.219219     45.096879     45.096879     90.193758
     -4.209209     41.479688     41.479688     82.959377
     -4.199199     36.922122     36.922122     73.844245
     -4.189189     32.306270     32.306270     64.612539
     -4.179179     28.430023     28.430023     56.860045
     -4.169169     25.759821     25.759821     51.519642
     -4.159159     24.349728     24.349728     48.699455
     -4.149149     23.942904     23.942904     47.885808
     -4.139139     24.182025     24.182025     48.364050
     -4.129129     24.813875     24.813875     49.627750
     -4.119119     25.790238     25.790238     51.580477
     -4.109109     27.223456     27.223456     54.446911
     -4.099099     29.224294     29.224294     58.448589
     -4.089089     31.708684     31.708684     63.417369
     -4.079079     34.285335     34.285335     68.570669
     -4.069069     36.308303     36.308303     72.616606
     -4.059059     37.097514     37.097514     74.195029
     -4.049049     36.232395     36.232395     72.464791
     -4.039039     33.769283     33.769283     67.538566
     -4.029029     30.264496     30.264496     60.528991
     -4.019019     26.589044     26.589044     53.178087
     -4.009009     23.632920     23.632920     47.265839
     -3.998999     22.045589     22.045589     44.091179
     -3.988989     22.118963     22.118963     44.237926
     -3.978979     23.825006     23.825006     47.650012
     -3.968969     26.938646     26.938646     53.877293
     -3.958959     31.156152     31.156152     62.312304
     -3.948949     36.159399     36.159399     72.318798
     -3.938939     41.635157     41.635157     83.270313
     -3.928929     47.287897     47.287897     94.575794
     -3.918919     52.867908     52.867908    105.735817
     -3.908909     58.197402     58.197402    116.394805
     -3.898899     63.156523     63.156523    126.313046
     -3.888889     67.610921     67.610921    135.221842
     -3.878879     71.309554     71.309554    142.619109
     -3.868869     73.819351     73.819351    147.638702
     -3.858859     74.561561     74.561561    149.123122
     -3.848849     72.968775     72.968775    145.937551
     -3.838839     68.715124     68.715124    137.430248
     -3.828829     61.922129     61.922129    123.844258
     -3.818819     53.238937     53.238937    106.477873
     -3.808809     43.744210     43.744210     87.488421
     -3.798799     34.694276     34.694276     69.388553
     -3.788789     27.207808     27.207808     54.415616
     -3.778779     21.998487     21.998487     43.996975
     -3.768769     19.238470     19.238470     38.476940
     -3.758759     18.579389     18.579389     37.158778
     -3.748749     19.305004     19.305004     38.610008
     -3.738739     20.559528     20.559528     41.119056
     -3.728729     21.588808     21.588808     43.177616
     -3.718719     21.938353     21.938353     43.876707
     -3.708709     21.564483     21.564483     43.128966
     -3.698699     20.830815     20.830815     41.661631
     -3.688689     20.384478     20.384478     40.768956
     -3.678679     20.936270     20.936270     41.872540
     -3.668669     23.002403     23.002403     46.004806
     -3.658659     26.690323     26.690323     53.380645
     -3.648649     31.610662     31.610662     63.221323
     -3.638639     36.960014     36.960014     73.920027
     -3.628629     41.752179     41.752179     83.504359
     -3.618619     45.109164     45.109164     90.218327
     -3.608609     46.496704     46.496704     92.993408
     -3.598599     45.821724     45.821724     91.643447
     -3.588589     43.381052     43.381052     86.762104
     -3.578579     39.715118     39.715118     79.430237
     -3.568569     35.440020     35.440020     70.880039
     -3.558559     31.107883     31.107883     62.215767
     -3.548549     27.111787     27.111787     54.223573
     -3.538539     23.637028     23.637028     47.274056
     -3.528529     20.664778     20.664778     41.329556
     -3.518519     18.034206     18.034206     36.068412
     -3.508509     15.550163     15.550163     31.100327
     -3.498498     13.096523     13.096523     26.193046
     -3.488488     10.705817     10.705817     21.411634
     -3.478478      8.556143      8.556143     17.112285
     -3.468468      6.902959      6.902959     13.805918
     -3.458458      5.980722      5.980722     11.961445
     -3.448448      5.913273      5.913273     11.826545
     -3.438438      6.659246      6.659246     13.318492
     -3.428428      8.005232      8.005232     16.010465
     -3.418418      9.611533      9.611533     19.223066
     -3.408408     11.106747     11.106747     22.213493
     -3.398398     12.210364     12.210364     24.420727
     -3.388388     12.842204     12.842204     25.684409
     -3.378378     13.170891     13.170891     26.341781
     -3.368368     13.573490     13.573490     27.146981
     -3.358358     14.518195     14.518195     29.036390
     -3.348348     16.416649     16.416649     32.833298
     -3.338338     19.499190     19.499190     38.998379
     -3.328328     23.743489     23.743489     47.486978
     -3.318318     28.857030     28.857030     57.714061
     -3.308308     34.301773     34.301773     68.603546
     -3.298298     39.359428     39.359428     78.718857
     -3.288288     43.246726     43.246726     86.493451
     -3.278278     45.277817     45.277817     90.555635
     -3.268268     45.036522     45.036522     90.073044
     -3.258258     42.494184     42.494184     84.988368
     -3.248248     38.019952     38.019952     76.039904
     -3.238238     32.278574     32.278574     64.557148
     -3.228228     26.063054     26.063054     52.126107
     -3.218218     20.129825     20.129825     40.259649
     -3.208208     15.084669     15.084669     30.169337
     -3.198198     11.330201     11.330201     22.660402
     -3.188188      9.058455      9.058455     18.116910
     -3.178178      8.267522      8.267522     16.535043
     -3.168168      8.792993      8.792993     17.585986
     -3.158158     10.357693     10.357693     20.715385
     -3.148148     12.643694     12.643694     25.287387
     -3.138138     15.375513     15.375513     30.751026
     -3.128128     18.382626     18.382626     36.765252
     -3.118118     21.602885     21.602885     43.205770
     -3.108108     25.011332     25.011332     50.022664
     -3.098098     28.505296     28.505296     57.010592
     -3.088088     31.816290     31.816290     63.632581
     -3.078078     34.517555     34.517555     69.035111
     -3.068068     36.143998     36.143998     72.287995
     -3.058058     36.368669     36.368669     72.737339
     -3.048048     35.137463     35.137463     70.274925
     -3.038038     32.684741     32.684741     65.369482
     -3.028028     29.425580     29.425580     58.851160
     -3.018018     25.795040     25.795040     51.590081
     -3.008008     22.130057     22.130057     44.260113
     -2.997998     18.651096     18.651096     37.302192
     -2.987988     15.530633     15.530633     31.061266
     -2.977978     12.984001     12.984001     25.968003
     -2.967968     11.314713     11.314713     22.629425
     -2.957958     10.882144     10.882144     21.764288
     -2.947948     12.003349     12.003349     24.006699
     -2.937938     14.827913     14.827913     29.655827
     -2.927928     19.231586     19.231586     38.463172
     -2.917918     24.769486     24.769486     49.538971
     -2.907908     30.717853     30.717853     61.435705
     -2.897898     36.211122     36.211122     72.422245
     -2.887888     40.446784     40.446784     80.893568
     -2.877878     42.894792     42.894792     85.789584
     -2.867868     43.432228     43.432228     86.864455
     -2.857858     42.343996     42.343996     84.687992
     -2.847848     40.183903     40.183903     80.367807
     -2.837838     37.553312     37.553312     75.106625
     -2.827828     34.893623     34.893623     69.787245
     -2.817818     32.381395     32.381395     64.762791
     -2.807808     29.962846     29.962846     59.925692
     -2.797798     27.494097     27.494097     54.988194
     -2.787788     24.902413     24.902413     49.804825
     -2.777778     22.279049     22.279049     44.558098
     -2.767768     19.858469     19.858469     39.716938
     -2.757758     17.906279     17.906279     35.812559
     -2.747748     16.590577     16.590577     33.181154
     -2.737738     15.917784     15.917784     31.835569
     -2.727728     15.770254     15.770254     31.540508
     -2.717718     16.015321     16.015321     32.030642
     -2.707708     16.607044     16.607044     33.214087
     -2.697698     17.605766     17.605766     35.211531
     -2.687688     19.097224     19.097224     38.194448
     -2.677678     21.066008     21.066008     42.132016
     -2.667668     23.317049     23.317049     46.634098
     -2.657658     25.512802     25.512802     51.025604
     -2.647648     27.316751     27.316751     54.633503
     -2.637638     28.557931     28.557931     57.115863
     -2.627628     29.311364     29.311364     58.622728
     -2.617618     29.842261     29.842261     59.684522
     -2.607608     30.450570     30.450570     60.901141
     -2.597598     31.312813     31.312813     62.625625
     -2.587588     32.408063     32.408063     64.816125
     -2.577578     33.547854     33.547854     67.095709
     -2.567568     34.462236     34.462236     68.924471
     -2.557558     34.877560     34.877560     69.755120
     -2.547548     34.559413     34.559413     69.118827
     -2.537538     33.342849     33.342849     66.685698
     -2.527528     31.183609     31.183609     62.367218
     -2.517518     28.229321     28.229321     56.458642
     -2.507508     24.864635     24.864635     49.729271
     -2.497497     21.674084     21.674084     43.348168
     -2.487487     19.304767     19.304767     38.609533
     -2.477477     18.271206     18.271206     36.542411
     -2.467467     18.785077     18.785077     37.570154
     -2.457457     20.688330     20.688330     41.376660
     -2.447447     23.523529     23.523529     47.047059
     -2.437437     26.713895     26.713895     53.427790
     -2.427427     29.775674     29.775674     59.551349
     -2.417417     32.469093     32.469093     64.938186
     -2.407407     34.820086     34.820086     69.640173
     -2.397397     37.004130     37.004130     74.008261
     -2.387387     39.149957     39.149957     78.299914
     -2.377377     41.163057     41.163057     82.326115
     -2.367367     42.664713     42.664713     85.329425
     -2.357357     43.090796     43.090796     86.181593
     -2.347347     41.917370     41.917370     83.834740
     -2.337337     38.913887     38.913887     77.827774
     -2.327327     34.305362     34.305362     68.610724
     -2.317317     28.765941     28.765941     57.531882
     -2.307307     23.247110     23.247110     46.494220
     -2.297297     18.718254     18.718254     37.436508
     -2.287287     15.924779     15.924779     31.849557
     -2.277277     15.241923     15.241923     30.483847
     -2.267267     16.647377     16.647377     33.294755
     -2.257257     19.788853     19.788853     39.577706
     -2.247247     24.102609     24.102609     48.205218
     -2.237237     28.941193     28.941193     57.882386
     -2.227227     33.680013     33.680013     67.360026
     -2.217217     37.785374     37.785374     75.570748
     -2.207207     40.841846     40.841846     81.683691
     -2.197197     42.554083     42.554083     85.108166
     -2.187187     42.749437     42.749437     85.498874
     -2.177177     41.401540     41.401540     82.803080
     -2.167167     38.669257     38.669257     77.338514
     -2.157157     34.915438     34.915438     69.830876
     -2.147147     30.662016     30.662016     61.324032
     -2.137137     26.467245     26.467245     52.934490
     -2.127127     22.763585     22.763585     45.527171
     -2.117117     19.733021     19.733021     39.466043
     -2.107107     17.287380     17.287380     34.574760
     -2.097097     15.165205     15.165205     30.330409
     -2.087087     13.090818     13.090818     26.181635
     -2.077077     10.910315     10.910315     21.820630
     -2.067067      8.641740      8.641740     17.283480
     -2.057057      6.432584      6.432584     12.865168
     -2.047047      4.467238      4.467238      8.934476
     -2.037037      2.881695      2.881695      5.763391
     -2.027027      1.722587      1.722587      3.445173
     -2.017017      0.954295      0.954295      1.908591
     -2.007007      0.494382      0.494382      0.988765
     -1.996997      0.253251      0.253251      0.506501
     -1.986987      0.163473      0.163473      0.326945
     -1.976977      0.196454      0.196454      0.392909
     -1.966967      0.371057      0.371057      0.742114
     -1.956957      0.758524      0.758524      1.517048
     -1.946947      1.483036      1.483036      2.966073
     -1.936937      2.711575      2.711575      5.423150
     -1.926927      4.624708      4.624708      9.249417
     -1.916917      7.364232      7.364232     14.728464
     -1.906907     10.964292     10.964292     21.928585
     -1.896897     15.285829     15.285829     30.571657
     -1.886887     19.982991     19.982991     39.965983
     -1.876877     24.528191     24.528191     49.056383
     -1.866867     28.306881     28.306881     56.613762
     -1.856857     30.766965     30.766965     61.533931
     -1.846847     31.579425     31.579425     63.158851
     -1.836837     30.749161     30.749161     61.498322
     -1.826827     28.621767     28.621767     57.243533
     -1.816817     25.768608     25.768608     51.537216
     -1.806807     22.787956     22.787956     45.575913
     -1.796797     20.105686     20.105686     40.211372
     -1.786787     17.864728     17.864728     35.729456
     -1.776777     15.948725     15.948725     31.897451
     -1.766767     14.115138     14.115138     28.230276
     -1.756757     12.159022     12.159022     24.318043
     -1.746747     10.023252     10.023252     20.046504
     -1.736737      7.813284      7.813284     15.626567
     -1.726727      5.732987      5.732987     11.465973
     -1.716717      3.995073      3.995073      7.990146
     -1.706707      2.757591      2.757591      5.515181
     -1.696697      2.107225      2.107225      4.214449
     -1.686687      2.075757      2.075757      4.151513
     -1.676677      2.658979      2.658979      5.317957
     -1.666667      3.813676      3.813676      7.627352
     -1.656657      5.430533      5.430533     10.861066
     -1.646647      7.304655      7.304655     14.609310
     -1.636637      9.136407      9.136407     18.272815
     -1.626627     10.585090     10.585090     21.170180
