# EIG2DOS: Utility for SIESTA to obtain the electronic density of states
#  E. Artacho, Apr 1999, A. Garcia, Apr 2012
#  Nick R. Papior, Feb 2017
# ------------------------------------------
# Eigenvalues calculated from a non-polarized calculation
# Eigenvalues read from siesta.EIG
# Kpoint weights read from siesta.KP
# Using smearing parameter:   0.0500
# Using 1000 points in the energy range
# Selected bands: 1 to: 2981
# Emin, Emax in file for selected band(s):    -27.1086398    218.3310080
# Nbands, Nspin, Nk   =   2981     1     1
# E_F                 =    -4.2768 eV --> (shifted to ZERO)
# Broadening          =     0.0500 eV
#
#        E            N(up)  (=)   N(down)         Ntot
     -5.000000     42.789663     42.789663     85.579326
     -4.989990     44.475906     44.475906     88.951812
     -4.979980     45.526485     45.526485     91.052969
     -4.969970     45.817021     45.817021     91.634043
     -4.959960     45.203780     45.203780     90.407560
     -4.949950     43.614458     43.614458     87.228916
     -4.939940     41.130986     41.130986     82.261973
     -4.929930     38.031265     38.031265     76.062531
     -4.919920     34.783645     34.783645     69.567290
     -4.909910     32.003306     32.003306     64.006612
     -4.899900     30.373854     30.373854     60.747708
     -4.889890     30.523373     30.523373     61.046746
     -4.879880     32.848277     32.848277     65.696553
     -4.869870     37.315562     37.315562     74.631124
     -4.859860     43.326376     43.326376     86.652751
     -4.849850     49.744886     49.744886     99.489772
     -4.839840     55.147638     55.147638    110.295277
     -4.829830     58.238677     58.238677    116.477355
     -4.819820     58.268322     58.268322    116.536644
     -4.809810     55.265989     55.265989    110.531979
     -4.799800     49.980656     49.980656     99.961312
     -4.789790     43.570116     43.570116     87.140232
     -4.779780     37.198809     37.198809     74.397618
     -4.769770     31.722601     31.722601     63.445201
     -4.759760     27.559706     27.559706     55.119412
     -4.749750     24.735896     24.735896     49.471793
     -4.739740     23.021379     23.021379     46.042759
     -4.729730     22.072777     22.072777     44.145554
     -4.719720     21.532603     21.532603     43.065206
     -4.709710     21.081112     21.081112     42.162224
     -4.699700     20.459171     20.459171     40.918342
     -4.689690     19.485620     19.485620     38.971241
     -4.679680     18.085201     18.085201     36.170402
     -4.669670     16.328188     16.328188     32.656377
     -4.659660     14.465634     14.465634     28.931267
     -4.649650     12.933652     12.933652     25.867303
     -4.639640     12.303621     12.303621     24.607242
     -4.629630     13.170993     13.170993     26.341986
     -4.619620     15.996048     15.996048     31.992097
     -4.609610     20.930128     20.930128     41.860256
     -4.599600     27.679126     27.679126     55.358251
     -4.589590     35.466577     35.466577     70.933155
     -4.579580     43.147252     43.147252     86.294504
     -4.569570     49.476613     49.476613     98.953225
     -4.559560     53.470681     53.470681    106.941361
     -4.549550     54.729717     54.729717    109.459434
     -4.539540     53.589441     53.589441    107.178883
     -4.529530     51.022298     51.022298    102.044595
     -4.519520     48.314354     48.314354     96.628707
     -4.509510     46.638395     46.638395     93.276791
     -4.499499     46.682733     46.682733     93.365465
     -4.489489     48.463039     48.463039     96.926078
     -4.479479     51.363861     51.363861    102.727721
     -4.469469     54.369845     54.369845    108.739691
     -4.459459     56.390566     56.390566    112.781132
     -4.449449     56.570638     56.570638    113.141276
     -4.439439     54.500907     54.500907    109.001814
     -4.429429     50.289683     50.289683    100.579366
     -4.419419     44.498898     44.498898     88.997795
     -4.409409     37.985101     37.985101     75.970202
     -4.399399     31.699995     31.699995     63.399989
     -4.389389     26.498672     26.498672     52.997343
     -4.379379     22.986400     22.986400     45.972801
     -4.369369     21.421466     21.421466     42.842932
     -4.359359     21.688117     21.688117     43.376235
     -4.349349     23.351291     23.351291     46.702582
     -4.339339     25.790409     25.790409     51.580818
     -4.329329     28.381792     28.381792     56.763583
     -4.319319     30.673657     30.673657     61.347313
     -4.309309     32.493980     32.493980     64.987959
     -4.299299     33.955743     33.955743     67.911486
     -4.289289     35.362746     35.362746     70.725492
     -4.279279     37.051413     37.051413     74.102826
     -4.269269     39.219239     39.219239     78.438478
     -4.259259     41.792777     41.792777     83.585554
     -4.249249     44.384040     44.384040     88.768080
     -4.239239     46.369414     46.369414     92.738828
     -4.229229     47.087977     47.087977     94.175955
     -4.219219     46.098453     46.098453     92.196905
     -4.209209     43.385318     43.385318     86.770635
     -4.199199     39.406601     39.406601     78.813203
     -4.189189     34.944959     34.944959     69.889919
     -4.179179     30.826459     30.826459     61.652919
     -4.169169     27.643147     27.643147     55.286293
     -4.159159     25.608470     25.608470     51.216939
     -4.149149     24.596150     24.596150     49.192301
     -4.139139     24.315977     24.315977     48.631955
     -4.129129     24.520199     24.520199     49.040398
     -4.119119     25.134199     25.134199     50.268399
     -4.109109     26.252055     26.252055     52.504109
     -4.099099     28.004570     28.004570     56.009140
     -4.089089     30.370158     30.370158     60.740315
     -4.079079     33.035348     33.035348     66.070695
     -4.069069     35.400284     35.400284     70.800568
     -4.059059     36.757660     36.757660     73.515320
     -4.049049     36.576586     36.576586     73.153172
     -4.039039     34.751823     34.751823     69.503646
     -4.029029     31.685251     31.685251     63.370501
     -4.019019     28.154592     28.154592     56.309184
     -4.009009     25.040834     25.040834     50.081668
     -3.998999     23.055164     23.055164     46.110327
     -3.988989     22.586956     22.586956     45.173912
     -3.978979     23.707281     23.707281     47.414562
     -3.968969     26.272177     26.272177     52.544354
     -3.958959     30.035007     30.035007     60.070014
     -3.948949     34.709435     34.709435     69.418870
     -3.938939     39.986269     39.986269     79.972537
     -3.928929     45.545654     45.545654     91.091308
     -3.918919     51.094623     51.094623    102.189246
     -3.908909     56.416446     56.416446    112.832892
     -3.898899     61.385681     61.385681    122.771362
     -3.888889     65.912702     65.912702    131.825404
     -3.878879     69.829969     69.829969    139.659937
     -3.868869     72.785116     72.785116    145.570232
     -3.858859     74.224026     74.224026    148.448051
     -3.848849     73.512434     73.512434    147.024869
     -3.838839     70.171571     70.171571    140.343142
     -3.828829     64.131477     64.131477    128.262954
     -3.818819     55.878716     55.878716    111.757432
     -3.808809     46.413824     46.413824     92.827648
     -3.798799     37.019903     37.019903     74.039807
     -3.788789     28.929315     28.929315     57.858630
     -3.778779     23.014054     23.014054     46.028108
     -3.768769     19.602648     19.602648     39.205297
     -3.758759     18.465046     18.465046     36.930092
     -3.748749     18.945066     18.945066     37.890133
     -3.738739     20.183503     20.183503     40.367006
     -3.728729     21.366393     21.366393     42.732786
     -3.718719     21.940425     21.940425     43.880850
     -3.708709     21.749691     21.749691     43.499383
     -3.698699     21.062224     21.062224     42.124449
     -3.688689     20.474322     20.474322     40.948645
     -3.678679     20.708728     20.708728     41.417455
     -3.668669     22.356655     22.356655     44.713309
     -3.658659     25.642780     25.642780     51.285560
     -3.648649     30.299667     30.299667     60.599334
     -3.638639     35.609370     35.609370     71.218741
     -3.628629     40.606923     40.606923     81.213847
     -3.618619     44.369049     44.369049     88.738099
     -3.608609     46.272175     46.272175     92.544350
     -3.598599     46.123722     46.123722     92.247443
     -3.588589     44.138908     44.138908     88.277817
     -3.578579     40.807140     40.807140     81.614280
     -3.568569     36.723497     36.723497     73.446993
     -3.558559     32.443625     32.443625     64.887251
     -3.548549     28.383932     28.383932     56.767864
     -3.538539     24.767955     24.767955     49.535911
     -3.528529     21.621365     21.621365     43.242729
     -3.518519     18.821640     18.821640     37.643280
     -3.508509     16.194706     16.194706     32.389412
     -3.498498     13.624818     13.624818     27.249637
     -3.488488     11.130134     11.130134     22.260268
     -3.478478      8.870999      8.870999     17.741997
     -3.468468      7.092307      7.092307     14.184614
     -3.458458      6.030664      6.030664     12.061328
     -3.448448      5.824592      5.824592     11.649185
     -3.438438      6.455414      6.455414     12.910828
     -3.428428      7.732868      7.732868     15.465736
     -3.418418      9.331585      9.331585     18.663171
     -3.408408     10.877086     10.877086     21.754173
     -3.398398     12.064323     12.064323     24.128647
     -3.388388     12.770777     12.770777     25.541554
     -3.378378     13.115900     13.115900     26.231800
     -3.368368     13.434340     13.434340     26.868679
     -3.358358     14.168576     14.168576     28.337151
     -3.348348     15.724062     15.724062     31.448123
     -3.338338     18.340991     18.340991     36.681981
     -3.328328     22.016199     22.016199     44.032398
     -3.318318     26.477272     26.477272     52.954545
     -3.308308     31.197339     31.197339     62.394678
     -3.298298     35.451770     35.451770     70.903539
     -3.288288     38.434906     38.434906     76.869812
     -3.278278     39.443606     39.443606     78.887211
     -3.268268     38.088430     38.088430     76.176860
     -3.258258     34.446575     34.446575     68.893150
     -3.248248     29.070915     29.070915     58.141830
     -3.238238     22.831993     22.831993     45.663986
     -3.228228     16.657255     16.657255     33.314511
     -3.218218     11.283689     11.283689     22.567377
     -3.208208      7.122807      7.122807     14.245614
     -3.198198      4.268963      4.268963      8.537927
     -3.188188      2.612179      2.612179      5.224358
     -3.178178      1.983677      1.983677      3.967355
     -3.168168      2.270919      2.270919      4.541838
     -3.158158      3.468747      3.468747      6.937495
     -3.148148      5.662247      5.662247     11.324495
     -3.138138      8.956136      8.956136     17.912272
     -3.128128     13.377471     13.377471     26.754941
     -3.118118     18.786258     18.786258     37.572516
     -3.108108     24.830004     24.830004     49.660008
     -3.098098     30.968030     30.968030     61.936061
     -3.088088     36.568431     36.568431     73.136863
     -3.078078     41.051176     41.051176     82.102352
     -3.068068     44.027191     44.027191     88.054382
     -3.058058     45.377552     45.377552     90.755104
     -3.048048     45.236660     45.236660     90.473321
     -3.038038     43.885674     43.885674     87.771347
     -3.028028     41.609834     41.609834     83.219667
     -3.018018     38.597535     38.597535     77.195069
     -3.008008     34.938333     34.938333     69.876666
     -2.997998     30.717764     30.717764     61.435528
     -2.987988     26.145560     26.145560     52.291121
     -2.977978     21.632899     21.632899     43.265798
     -2.967968     17.766787     17.766787     35.533574
     -2.957958     15.188994     15.188994     30.377987
     -2.947948     14.431114     14.431114     28.862228
     -2.937938     15.764658     15.764658     31.529316
     -2.927928     19.106266     19.106266     38.212533
     -2.917918     23.997719     23.997719     47.995438
     -2.907908     29.669731     29.669731     59.339461
     -2.897898     35.188795     35.188795     70.377590
     -2.887888     39.664791     39.664791     79.329581
     -2.877878     42.466040     42.466040     84.932080
     -2.867868     43.368261     43.368261     86.736522
     -2.857858     42.575780     42.575780     85.151560
     -2.847848     40.600791     40.600791     81.201581
     -2.837838     38.048489     38.048489     76.096979
     -2.827828     35.399591     35.399591     70.799183
     -2.817818     32.882011     32.882011     65.764021
     -2.807808     30.478550     30.478550     60.957101
     -2.797798     28.049865     28.049865     56.099729
     -2.787788     25.496640     25.496640     50.993280
     -2.777778     22.870653     22.870653     45.741306
     -2.767768     20.378319     20.378319     40.756637
     -2.757758     18.283817     18.283817     36.567634
     -2.747748     16.776668     16.776668     33.553335
     -2.737738     15.887536     15.887536     31.775072
     -2.727728     15.504280     15.504280     31.008559
     -2.717718     15.475771     15.475771     30.951542
     -2.707708     15.733098     15.733098     31.466195
     -2.697698     16.344026     16.344026     32.688052
     -2.687688     17.458499     17.458499     34.916998
     -2.677678     19.175728     19.175728     38.351456
     -2.667668     21.420018     21.420018     42.840036
     -2.657658     23.913263     23.913263     47.826527
     -2.647648     26.272900     26.272900     52.545801
     -2.637638     28.181931     28.181931     56.363862
     -2.627628     29.528090     29.528090     59.056180
     -2.617618     30.428123     30.428123     60.856246
     -2.607608     31.128585     31.128585     62.257170
     -2.597598     31.852700     31.852700     63.705400
     -2.587588     32.687621     32.687621     65.375243
     -2.577578     33.563804     33.563804     67.127608
     -2.567568     34.307592     34.307592     68.615184
     -2.557558     34.708154     34.708154     69.416307
     -2.547548     34.557877     34.557877     69.115753
     -2.537538     33.674869     33.674869     67.349739
     -2.527528     31.944630     31.944630     63.889259
     -2.517518     29.396448     29.396448     58.792896
     -2.507508     26.279889     26.279889     52.559778
     -2.497497     23.076990     23.076990     46.153981
     -2.487487     20.407963     20.407963     40.815925
     -2.477477     18.849228     18.849228     37.698456
     -2.467467     18.739522     18.739522     37.479043
     -2.457457     20.064963     20.064963     40.129926
     -2.447447     22.479737     22.479737     44.959475
     -2.437437     25.455530     25.455530     50.911059
     -2.427427     28.492178     28.492178     56.984356
     -2.417417     31.292297     31.292297     62.584594
     -2.407407     33.818312     33.818312     67.636624
     -2.397397     36.206256     36.206256     72.412511
     -2.387387     38.581715     38.581715     77.163430
     -2.377377     40.874707     40.874707     81.749414
     -2.367367     42.735110     42.735110     85.470219
     -2.357357     43.604214     43.604214     87.208428
     -2.347347     42.922055     42.922055     85.844111
     -2.337337     40.381130     40.381130     80.762260
     -2.327327     36.110187     36.110187     72.220374
     -2.317317     30.702386     30.702386     61.404772
     -2.307307     25.074774     25.074774     50.149548
     -2.297297     20.221173     20.221173     40.442347
     -2.287287     16.958240     16.958240     33.916481
     -2.277277     15.750619     15.750619     31.501238
     -2.267267     16.653723     16.653723     33.307447
     -2.257257     19.363941     19.363941     38.727883
     -2.247247     23.337430     23.337430     46.674859
     -2.237237     27.931528     27.931528     55.863056
     -2.227227     32.528147     32.528147     65.056293
     -2.217217     36.610742     36.610742     73.221485
     -2.207207     39.786404     39.786404     79.572809
     -2.197197     41.770054     41.770054     83.540107
     -2.187187     42.367125     42.367125     84.734250
     -2.177177     41.488232     41.488232     82.976464
     -2.167167     39.199269     39.199269     78.398537
     -2.157157     35.770001     35.770001     71.540001
     -2.147147     31.664947     31.664947     63.329894
     -2.137137     27.444175     27.444175     54.888350
     -2.127127     23.598991     23.598991     47.197982
     -2.117117     20.399050     20.399050     40.798101
     -2.107107     17.832699     17.832699     35.665397
     -2.097097     15.672909     15.672909     31.345819
     -2.087087     13.629407     13.629407     27.258815
     -2.077077     11.502177     11.502177     23.004354
     -2.067067      9.260618      9.260618     18.521235
     -2.057057      7.024476      7.024476     14.048952
     -2.047047      4.978774      4.978774      9.957548
     -2.037037      3.280697      3.280697      6.561395
     -2.027027      2.004024      2.004024      4.008048
     -2.017017      1.134002      1.134002      2.268003
     -2.007007      0.597488      0.597488      1.194976
     -1.996997      0.303483      0.303483      0.606966
     -1.986987      0.175872      0.175872      0.351743
     -1.976977      0.172561      0.172561      0.345121
     -1.966967      0.293870      0.293870      0.587740
     -1.956957      0.584497      0.584497      1.168994
     -1.946947      1.129616      1.129616      2.259233
     -1.936937      2.041153      2.041153      4.082307
     -1.926927      3.429453      3.429453      6.858907
     -1.916917      5.360916      5.360916     10.721832
     -1.906907      7.812059      7.812059     15.624118
     -1.896897     10.638914     10.638914     21.277827
     -1.886887     13.580438     13.580438     27.160875
     -1.876877     16.303116     16.303116     32.606233
     -1.866867     18.476575     18.476575     36.953149
     -1.856857     19.856831     19.856831     39.713661
     -1.846847     20.351100     20.351100     40.702200
     -1.836837     20.044010     20.044010     40.088021
     -1.826827     19.174558     19.174558     38.349116
     -1.816817     18.064929     18.064929     36.129858
     -1.806807     17.018978     17.018978     34.037955
     -1.796797     16.226877     16.226877     32.453753
     -1.786787     15.719859     15.719859     31.439718
     -1.776777     15.400666     15.400666     30.801332
     -1.766767     15.133879     15.133879     30.267758
     -1.756757     14.840972     14.840972     29.681943
     -1.746747     14.539088     14.539088     29.078177
     -1.736737     14.300068     14.300068     28.600136
     -1.726727     14.163268     14.163268     28.326535
     -1.716717     14.070606     14.070606     28.141212
     -1.706707     13.877872     13.877872     27.755743
     -1.696697     13.442049     13.442049     26.884098
     -1.686687     12.728904     12.728904     25.457807
     -1.676677     11.867298     11.867298     23.734596
     -1.666667     11.107947     11.107947     22.215894
     -1.656657     10.702697     10.702697     21.405393
     -1.646647     10.768560     10.768560     21.537121
     -1.636637     11.211118     11.211118     22.422235
     -1.626627     11.751135     11.751135     23.502270
