# EIG2DOS: Utility for SIESTA to obtain the electronic density of states
#  E. Artacho, Apr 1999, A. Garcia, Apr 2012
#  Nick R. Papior, Feb 2017
# ------------------------------------------
# Eigenvalues calculated from a non-polarized calculation
# Eigenvalues read from siesta.EIG
# Kpoint weights read from siesta.KP
# Using smearing parameter:   0.0500
# Using 1000 points in the energy range
# Selected bands: 1 to: 2981
# Emin, Emax in file for selected band(s):    -27.2284741    218.3812390
# Nbands, Nspin, Nk   =   2981     1     1
# E_F                 =    -4.2195 eV --> (shifted to ZERO)
# Broadening          =     0.0500 eV
#
#        E            N(up)  (=)   N(down)         Ntot
     -5.000000     32.602070     32.602070     65.204140
     -4.989990     37.054870     37.054870     74.109741
     -4.979980     41.098408     41.098408     82.196816
     -4.969970     44.082844     44.082844     88.165687
     -4.959960     45.474475     45.474475     90.948949
     -4.949950     45.031116     45.031116     90.062233
     -4.939940     42.890754     42.890754     85.781508
     -4.929930     39.550595     39.550595     79.101190
     -4.919920     35.763704     35.763704     71.527409
     -4.909910     32.401163     32.401163     64.802326
     -4.899900     30.310825     30.310825     60.621649
     -4.889890     30.172506     30.172506     60.345011
     -4.879880     32.340267     32.340267     64.680534
     -4.869870     36.691887     36.691887     73.383774
     -4.859860     42.551256     42.551256     85.102513
     -4.849850     48.764286     48.764286     97.528572
     -4.839840     53.961108     53.961108    107.922215
     -4.829830     56.942352     56.942352    113.884704
     -4.819820     57.043518     57.043518    114.087035
     -4.809810     54.320098     54.320098    108.640196
     -4.799800     49.474273     49.474273     98.948545
     -4.789790     43.568067     43.568067     87.136133
     -4.779780     37.662964     37.662964     75.325929
     -4.769770     32.538328     32.538328     65.076656
     -4.759760     28.574551     28.574551     57.149102
     -4.749750     25.793810     25.793810     51.587620
     -4.739740     23.988867     23.988867     47.977733
     -4.729730     22.861783     22.861783     45.723567
     -4.719720     22.124288     22.124288     44.248577
     -4.709710     21.549646     21.549646     43.099292
     -4.699700     20.991431     20.991431     41.982861
     -4.689690     20.391507     20.391507     40.783013
     -4.679680     19.790611     19.790611     39.581223
     -4.669670     19.338075     19.338075     38.676150
     -4.659660     19.284667     19.284667     38.569335
     -4.649650     19.944678     19.944678     39.889356
     -4.639640     21.628424     21.628424     43.256849
     -4.629630     24.560585     24.560585     49.121170
     -4.619620     28.801416     28.801416     57.602832
     -4.609610     34.181788     34.181788     68.363577
     -4.599600     40.264497     40.264497     80.528995
     -4.589590     46.357917     46.357917     92.715833
     -4.579580     51.615687     51.615687    103.231374
     -4.569570     55.233064     55.233064    110.466127
     -4.559560     56.695684     56.695684    113.391367
     -4.549550     55.982938     55.982938    111.965877
     -4.539540     53.620010     53.620010    107.240020
     -4.529530     50.527945     50.527945    101.055890
     -4.519520     47.714453     47.714453     95.428906
     -4.509510     45.927368     45.927368     91.854736
     -4.499499     45.413425     45.413425     90.826850
     -4.489489     45.876673     45.876673     91.753346
     -4.479479     46.640034     46.640034     93.280069
     -4.469469     46.926871     46.926871     93.853742
     -4.459459     46.138340     46.138340     92.276679
     -4.449449     44.022092     44.022092     88.044184
     -4.439439     40.692185     40.692185     81.384370
     -4.429429     36.531742     36.531742     73.063483
     -4.419419     32.051800     32.051800     64.103600
     -4.409409     27.774531     27.774531     55.549061
     -4.399399     24.167569     24.167569     48.335137
     -4.389389     21.610918     21.610918     43.221835
     -4.379379     20.361025     20.361025     40.722051
     -4.369369     20.497744     20.497744     40.995489
     -4.359359     21.878360     21.878360     43.756720
     -4.349349     24.143954     24.143954     48.287908
     -4.339339     26.806224     26.806224     53.612448
     -4.329329     29.397267     29.397267     58.794534
     -4.319319     31.622894     31.622894     63.245787
     -4.309309     33.450453     33.450453     66.900905
     -4.299299     35.089570     35.089570     70.179141
     -4.289289     36.869875     36.869875     73.739749
     -4.279279     39.059801     39.059801     78.119601
     -4.269269     41.692504     41.692504     83.385008
     -4.259259     44.468077     44.468077     88.936154
     -4.249249     46.785312     46.785312     93.570624
     -4.239239     47.916537     47.916537     95.833075
     -4.229229     47.277874     47.277874     94.555749
     -4.219219     44.688430     44.688430     89.376860
     -4.209209     40.494845     40.494845     80.989690
     -4.199199     35.487790     35.487790     70.975581
     -4.189189     30.637080     30.637080     61.274159
     -4.179179     26.765185     26.765185     53.530371
     -4.169169     24.307579     24.307579     48.615159
     -4.159159     23.256506     23.256506     46.513012
     -4.149149     23.287996     23.287996     46.575991
     -4.139139     23.987558     23.987558     47.975116
     -4.129129     25.057638     25.057638     50.115276
     -4.119119     26.413505     26.413505     52.827010
     -4.109109     28.132892     28.132892     56.265784
     -4.099099     30.292836     30.292836     60.585672
     -4.089089     32.782521     32.782521     65.565042
     -4.079079     35.201745     35.201745     70.403490
     -4.069069     36.922890     36.922890     73.845780
     -4.059059     37.312863     37.312863     74.625726
     -4.049049     36.017711     36.017711     72.035422
     -4.039039     33.164317     33.164317     66.328634
     -4.029029     29.368675     29.368675     58.737351
     -4.019019     25.542601     25.542601     51.085201
     -4.009009     22.596793     22.596793     45.193585
     -3.998999     21.181988     21.181988     42.363976
     -3.988989     21.570273     21.570273     43.140547
     -3.978979     23.690023     23.690023     47.380046
     -3.968969     27.251186     27.251186     54.502373
     -3.958959     31.876020     31.876020     63.752040
     -3.948949     37.183741     37.183741     74.367481
     -3.938939     42.829229     42.829229     85.658457
     -3.928929     48.523785     48.523785     97.047570
     -3.918919     54.054610     54.054610    108.109220
     -3.908909     59.289321     59.289321    118.578643
     -3.898899     64.137979     64.137979    128.275957
     -3.888889     68.466504     68.466504    136.933008
     -3.878879     71.997970     71.997970    143.995940
     -3.868869     74.267398     74.267398    148.534797
     -3.858859     74.684638     74.684638    149.369276
     -3.848849     72.709378     72.709378    145.418755
     -3.838839     68.079535     68.079535    136.159070
     -3.828829     60.995073     60.995073    121.990146
     -3.818819     52.167249     52.167249    104.334498
     -3.808809     42.696707     42.696707     85.393413
     -3.798799     33.816045     33.816045     67.632090
     -3.788789     26.587200     26.587200     53.174401
     -3.778779     21.656039     21.656039     43.312078
     -3.768769     19.136003     19.136003     38.272007
     -3.758759     18.641032     18.641032     37.282064
     -3.748749     19.441434     19.441434     38.882868
     -3.738739     20.689747     20.689747     41.379495
     -3.728729     21.656720     21.656720     43.313440
     -3.718719     21.922733     21.922733     43.845467
     -3.708709     21.481181     21.481181     42.962362
     -3.698699     20.726450     20.726450     41.452899
     -3.688689     20.322220     20.322220     40.644441
     -3.678679     20.976411     20.976411     41.952822
     -3.668669     23.182475     23.182475     46.364950
     -3.658659     27.010649     27.010649     54.021298
     -3.648649     32.030377     32.030377     64.060755
     -3.638639     37.405626     37.405626     74.811251
     -3.628629     42.136351     42.136351     84.272702
     -3.618619     45.353543     45.353543     90.707086
     -3.608609     46.551247     46.551247     93.102494
     -3.598599     45.674805     45.674805     91.349609
     -3.588589     43.058527     43.058527     86.117055
     -3.578579     39.270301     39.270301     78.540601
     -3.568569     34.938678     34.938678     69.877356
     -3.558559     30.612789     30.612789     61.225579
     -3.548549     26.670595     26.670595     53.341189
     -3.538539     23.275985     23.275985     46.551969
     -3.528529     20.388967     20.388967     40.777934
     -3.518519     17.833035     17.833035     35.666071
     -3.508509     15.405231     15.405231     30.810461
     -3.498498     12.988664     12.988664     25.977329
     -3.488488     10.619235     10.619235     21.238471
     -3.478478      8.479382      8.479382     16.958765
     -3.468468      6.828079      6.828079     13.656159
     -3.458458      5.902523      5.902523     11.805046
     -3.448448      5.829755      5.829755     11.659509
     -3.438438      6.573214      6.573214     13.146428
     -3.428428      7.925862      7.925862     15.851724
     -3.418418      9.554495      9.554495     19.108990
     -3.408408     11.092245     11.092245     22.184491
     -3.398398     12.259835     12.259835     24.519669
     -3.388388     12.975667     12.975667     25.951334
     -3.378378     13.407506     13.407506     26.815012
     -3.368368     13.937482     13.937482     27.874964
     -3.358358     15.050777     15.050777     30.101553
     -3.348348     17.191546     17.191546     34.383093
     -3.338338     20.634314     20.634314     41.268628
     -3.328328     25.395808     25.395808     50.791617
     -3.318318     31.186233     31.186233     62.372465
     -3.308308     37.397102     37.397102     74.794204
     -3.298298     43.145176     43.145176     86.290351
     -3.288288     47.407285     47.407285     94.814569
     -3.278278     49.254966     49.254966     98.509931
     -3.268268     48.132646     48.132646     96.265292
     -3.258258     44.065464     44.065464     88.130927
     -3.248248     37.687752     37.687752     75.375503
     -3.238238     30.062739     30.062739     60.125478
     -3.228228     22.370250     22.370250     44.740500
     -3.218218     15.601061     15.601061     31.202121
     -3.208208     10.376528     10.376528     20.753055
     -3.198198      6.931687      6.931687     13.863374
     -3.188188      5.216702      5.216702     10.433403
     -3.178178      5.033059      5.033059     10.066117
     -3.168168      6.136740      6.136740     12.273479
     -3.158158      8.285919      8.285919     16.571838
     -3.148148     11.250360     11.250360     22.500721
     -3.138138     14.811183     14.811183     29.622366
     -3.128128     18.763963     18.763963     37.527925
     -3.118118     22.915602     22.915602     45.831203
     -3.108108     27.060007     27.060007     54.120015
     -3.098098     30.937501     30.937501     61.875001
     -3.088088     34.211085     34.211085     68.422171
     -3.078078     36.499392     36.499392     72.998785
     -3.068068     37.475421     37.475421     74.950842
     -3.058058     36.989280     36.989280     73.978561
     -3.048048     35.142473     35.142473     70.284946
     -3.038038     32.261089     32.261089     64.522178
     -3.028028     28.777020     28.777020     57.554039
     -3.018018     25.085849     25.085849     50.171699
     -3.008008     21.462957     21.462957     42.925915
     -2.997998     18.076775     18.076775     36.153550
     -2.987988     15.073246     15.073246     30.146493
     -2.977978     12.664564     12.664564     25.329127
     -2.967968     11.160964     11.160964     22.321928
     -2.957958     10.923400     10.923400     21.846799
     -2.947948     12.256215     12.256215     24.512429
     -2.937938     15.281427     15.281427     30.562854
     -2.927928     19.839304     19.839304     39.678609
     -2.917918     25.453054     25.453054     50.906108
     -2.907908     31.382546     31.382546     62.765092
     -2.897898     36.769269     36.769269     73.538538
     -2.887888     40.841129     40.841129     81.682259
     -2.877878     43.112722     43.112722     86.225443
     -2.867868     43.504484     43.504484     87.008967
     -2.857858     42.327496     42.327496     84.654992
     -2.847848     40.135035     40.135035     80.270069
     -2.837838     37.502648     37.502648     75.005297
     -2.827828     34.833111     34.833111     69.666221
     -2.817818     32.270104     32.270104     64.540208
     -2.807808     29.749021     29.749021     59.498042
     -2.797798     27.143344     27.143344     54.286688
     -2.787788     24.418544     24.418544     48.837088
     -2.777778     21.707799     21.707799     43.415598
     -2.767768     19.273275     19.273275     38.546549
     -2.757758     17.384627     17.384627     34.769254
     -2.747748     16.193592     16.193592     32.387184
     -2.737738     15.682309     15.682309     31.364618
     -2.727728     15.713855     15.713855     31.427711
     -2.717718     16.146125     16.146125     32.292249
     -2.707708     16.927576     16.927576     33.855153
     -2.697698     18.105176     18.105176     36.210353
     -2.687688     19.736250     19.736250     39.472501
     -2.677678     21.767176     21.767176     43.534353
     -2.667668     23.972468     23.972468     47.944935
     -2.657658     26.012218     26.012218     52.024436
     -2.647648     27.584875     27.584875     55.169751
     -2.637638     28.581938     28.581938     57.163876
     -2.627628     29.143504     29.143504     58.287008
     -2.617618     29.576570     29.576570     59.153139
     -2.607608     30.186926     30.186926     60.373853
     -2.597598     31.126101     31.126101     62.252202
     -2.587588     32.332999     32.332999     64.665998
     -2.577578     33.578459     33.578459     67.156919
     -2.567568     34.558662     34.558662     69.117324
     -2.557558     34.975369     34.975369     69.950738
     -2.547548     34.582322     34.582322     69.164644
     -2.537538     33.221691     33.221691     66.443381
     -2.527528     30.879277     30.879277     61.758553
     -2.517518     27.750831     27.750831     55.501663
     -2.507508     24.272318     24.272318     48.544636
     -2.497497     21.064538     21.064538     42.129076
     -2.487487     18.783981     18.783981     37.567962
     -2.477477     17.927937     17.927937     35.855875
     -2.467467     18.674761     18.674761     37.349522
     -2.457457     20.830711     20.830711     41.661422
     -2.447447     23.910137     23.910137     47.820274
     -2.437437     27.318283     27.318283     54.636567
     -2.427427     30.560463     30.560463     61.120926
     -2.417417     33.387310     33.387310     66.774620
     -2.407407     35.811790     35.811790     71.623581
     -2.397397     37.991632     37.991632     75.983265
     -2.387387     40.036078     40.036078     80.072156
     -2.377377     41.836946     41.836946     83.673892
     -2.367367     43.018208     43.018208     86.036417
     -2.357357     43.044267     43.044267     86.088534
     -2.347347     41.447933     41.447933     82.895865
     -2.337337     38.074094     38.074094     76.148189
     -2.327327     33.221192     33.221192     66.442383
     -2.317317     27.610804     27.610804     55.221607
     -2.307307     22.199851     22.199851     44.399701
     -2.297297     17.920899     17.920899     35.841797
     -2.287287     15.455342     15.455342     30.910685
     -2.277277     15.109829     15.109829     30.219657
     -2.267267     16.808993     16.808993     33.617986
     -2.257257     20.173367     20.173367     40.346735
     -2.247247     24.636203     24.636203     49.272405
     -2.237237     29.560168     29.560168     59.120336
     -2.227227     34.329873     34.329873     68.659746
     -2.217217     38.410473     38.410473     76.820946
     -2.207207     41.375714     41.375714     82.751429
     -2.197197     42.920478     42.920478     85.840957
     -2.187187     42.877875     42.877875     85.755750
     -2.177177     41.251633     41.251633     82.503266
     -2.167167     38.251196     38.251196     76.502391
     -2.157157     34.294010     34.294010     68.588019
     -2.147147     29.939206     29.939206     59.878412
     -2.137137     25.749748     25.749748     51.499496
     -2.127127     22.129886     22.129886     44.259772
     -2.117117     19.214987     19.214987     38.429973
     -2.107107     16.873226     16.873226     33.746453
     -2.097097     14.819277     14.819277     29.638553
     -2.087087     12.777835     12.777835     25.555671
     -2.077077     10.611806     10.611806     21.223611
     -2.067067      8.359099      8.359099     16.718199
     -2.057057      6.179412      6.179412     12.358824
     -2.047047      4.258256      4.258256      8.516511
     -2.037037      2.724991      2.724991      5.449982
     -2.027027      1.618255      1.618255      3.236509
     -2.017017      0.898986      0.898986      1.797972
     -2.007007      0.490072      0.490072      0.980145
     -1.996997      0.319458      0.319458      0.638916
     -1.986987      0.353342      0.353342      0.706684
     -1.976977      0.616321      0.616321      1.232641
     -1.966967      1.198767      1.198767      2.397535
     -1.956957      2.248583      2.248583      4.497165
     -1.946947      3.940408      3.940408      7.880816
     -1.936937      6.417750      6.417750     12.835500
     -1.926927      9.715817      9.715817     19.431633
     -1.916917     13.690979     13.690979     27.381957
     -1.906907     17.994161     17.994161     35.988323
     -1.896897     22.116795     22.116795     44.233591
     -1.886887     25.507057     25.507057     51.014113
     -1.876877     27.716668     27.716668     55.433336
     -1.866867     28.519669     28.519669     57.039338
     -1.856857     27.958802     27.958802     55.917605
     -1.846847     26.312255     26.312255     52.624510
     -1.836837     24.006259     24.006259     48.012519
     -1.826827     21.507746     21.507746     43.015493
     -1.816817     19.220382     19.220382     38.440764
     -1.806807     17.397495     17.397495     34.794990
     -1.796797     16.088501     16.088501     32.177002
     -1.786787     15.141509     15.141509     30.283018
     -1.776777     14.274587     14.274587     28.549173
     -1.766767     13.197360     13.197360     26.394721
     -1.756757     11.733039     11.733039     23.466077
     -1.746747      9.885427      9.885427     19.770854
     -1.736737      7.824517      7.824517     15.649034
     -1.726727      5.808881      5.808881     11.617761
     -1.716717      4.092924      4.092924      8.185849
     -1.706707      2.864448      2.864448      5.728896
     -1.696697      2.229523      2.229523      4.459046
     -1.686687      2.229621      2.229621      4.459242
     -1.676677      2.860309      2.860309      5.720617
     -1.666667      4.068196      4.068196      8.136392
     -1.656657      5.725780      5.725780     11.451559
     -1.646647      7.607373      7.607373     15.214746
     -1.636637      9.398530      9.398530     18.797059
     -1.626627     10.758496     10.758496     21.516992
