# EIG2DOS: Utility for SIESTA to obtain the electronic density of states
#  E. Artacho, Apr 1999, A. Garcia, Apr 2012
#  Nick R. Papior, Feb 2017
# ------------------------------------------
# Eigenvalues calculated from a non-polarized calculation
# Eigenvalues read from siesta.EIG
# Kpoint weights read from siesta.KP
# Using smearing parameter:   0.0500
# Using 1000 points in the energy range
# Selected bands: 1 to: 2981
# Emin, Emax in file for selected band(s):    -27.2398084    218.3692880
# Nbands, Nspin, Nk   =   2981     1     1
# E_F                 =    -4.2349 eV --> (shifted to ZERO)
# Broadening          =     0.0500 eV
#
#        E            N(up)  (=)   N(down)         Ntot
     -5.000000     36.287546     36.287546     72.575092
     -4.989990     39.915107     39.915107     79.830214
     -4.979980     42.605415     42.605415     85.210829
     -4.969970     43.958263     43.958263     87.916525
     -4.959960     43.781379     43.781379     87.562757
     -4.949950     42.151493     42.151493     84.302985
     -4.939940     39.405847     39.405847     78.811694
     -4.929930     36.084644     36.084644     72.169288
     -4.919920     32.856518     32.856518     65.713035
     -4.909910     30.443051     30.443051     60.886102
     -4.899900     29.529835     29.529835     59.059669
     -4.889890     30.638411     30.638411     61.276821
     -4.879880     33.956734     33.956734     67.913469
     -4.869870     39.178870     39.178870     78.357741
     -4.859860     45.449002     45.449002     90.898004
     -4.849850     51.494350     51.494350    102.988701
     -4.839840     55.951776     55.951776    111.903552
     -4.829830     57.782401     57.782401    115.564801
     -4.819820     56.599449     56.599449    113.198899
     -4.809810     52.760562     52.760562    105.521125
     -4.799800     47.189016     47.189016     94.378032
     -4.789790     41.020480     41.020480     82.040960
     -4.779780     35.242736     35.242736     70.485471
     -4.769770     30.470076     30.470076     60.940151
     -4.759760     26.902248     26.902248     53.804495
     -4.749750     24.425271     24.425271     48.850541
     -4.739740     22.767568     22.767568     45.535136
     -4.729730     21.635167     21.635167     43.270334
     -4.719720     20.788142     20.788142     41.576285
     -4.709710     20.059407     20.059407     40.118814
     -4.699700     19.342963     19.342963     38.685927
     -4.689690     18.587414     18.587414     37.174828
     -4.679680     17.819116     17.819116     35.638233
     -4.669670     17.190378     17.190378     34.380757
     -4.659660     17.016893     17.016893     34.033787
     -4.649650     17.757555     17.757555     35.515111
     -4.639640     19.910427     19.910427     39.820853
     -4.629630     23.840654     23.840654     47.681309
     -4.619620     29.595449     29.595449     59.190897
     -4.609610     36.778369     36.778369     73.556738
     -4.599600     44.544973     44.544973     89.089946
     -4.589590     51.748835     51.748835    103.497670
     -4.579580     57.217836     57.217836    114.435671
     -4.569570     60.086419     60.086419    120.172837
     -4.559560     60.070844     60.070844    120.141688
     -4.549550     57.576766     57.576766    115.153532
     -4.539540     53.582912     53.582912    107.165824
     -4.529530     49.332815     49.332815     98.665630
     -4.519520     45.946206     45.946206     91.892412
     -4.509510     44.092641     44.092641     88.185283
     -4.499499     43.838641     43.838641     87.677281
     -4.489489     44.704777     44.704777     89.409553
     -4.479479     45.887556     45.887556     91.775111
     -4.469469     46.547487     46.547487     93.094974
     -4.459459     46.057330     46.057330     92.114661
     -4.449449     44.139308     44.139308     88.278615
     -4.439439     40.876025     40.876025     81.752051
     -4.429429     36.629606     36.629606     73.259213
     -4.419419     31.925677     31.925677     63.851354
     -4.409409     27.347857     27.347857     54.695713
     -4.399399     23.457200     23.457200     46.914400
     -4.389389     20.724012     20.724012     41.448025
     -4.379379     19.456527     19.456527     38.913055
     -4.369369     19.732568     19.732568     39.465137
     -4.359359     21.365939     21.365939     42.731879
     -4.349349     23.943101     23.943101     47.886202
     -4.339339     26.938171     26.938171     53.876342
     -4.329329     29.871297     29.871297     59.742593
     -4.319319     32.446732     32.446732     64.893465
     -4.309309     34.612954     34.612954     69.225907
     -4.299299     36.523512     36.523512     73.047023
     -4.289289     38.420017     38.420017     76.840034
     -4.279279     40.484529     40.484529     80.969058
     -4.269269     42.712566     42.712566     85.425131
     -4.259259     44.850049     44.850049     89.700098
     -4.249249     46.425506     46.425506     92.851011
     -4.239239     46.886950     46.886950     93.773899
     -4.229229     45.812678     45.812678     91.625356
     -4.219219     43.117120     43.117120     86.234240
     -4.209209     39.150304     39.150304     78.300608
     -4.199199     34.623219     34.623219     69.246439
     -4.189189     30.375493     30.375493     60.750986
     -4.179179     27.088437     27.088437     54.176875
     -4.169169     25.078885     25.078885     50.157770
     -4.159159     24.265543     24.265543     48.531085
     -4.149149     24.308308     24.308308     48.616616
     -4.139139     24.836236     24.836236     49.672473
     -4.129129     25.643793     25.643793     51.287586
     -4.119119     26.757931     26.757931     53.515863
     -4.109109     28.344503     28.344503     56.689006
     -4.099099     30.503684     30.503684     61.007369
     -4.089089     33.067666     33.067666     66.135331
     -4.079079     35.526788     35.526788     71.053576
     -4.069069     37.154139     37.154139     74.308277
     -4.059059     37.291163     37.291163     74.582326
     -4.049049     35.656453     35.656453     71.312906
     -4.039039     32.513363     32.513363     65.026726
     -4.029029     28.604482     28.604482     57.208964
     -4.019019     24.889715     24.889715     49.779430
     -4.009009     22.227026     22.227026     44.454051
     -3.998999     21.147992     21.147992     42.295984
     -3.988989     21.805313     21.805313     43.610626
     -3.978979     24.064611     24.064611     48.129221
     -3.968969     27.647537     27.647537     55.295073
     -3.958959     32.239535     32.239535     64.479071
     -3.948949     37.532797     37.532797     75.065594
     -3.938939     43.231354     43.231354     86.462708
     -3.928929     49.059538     49.059538     98.119075
     -3.918919     54.785508     54.785508    109.571015
     -3.908909     60.233343     60.233343    120.466686
     -3.898899     65.249496     65.249496    130.498993
     -3.888889     69.622280     69.622280    139.244560
     -3.878879     72.999996     72.999996    145.999991
     -3.868869     74.874957     74.874957    149.749913
     -3.858859     74.676462     74.676462    149.352924
     -3.848849     71.958107     71.958107    143.916214
     -3.838839     66.607990     66.607990    133.215979
     -3.828829     58.987327     58.987327    117.974653
     -3.818819     49.926518     49.926518     99.853036
     -3.808809     40.565504     40.565504     81.131008
     -3.798799     32.088552     32.088552     64.177104
     -3.788789     25.442901     25.442901     50.885802
     -3.778779     21.131111     21.131111     42.262222
     -3.768769     19.133904     19.133904     38.267809
     -3.758759     18.973376     18.973376     37.946752
     -3.748749     19.885994     19.885994     39.771987
     -3.738739     21.051738     21.051738     42.103477
     -3.728729     21.819950     21.819950     43.639900
     -3.718719     21.878543     21.878543     43.757086
     -3.708709     21.326601     21.326601     42.653202
     -3.698699     20.629624     20.629624     41.259248
     -3.688689     20.462498     20.462498     40.924996
     -3.678679     21.476424     21.476424     42.952848
     -3.668669     24.055865     24.055865     48.111730
     -3.658659     28.147031     28.147031     56.294061
     -3.648649     33.226209     33.226209     66.452417
     -3.638639     38.429686     38.429686     76.859371
     -3.628629     42.801833     42.801833     85.603665
     -3.618619     45.566182     45.566182     91.132364
     -3.608609     46.317232     46.317232     92.634463
     -3.598599     45.074395     45.074395     90.148790
     -3.588589     42.206506     42.206506     84.413012
     -3.578579     38.283604     38.283604     76.567208
     -3.568569     33.918691     33.918691     67.837382
     -3.558559     29.637307     29.637307     59.274614
     -3.548549     25.788040     25.788040     51.576080
     -3.538539     22.501081     22.501081     45.002161
     -3.528529     19.705622     19.705622     39.411243
     -3.518519     17.209066     17.209066     34.418131
     -3.508509     14.815558     14.815558     29.631117
     -3.498498     12.436349     12.436349     24.872697
     -3.488488     10.143561     10.143561     20.287121
     -3.478478      8.146926      8.146926     16.293852
     -3.468468      6.710532      6.710532     13.421064
     -3.458458      6.049151      6.049151     12.098303
     -3.448448      6.242602      6.242602     12.485205
     -3.438438      7.192424      7.192424     14.384847
     -3.428428      8.632122      8.632122     17.264245
     -3.418418     10.193332     10.193332     20.386664
     -3.408408     11.517900     11.517900     23.035800
     -3.398398     12.386353     12.386353     24.772705
     -3.388388     12.816020     12.816020     25.632041
     -3.378378     13.084107     13.084107     26.168214
     -3.368368     13.658736     13.658736     27.317472
     -3.358358     15.060898     15.060898     30.121795
     -3.348348     17.706937     17.706937     35.413873
     -3.338338     21.778967     21.778967     43.557934
     -3.328328     27.146857     27.146857     54.293714
     -3.318318     33.344409     33.344409     66.688817
     -3.308308     39.601518     39.601518     79.203036
     -3.298298     44.946165     44.946165     89.892329
     -3.288288     48.388333     48.388333     96.776667
     -3.278278     49.164213     49.164213     98.328426
     -3.268268     46.968046     46.968046     93.936093
     -3.258258     42.072791     42.072791     84.145583
     -3.248248     35.272493     35.272493     70.544986
     -3.238238     27.659693     27.659693     55.319385
     -3.228228     20.330671     20.330671     40.661342
     -3.218218     14.138373     14.138373     28.276746
     -3.208208      9.573683      9.573683     19.147365
     -3.198198      6.781656      6.781656     13.563313
     -3.188188      5.659175      5.659175     11.318351
     -3.178178      5.965229      5.965229     11.930458
     -3.168168      7.401562      7.401562     14.803123
     -3.158158      9.661418      9.661418     19.322835
     -3.148148     12.466683     12.466683     24.933365
     -3.138138     15.605799     15.605799     31.211598
     -3.128128     18.958793     18.958793     37.917586
     -3.118118     22.479808     22.479808     44.959617
     -3.108108     26.123439     26.123439     52.246877
     -3.098098     29.743631     29.743631     59.487263
     -3.088088     33.030216     33.030216     66.060433
     -3.078078     35.542306     35.542306     71.084612
     -3.068068     36.843191     36.843191     73.686382
     -3.058058     36.671859     36.671859     73.343719
     -3.048048     35.053669     35.053669     70.107337
     -3.038038     32.285456     32.285456     64.570913
     -3.028028     28.808304     28.808304     57.616608
     -3.018018     25.049187     25.049187     50.098374
     -3.008008     21.323370     21.323370     42.646741
     -2.997998     17.839359     17.839359     35.678718
     -2.987988     14.777954     14.777954     29.555908
     -2.977978     12.375921     12.375921     24.751842
     -2.967968     10.953312     10.953312     21.906624
     -2.957958     10.864259     10.864259     21.728518
     -2.947948     12.391415     12.391415     24.782829
     -2.937938     15.624677     15.624677     31.249354
     -2.927928     20.367088     20.367088     40.734176
     -2.917918     26.104742     26.104742     52.209484
     -2.907908     32.065938     32.065938     64.131875
     -2.897898     37.372366     37.372366     74.744731
     -2.887888     41.250520     41.250520     82.501039
     -2.877878     43.236835     43.236835     86.473669
     -2.867868     43.296783     43.296783     86.593565
     -2.857858     41.802194     41.802194     83.604387
     -2.847848     39.368344     39.368344     78.736688
     -2.837838     36.616979     36.616979     73.233958
     -2.827828     33.968513     33.968513     67.937026
     -2.817818     31.552932     31.552932     63.105864
     -2.807808     29.268576     29.268576     58.537152
     -2.797798     26.942409     26.942409     53.884818
     -2.787788     24.496351     24.496351     48.992702
     -2.777778     22.028999     22.028999     44.057998
     -2.767768     19.777021     19.777021     39.554042
     -2.757758     17.992859     17.992859     35.985718
     -2.747748     16.822261     16.822261     33.644522
     -2.737738     16.258847     16.258847     32.517693
     -2.727728     16.197899     16.197899     32.395798
     -2.717718     16.543193     16.543193     33.086385
     -2.707708     17.284221     17.284221     34.568441
     -2.697698     18.482808     18.482808     36.965616
     -2.687688     20.175138     20.175138     40.350276
     -2.677678     22.261834     22.261834     44.523668
     -2.667668     24.475830     24.475830     48.951660
     -2.657658     26.468793     26.468793     52.937586
     -2.647648     27.973182     27.973182     55.946365
     -2.637638     28.938269     28.938269     57.876539
     -2.627628     29.549529     29.549529     59.099058
     -2.617618     30.116217     30.116217     60.232434
     -2.607608     30.897477     30.897477     61.794955
     -2.597598     31.970856     31.970856     63.941711
     -2.587588     33.207507     33.207507     66.415014
     -2.577578     34.341654     34.341654     68.683308
     -2.567568     35.069836     35.069836     70.139672
     -2.557558     35.123251     35.123251     70.246502
     -2.547548     34.305377     34.305377     68.610754
     -2.537538     32.525507     32.525507     65.051013
     -2.527528     29.851659     29.851659     59.703319
     -2.517518     26.564657     26.564657     53.129314
     -2.507508     23.162643     23.162643     46.325287
     -2.497497     20.275849     20.275849     40.551697
     -2.487487     18.500394     18.500394     37.000788
     -2.477477     18.212121     18.212121     36.424241
     -2.467467     19.441744     19.441744     38.883488
     -2.457457     21.870020     21.870020     43.740040
     -2.447447     24.950009     24.950009     49.900018
     -2.437437     28.108324     28.108324     56.216648
     -2.427427     30.942097     30.942097     61.884194
     -2.417417     33.327862     33.327862     66.655725
     -2.407407     35.394070     35.394070     70.788139
     -2.397397     37.367837     37.367837     74.735675
     -2.387387     39.365364     39.365364     78.730729
     -2.377377     41.228426     41.228426     82.456852
     -2.367367     42.497953     42.497953     84.995907
     -2.357357     42.557450     42.557450     85.114901
     -2.347347     40.895121     40.895121     81.790242
     -2.337337     37.365912     37.365912     74.731825
     -2.327327     32.325697     32.325697     64.651394
     -2.317317     26.571239     26.571239     53.142477
     -2.307307     21.117102     21.117102     42.234205
     -2.297297     16.914501     16.914501     33.829003
     -2.287287     14.626033     14.626033     29.252067
     -2.277277     14.520575     14.520575     29.041150
     -2.267267     16.486621     16.486621     32.973243
     -2.257257     20.120778     20.120778     40.241556
     -2.247247     24.842512     24.842512     49.685024
     -2.237237     30.001893     30.001893     60.003785
     -2.227227     34.964551     34.964551     69.929101
     -2.217217     39.169645     39.169645     78.339290
     -2.207207     42.165074     42.165074     84.330148
     -2.197197     43.631958     43.631958     87.263916
     -2.187187     43.412921     43.412921     86.825843
     -2.177177     41.548531     41.548531     83.097061
     -2.167167     38.304598     38.304598     76.609197
     -2.157157     34.155294     34.155294     68.310589
     -2.147147     29.693841     29.693841     59.387683
     -2.137137     25.480026     25.480026     50.960052
     -2.127127     21.880897     21.880897     43.761794
     -2.117117     18.981424     18.981424     37.962847
     -2.107107     16.613281     16.613281     33.226562
     -2.097097     14.486359     14.486359     28.972717
     -2.087087     12.351311     12.351311     24.702622
     -2.077077     10.110439     10.110439     20.220879
     -2.067067      7.832749      7.832749     15.665497
     -2.057057      5.687105      5.687105     11.374210
     -2.047047      3.846225      3.846225      7.692450
     -2.037037      2.414876      2.414876      4.829752
     -2.027027      1.407796      1.407796      2.815592
     -2.017017      0.771045      0.771045      1.542089
     -2.007007      0.423858      0.423858      0.847716
     -1.996997      0.299750      0.299750      0.599499
     -1.986987      0.376511      0.376511      0.753022
     -1.976977      0.693724      0.693724      1.387447
     -1.966967      1.357770      1.357770      2.715539
     -1.956957      2.529870      2.529870      5.059740
     -1.946947      4.389022      4.389022      8.778044
     -1.936937      7.066279      7.066279     14.132557
     -1.926927     10.562245     10.562245     21.124490
     -1.916917     14.679478     14.679478     29.358956
     -1.906907     19.010727     19.010727     38.021453
     -1.896897     23.008827     23.008827     46.017654
     -1.886887     26.125754     26.125754     52.251508
     -1.876877     27.968106     27.968106     55.936213
     -1.866867     28.402945     28.402945     56.805891
     -1.856857     27.573313     27.573313     55.146626
     -1.846847     25.829303     25.829303     51.658607
     -1.836837     23.614955     23.614955     47.229909
     -1.826827     21.353985     21.353985     42.707970
     -1.816817     19.358672     19.358672     38.717344
     -1.806807     17.771003     17.771003     35.542005
     -1.796797     16.545267     16.545267     33.090533
     -1.786787     15.484231     15.484231     30.968462
     -1.776777     14.328438     14.328438     28.656876
     -1.766767     12.870360     12.870360     25.740720
     -1.756757     11.044178     11.044178     22.088356
     -1.746747      8.949833      8.949833     17.899667
     -1.736737      6.805561      6.805561     13.611121
     -1.726727      4.861768      4.861768      9.723537
     -1.716717      3.324394      3.324394      6.648787
     -1.706707      2.320388      2.320388      4.640776
     -1.696697      1.906401      1.906401      3.812803
     -1.686687      2.096065      2.096065      4.192130
     -1.676677      2.875440      2.875440      5.750880
     -1.666667      4.190199      4.190199      8.380399
     -1.656657      5.912097      5.912097     11.824194
     -1.646647      7.812572      7.812572     15.625144
     -1.636637      9.575815      9.575815     19.151629
     -1.626627     10.867055     10.867055     21.734109
