# EIG2DOS: Utility for SIESTA to obtain the electronic density of states
#  E. Artacho, Apr 1999, A. Garcia, Apr 2012
#  Nick R. Papior, Feb 2017
# ------------------------------------------
# Eigenvalues calculated from a non-polarized calculation
# Eigenvalues read from siesta.EIG
# Kpoint weights read from siesta.KP
# Using smearing parameter:   0.0500
# Using 1000 points in the energy range
# Selected bands: 1 to: 2981
# Emin, Emax in file for selected band(s):    -27.0321201    218.3216540
# Nbands, Nspin, Nk   =   2981     1     1
# E_F                 =    -4.2850 eV --> (shifted to ZERO)
# Broadening          =     0.0500 eV
#
#        E            N(up)  (=)   N(down)         Ntot
     -5.000000     45.607976     45.607976     91.215951
     -4.989990     47.630767     47.630767     95.261535
     -4.979980     48.462965     48.462965     96.925930
     -4.969970     48.103827     48.103827     96.207654
     -4.959960     46.629323     46.629323     93.258647
     -4.949950     44.195438     44.195438     88.390876
     -4.939940     41.052349     41.052349     82.104698
     -4.929930     37.559539     37.559539     75.119078
     -4.919920     34.192080     34.192080     68.384159
     -4.909910     31.526439     31.526439     63.052877
     -4.899900     30.187042     30.187042     60.374083
     -4.889890     30.731694     30.731694     61.463388
     -4.879880     33.472908     33.472908     66.945817
     -4.869870     38.279361     38.279361     76.558722
     -4.859860     44.453308     44.453308     88.906617
     -4.849850     50.789539     50.789539    101.579078
     -4.839840     55.857636     55.857636    111.715273
     -4.829830     58.431757     58.431757    116.863514
     -4.819820     57.891602     57.891602    115.783204
     -4.809810     54.409287     54.409287    108.818574
     -4.799800     48.837630     48.837630     97.675261
     -4.789790     42.366844     42.366844     84.733687
     -4.779780     36.122769     36.122769     72.245537
     -4.769770     30.879227     30.879227     61.758455
     -4.759760     26.965541     26.965541     53.931083
     -4.749750     24.340159     24.340159     48.680319
     -4.739740     22.740343     22.740343     45.480687
     -4.729730     21.823252     21.823252     43.646504
     -4.719720     21.256321     21.256321     42.512642
     -4.709710     20.756360     20.756360     41.512719
     -4.699700     20.099233     20.099233     40.198467
     -4.689690     19.126879     19.126879     38.253758
     -4.679680     17.771043     17.771043     35.542086
     -4.669670     16.096333     16.096333     32.192666
     -4.659660     14.344460     14.344460     28.688920
     -4.649650     12.948129     12.948129     25.896258
     -4.639640     12.485813     12.485813     24.971627
     -4.629630     13.566363     13.566363     27.132726
     -4.619620     16.656878     16.656878     33.313756
     -4.609610     21.892315     21.892315     43.784631
     -4.599600     28.927824     28.927824     57.855648
     -4.589590     36.906187     36.906187     73.812374
     -4.579580     44.595591     44.595591     89.191181
     -4.569570     50.695640     50.695640    101.391279
     -4.559560     54.227209     54.227209    108.454419
     -4.549550     54.858845     54.858845    109.717689
     -4.539540     53.025466     53.025466    106.050932
     -4.529530     49.775493     49.775493     99.550987
     -4.519520     46.402169     46.402169     92.804337
     -4.509510     44.009647     44.009647     88.019294
     -4.499499     43.185310     43.185310     86.370620
     -4.489489     43.891159     43.891159     87.782317
     -4.479479     45.584886     45.584886     91.169772
     -4.469469     47.487653     47.487653     94.975305
     -4.459459     48.871183     48.871183     97.742365
     -4.449449     49.253892     49.253892     98.507783
     -4.439439     48.457915     48.457915     96.915830
     -4.429429     46.551750     46.551750     93.103500
     -4.419419     43.750196     43.750196     87.500391
     -4.409409     40.342128     40.342128     80.684256
     -4.399399     36.672018     36.672018     73.344036
     -4.389389     33.145325     33.145325     66.290650
     -4.379379     30.202346     30.202346     60.404693
     -4.369369     28.230443     28.230443     56.460886
     -4.359359     27.441856     27.441856     54.883712
     -4.349349     27.787628     27.787628     55.575256
     -4.339339     28.970695     28.970695     57.941390
     -4.329329     30.565939     30.565939     61.131877
     -4.319319     32.191443     32.191443     64.382887
     -4.309309     33.647310     33.647310     67.294621
     -4.299299     34.960591     34.960591     69.921181
     -4.289289     36.325641     36.325641     72.651281
     -4.279279     37.973571     37.973571     75.947143
     -4.269269     40.023345     40.023345     80.046689
     -4.259259     42.366071     42.366071     84.732143
     -4.249249     44.626708     44.626708     89.253417
     -4.239239     46.234219     46.234219     92.468437
     -4.229229     46.599744     46.599744     93.199487
     -4.219219     45.349638     45.349638     90.699276
     -4.209209     42.512232     42.512232     85.024464
     -4.199199     38.555946     38.555946     77.111892
     -4.189189     34.241151     34.241151     68.482303
     -4.179179     30.347966     30.347966     60.695932
     -4.169169     27.412581     27.412581     54.825161
     -4.159159     25.597691     25.597691     51.195383
     -4.149149     24.744468     24.744468     49.488936
     -4.139139     24.556543     24.556543     49.113087
     -4.129129     24.806582     24.806582     49.613164
     -4.119119     25.456754     25.456754     50.913507
     -4.109109     26.634719     26.634719     53.269439
     -4.099099     28.479724     28.479724     56.959449
     -4.089089     30.941265     30.941265     61.882530
     -4.079079     33.647820     33.647820     67.295639
     -4.069069     35.941384     35.941384     71.882768
     -4.059059     37.092345     37.092345     74.184689
     -4.049049     36.604439     36.604439     73.208877
     -4.039039     34.454987     34.454987     68.909975
     -4.029029     31.140321     31.140321     62.280642
     -4.019019     27.502064     27.502064     55.004128
     -4.009009     24.430201     24.430201     48.860401
     -3.998999     22.595580     22.595580     45.191160
     -3.988989     22.325808     22.325808     44.651616
     -3.978979     23.639337     23.639337     47.278675
     -3.968969     26.364898     26.364898     52.729797
     -3.958959     30.251507     30.251507     60.503015
     -3.948949     35.019039     35.019039     70.038079
     -3.938939     40.364545     40.364545     80.729091
     -3.928929     45.971825     45.971825     91.943651
     -3.918919     51.551575     51.551575    103.103150
     -3.908909     56.891812     56.891812    113.783625
     -3.898899     61.868674     61.868674    123.737347
     -3.888889     66.384067     66.384067    132.768135
     -3.878879     70.249356     70.249356    140.498712
     -3.868869     73.085458     73.085458    146.170915
     -3.858859     74.321476     74.321476    148.642951
     -3.848849     73.332563     73.332563    146.665125
     -3.838839     69.682293     69.682293    139.364585
     -3.828829     63.367147     63.367147    126.734293
     -3.818819     54.942265     54.942265    109.884530
     -3.808809     45.453738     45.453738     90.907476
     -3.798799     36.190426     36.190426     72.380852
     -3.788789     28.348953     28.348953     56.697906
     -3.778779     22.736515     22.736515     45.473030
     -3.768769     19.607942     19.607942     39.215884
     -3.758759     18.671030     18.671030     37.342059
     -3.748749     19.234343     19.234343     38.468687
     -3.738739     20.437808     20.437808     40.875615
     -3.728729     21.499644     21.499644     42.999289
     -3.718719     21.922071     21.922071     43.844141
     -3.708709     21.612005     21.612005     43.224010
     -3.698699     20.888973     20.888973     41.777946
     -3.688689     20.373171     20.373171     40.746341
     -3.678679     20.774834     20.774834     41.549668
     -3.668669     22.638664     22.638664     45.277329
     -3.658659     26.123100     26.123100     52.246201
     -3.648649     30.897049     30.897049     61.794097
     -3.638639     36.203635     36.203635     72.407269
     -3.628629     41.076307     41.076307     82.152613
     -3.618619     44.625151     44.625151     89.250301
     -3.608609     46.279535     46.279535     92.559069
     -3.598599     45.899610     45.899610     91.799220
     -3.588589     43.738329     43.738329     87.476657
     -3.578579     40.302505     40.302505     80.605009
     -3.568569     36.186432     36.186432     72.372865
     -3.558559     31.931578     31.931578     63.863156
     -3.548549     27.931466     27.931466     55.862931
     -3.538539     24.383272     24.383272     48.766543
     -3.528529     21.289869     21.289869     42.579739
     -3.518519     18.517158     18.517158     37.034317
     -3.508509     15.895081     15.895081     31.790161
     -3.498498     13.325368     13.325368     26.650736
     -3.488488     10.848901     10.848901     21.697802
     -3.478478      8.643806      8.643806     17.287612
     -3.468468      6.960321      6.960321     13.920642
     -3.458458      6.025448      6.025448     12.050895
     -3.448448      5.955207      5.955207     11.910415
     -3.438438      6.700810      6.700810     13.401619
     -3.428428      8.042087      8.042087     16.084174
     -3.418418      9.633654      9.633654     19.267308
     -3.408408     11.100123     11.100123     22.200245
     -3.398398     12.159242     12.159242     24.318484
     -3.388388     12.731377     12.731377     25.462754
     -3.378378     12.987211     12.987211     25.974422
     -3.368368     13.305574     13.305574     26.611149
     -3.358358     14.152978     14.152978     28.305956
     -3.348348     15.931309     15.931309     31.862618
     -3.338338     18.847479     18.847479     37.694957
     -3.328328     22.837235     22.837235     45.674471
     -3.318318     27.546612     27.546612     55.093225
     -3.308308     32.363261     32.363261     64.726523
     -3.298298     36.499741     36.499741     72.999483
     -3.288288     39.139125     39.139125     78.278249
     -3.278278     39.634363     39.634363     79.268726
     -3.268268     37.708748     37.708748     75.417497
     -3.258258     33.571412     33.571412     67.142823
     -3.248248     27.878619     27.878619     55.757238
     -3.238238     21.541246     21.541246     43.082492
     -3.228228     15.458128     15.458128     30.916256
     -3.218218     10.289304     10.289304     20.578608
     -3.208208      6.351752      6.351752     12.703505
     -3.198198      3.650213      3.650213      7.300426
     -3.188188      1.995365      1.995365      3.990730
     -3.178178      1.141914      1.141914      2.283829
     -3.168168      0.896923      0.896923      1.793847
     -3.158158      1.179545      1.179545      2.359091
     -3.148148      2.034622      2.034622      4.069244
     -3.138138      3.607664      3.607664      7.215328
     -3.128128      6.085617      6.085617     12.171233
     -3.118118      9.608910      9.608910     19.217820
     -3.108108     14.172070     14.172070     28.344139
     -3.098098     19.547318     19.547318     39.094637
     -3.088088     25.273267     25.273267     50.546533
     -3.078078     30.734245     30.734245     61.468490
     -3.068068     35.314290     35.314290     70.628579
     -3.058058     38.563659     38.563659     77.127318
     -3.048048     40.298123     40.298123     80.596247
     -3.038038     40.583444     40.583444     81.166887
     -3.028028     39.626523     39.626523     79.253047
     -3.018018     37.654681     37.654681     75.309362
     -3.008008     34.868708     34.868708     69.737416
     -2.997998     31.496230     31.496230     62.992459
     -2.987988     27.891904     27.891904     55.783807
     -2.977978     24.590543     24.590543     49.181085
     -2.967968     22.247657     22.247657     44.495313
     -2.957958     21.475234     21.475234     42.950468
     -2.947948     22.645079     22.645079     45.290159
     -2.937938     25.748027     25.748027     51.496053
     -2.927928     30.364710     30.364710     60.729419
     -2.917918     35.751970     35.751970     71.503940
     -2.907908     41.009697     41.009697     82.019395
     -2.897898     45.278273     45.278273     90.556547
     -2.887888     47.919972     47.919972     95.839944
     -2.877878     48.646015     48.646015     97.292030
     -2.867868     47.559332     47.559332     95.118665
     -2.857858     45.096530     45.096530     90.193061
     -2.847848     41.877879     41.877879     83.755759
     -2.837838     38.508417     38.508417     77.016833
     -2.827828     35.400215     35.400215     70.800429
     -2.817818     32.685494     32.685494     65.370989
     -2.807808     30.254380     30.254380     60.508760
     -2.797798     27.893351     27.893351     55.786703
     -2.787788     25.450924     25.450924     50.901849
     -2.777778     22.944758     22.944758     45.889517
     -2.767768     20.558569     20.558569     41.117139
     -2.757758     18.540266     18.540266     37.080533
     -2.747748     17.068927     17.068927     34.137854
     -2.737738     16.174116     16.174116     32.348232
     -2.727728     15.755850     15.755850     31.511701
     -2.717718     15.687526     15.687526     31.375052
     -2.707708     15.928500     15.928500     31.856999
     -2.697698     16.564713     16.564713     33.129426
     -2.687688     17.742734     17.742734     35.485468
     -2.677678     19.536025     19.536025     39.072049
     -2.667668     21.833427     21.833427     43.666855
     -2.657658     24.331941     24.331941     48.663881
     -2.647648     26.650522     26.650522     53.301045
     -2.637638     28.500797     28.500797     57.001594
     -2.627628     29.810048     29.810048     59.620097
     -2.617618     30.721935     30.721935     61.443870
     -2.607608     31.481081     31.481081     62.962162
     -2.597598     32.280861     32.280861     64.561721
     -2.587588     33.166642     33.166642     66.333283
     -2.577578     34.034483     34.034483     68.068967
     -2.567568     34.694620     34.694620     69.389239
     -2.557558     34.938031     34.938031     69.876063
     -2.547548     34.571752     34.571752     69.143504
     -2.537538     33.439509     33.439509     66.879018
     -2.527528     31.465588     31.465588     62.931177
     -2.517518     28.730497     28.730497     57.460994
     -2.507508     25.536531     25.536531     51.073063
     -2.497497     22.399762     22.399762     44.799524
     -2.487487     19.936312     19.936312     39.872624
     -2.477477     18.674197     18.674197     37.348393
     -2.467467     18.872355     18.872355     37.744710
     -2.457457     20.433181     20.433181     40.866363
     -2.447447     22.952840     22.952840     45.905680
     -2.437437     25.889320     25.889320     51.778640
     -2.427427     28.773367     28.773367     57.546733
     -2.417417     31.366794     31.366794     62.733589
     -2.407407     33.695644     33.695644     67.391288
     -2.397397     35.943138     35.943138     71.886277
     -2.387387     38.254334     38.254334     76.508668
     -2.377377     40.549996     40.549996     81.099992
     -2.367367     42.448937     42.448937     84.897874
     -2.357357     43.352056     43.352056     86.704112
     -2.347347     42.665365     42.665365     85.330729
     -2.337337     40.068033     40.068033     80.136066
     -2.327327     35.702412     35.702412     71.404823
     -2.317317     30.195763     30.195763     60.391526
     -2.307307     24.503183     24.503183     49.006365
     -2.297297     19.643035     19.643035     39.286070
     -2.287287     16.434474     16.434474     32.868948
     -2.277277     15.326467     15.326467     30.652934
     -2.267267     16.352363     16.352363     32.704725
     -2.257257     19.191504     19.191504     38.383009
     -2.247247     23.292838     23.292838     46.585677
     -2.237237     28.013426     28.013426     56.026852
     -2.227227     32.734458     32.734458     65.468917
     -2.217217     36.931389     36.931389     73.862778
     -2.207207     40.193980     40.193980     80.387960
     -2.197197     42.215228     42.215228     84.430456
     -2.187187     42.784105     42.784105     85.568211
     -2.177177     41.810812     41.810812     83.621623
     -2.167167     39.381598     39.381598     78.763197
     -2.157157     35.801982     35.801982     71.603964
     -2.147147     31.573448     31.573448     63.146895
     -2.137137     27.278451     27.278451     54.556903
     -2.127127     23.407698     23.407698     46.815396
     -2.117117     20.211090     20.211090     40.422181
     -2.107107     17.651430     17.651430     35.302860
     -2.097097     15.484794     15.484794     30.969587
     -2.087087     13.419834     13.419834     26.839668
     -2.077077     11.268315     11.268315     22.536630
     -2.067067      9.014804      9.014804     18.029607
     -2.057057      6.788389      6.788389     13.576779
     -2.047047      4.773684      4.773684      9.547368
     -2.037037      3.119771      3.119771      6.239541
     -2.027027      1.889850      1.889850      3.779700
     -2.017017      1.060895      1.060895      2.121791
     -2.007007      0.556102      0.556102      1.112203
     -1.996997      0.285353      0.285353      0.570705
     -1.986987      0.176761      0.176761      0.353522
     -1.976977      0.194631      0.194631      0.389262
     -1.966967      0.346965      0.346965      0.693930
     -1.956957      0.686247      0.686247      1.372494
     -1.946947      1.303193      1.303193      2.606386
     -1.936937      2.309272      2.309272      4.618544
     -1.926927      3.804434      3.804434      7.608868
     -1.916917      5.833287      5.833287     11.666575
     -1.906907      8.342997      8.342997     16.685994
     -1.896897     11.162484     11.162484     22.324969
     -1.886887     14.018427     14.018427     28.036853
     -1.876877     16.589019     16.589019     33.178038
     -1.866867     18.579542     18.579542     37.159085
     -1.856857     19.794928     19.794928     39.589856
     -1.846847     20.187210     20.187210     40.374421
     -1.836837     19.864649     19.864649     39.729297
     -1.826827     19.057685     19.057685     38.115371
     -1.816817     18.045398     18.045398     36.090797
     -1.806807     17.059745     17.059745     34.119489
     -1.796797     16.201857     16.201857     32.403714
     -1.786787     15.411141     15.411141     30.822283
     -1.776777     14.509941     14.509941     29.019881
     -1.766767     13.307661     13.307661     26.615321
     -1.756757     11.712996     11.712996     23.425992
     -1.746747      9.797838      9.797838     19.595677
     -1.736737      7.786628      7.786628     15.573256
     -1.726727      5.988233      5.988233     11.976466
     -1.716717      4.713104      4.713104      9.426208
     -1.706707      4.211937      4.211937      8.423874
     -1.696697      4.644365      4.644365      9.288731
     -1.686687      6.062086      6.062086     12.124172
     -1.676677      8.388178      8.388178     16.776355
     -1.666667     11.392291     11.392291     22.784582
     -1.656657     14.683178     14.683178     29.366357
     -1.646647     17.746804     17.746804     35.493609
     -1.636637     20.042130     20.042130     40.084259
     -1.626627     21.136004     21.136004     42.272007
