# EIG2DOS: Utility for SIESTA to obtain the electronic density of states
#  E. Artacho, Apr 1999, A. Garcia, Apr 2012
#  Nick R. Papior, Feb 2017
# ------------------------------------------
# Eigenvalues calculated from a non-polarized calculation
# Eigenvalues read from siesta.EIG
# Kpoint weights read from siesta.KP
# Using smearing parameter:   0.0500
# Using 1000 points in the energy range
# Selected bands: 1 to: 2981
# Emin, Emax in file for selected band(s):    -27.3845290    218.4048590
# Nbands, Nspin, Nk   =   2981     1     1
# E_F                 =    -4.1897 eV --> (shifted to ZERO)
# Broadening          =     0.0500 eV
#
#        E            N(up)  (=)   N(down)         Ntot
     -5.000000     32.345485     32.345485     64.690970
     -4.989990     37.522803     37.522803     75.045605
     -4.979980     42.303683     42.303683     84.607366
     -4.969970     45.837407     45.837407     91.674814
     -4.959960     47.445394     47.445394     94.890788
     -4.949950     46.849883     46.849883     93.699765
     -4.939940     44.270881     44.270881     88.541762
     -4.929930     40.369010     40.369010     80.738020
     -4.919920     36.080960     36.080960     72.161920
     -4.909910     32.420092     32.420092     64.840185
     -4.899900     30.291414     30.291414     60.582828
     -4.889890     30.331224     30.331224     60.662447
     -4.879880     32.768836     32.768836     65.537673
     -4.869870     37.332186     37.332186     74.664372
     -4.859860     43.250665     43.250665     86.501329
     -4.849850     49.403459     49.403459     98.806918
     -4.839840     54.603944     54.603944    109.207889
     -4.829830     57.931035     57.931035    115.862070
     -4.819820     58.973198     58.973198    117.946396
     -4.809810     57.879410     57.879410    115.758819
     -4.799800     55.204029     55.204029    110.408058
     -4.789790     51.634811     51.634811    103.269623
     -4.779780     47.742265     47.742265     95.484530
     -4.769770     43.856794     43.856794     87.713588
     -4.759760     40.093849     40.093849     80.187699
     -4.749750     36.465610     36.465610     72.931219
     -4.739740     32.988622     32.988622     65.977244
     -4.729730     29.726161     29.726161     59.452322
     -4.719720     26.760079     26.760079     53.520157
     -4.709710     24.130984     24.130984     48.261968
     -4.699700     21.798171     21.798171     43.596343
     -4.689690     19.654462     19.654462     39.308924
     -4.679680     17.599390     17.599390     35.198779
     -4.669670     15.641649     15.641649     31.283297
     -4.659660     13.981922     13.981922     27.963845
     -4.649650     13.028940     13.028940     26.057880
     -4.639640     13.324012     13.324012     26.648024
     -4.629630     15.382220     15.382220     30.764441
     -4.619620     19.490374     19.490374     38.980749
     -4.609610     25.525987     25.525987     51.051974
     -4.599600     32.872053     32.872053     65.744106
     -4.589590     40.488673     40.488673     80.977346
     -4.579580     47.154778     47.154778     94.309555
     -4.569570     51.819379     51.819379    103.638758
     -4.559560     53.935996     53.935996    107.871992
     -4.549550     53.639356     53.639356    107.278712
     -4.539540     51.679893     51.679893    103.359787
     -4.529530     49.135440     49.135440     98.270881
     -4.519520     47.017100     47.017100     94.034200
     -4.509510     45.928138     45.928138     91.856275
     -4.499499     45.903888     45.903888     91.807776
     -4.489489     46.477237     46.477237     92.954475
     -4.479479     46.919679     46.919679     93.839359
     -4.469469     46.543691     46.543691     93.087383
     -4.459459     44.942515     44.942515     89.885029
     -4.449449     42.087327     42.087327     84.174653
     -4.439439     38.274661     38.274661     76.549322
     -4.429429     33.982288     33.982288     67.964575
     -4.419419     29.718454     29.718454     59.436909
     -4.409409     25.927479     25.927479     51.854958
     -4.399399     22.962078     22.962078     45.924156
     -4.389389     21.085875     21.085875     42.171751
     -4.379379     20.460011     20.460011     40.920023
     -4.369369     21.099528     21.099528     42.199056
     -4.359359     22.830319     22.830319     45.660638
     -4.349349     25.297491     25.297491     50.594982
     -4.339339     28.052672     28.052672     56.105344
     -4.329329     30.697215     30.697215     61.394430
     -4.319319     33.017015     33.017015     66.034030
     -4.309309     35.040968     35.040968     70.081937
     -4.299299     36.989549     36.989549     73.979099
     -4.289289     39.130127     39.130127     78.260254
     -4.279279     41.596152     41.596152     83.192305
     -4.269269     44.244836     44.244836     88.489672
     -4.259259     46.620400     46.620400     93.240799
     -4.249249     48.057997     48.057997     96.115995
     -4.239239     47.909802     47.909802     95.819605
     -4.229229     45.814130     45.814130     91.628260
     -4.219219     41.891207     41.891207     83.782414
     -4.209209     36.765807     36.765807     73.531613
     -4.199199     31.390917     31.390917     62.781835
     -4.189189     26.742371     26.742371     53.484743
     -4.179179     23.517171     23.517171     47.034341
     -4.169169     21.962089     21.962089     43.924178
     -4.159159     21.890816     21.890816     43.781632
     -4.149149     22.858679     22.858679     45.717357
     -4.139139     24.399241     24.399241     48.798482
     -4.129129     26.211077     26.211077     52.422153
     -4.119119     28.214534     28.214534     56.429069
     -4.109109     30.460951     30.460951     60.921902
     -4.099099     32.948061     32.948061     65.896122
     -4.089089     35.448052     35.448052     70.896105
     -4.079079     37.460027     37.460027     74.920055
     -4.069069     38.341700     38.341700     76.683401
     -4.059059     37.575881     37.575881     75.151762
     -4.049049     35.040872     35.040872     70.081745
     -4.039039     31.138873     31.138873     62.277746
     -4.029029     26.708744     26.708744     53.417488
     -4.019019     22.765120     22.765120     45.530241
     -4.009009     20.191293     20.191293     40.382586
     -3.998999     19.519691     19.519691     39.039382
     -3.988989     20.868587     20.868587     41.737174
     -3.978979     24.017340     24.017340     48.034679
     -3.968969     28.548135     28.548135     57.096271
     -3.958959     33.981332     33.981332     67.962664
     -3.948949     39.868117     39.868117     79.736233
     -3.938939     45.842540     45.842540     91.685080
     -3.928929     51.647723     51.647723    103.295446
     -3.918919     57.137668     57.137668    114.275336
     -3.908909     62.240394     62.240394    124.480788
     -3.898899     66.875122     66.875122    133.750243
     -3.888889     70.847932     70.847932    141.695864
     -3.878879     73.781994     73.781994    147.563988
     -3.868869     75.139818     75.139818    150.279636
     -3.858859     74.356631     74.356631    148.713262
     -3.848849     71.046042     71.046042    142.092085
     -3.838839     65.195828     65.195828    130.391657
     -3.828829     57.267784     57.267784    114.535568
     -3.818819     48.152195     48.152195     96.304389
     -3.808809     38.984915     38.984915     77.969830
     -3.798799     30.886057     30.886057     61.772115
     -3.788789     24.703579     24.703579     49.407157
     -3.778779     20.837125     20.837125     41.674250
     -3.768769     19.185985     19.185985     38.371969
     -3.758759     19.225491     19.225491     38.450982
     -3.748749     20.182615     20.182615     40.365231
     -3.738739     21.260920     21.260920     42.521841
     -3.728729     21.858299     21.858299     43.716599
     -3.718719     21.725359     21.725359     43.450719
     -3.708709     21.025201     21.025201     42.050402
     -3.698699     20.275262     20.275262     40.550524
     -3.688689     20.178427     20.178427     40.356853
     -3.678679     21.382010     21.382010     42.764020
     -3.668669     24.232957     24.232957     48.465914
     -3.658659     28.612635     28.612635     57.225271
     -3.648649     33.920112     33.920112     67.840224
     -3.638639     39.223375     39.223375     78.446751
     -3.628629     43.529022     43.529022     87.058043
     -3.618619     46.066972     46.066972     92.133945
     -3.608609     46.481512     46.481512     92.963024
     -3.598599     44.869495     44.869495     89.738989
     -3.588589     41.680340     41.680340     83.360680
     -3.578579     37.544518     37.544518     75.089036
     -3.568569     33.102144     33.102144     66.204288
     -3.558559     28.873878     28.873878     57.747756
     -3.548549     25.186103     25.186103     50.372206
     -3.538539     22.151968     22.151968     44.303937
     -3.528529     19.710910     19.710910     39.421819
     -3.518519     17.720331     17.720331     35.440661
     -3.508509     16.068484     16.068484     32.136968
     -3.498498     14.756314     14.756314     29.512628
     -3.488488     13.903167     13.903167     27.806334
     -3.478478     13.670850     13.670850     27.341700
     -3.468468     14.148237     14.148237     28.296473
     -3.458458     15.261362     15.261362     30.522725
     -3.448448     16.756807     16.756807     33.513614
     -3.438438     18.263579     18.263579     36.527159
     -3.428428     19.400782     19.400782     38.801563
     -3.418418     19.886521     19.886521     39.773041
     -3.408408     19.616282     19.616282     39.232563
     -3.398398     18.698268     18.698268     37.396536
     -3.388388     17.443906     17.443906     34.887813
     -3.378378     16.314113     16.314113     32.628226
     -3.368368     15.826416     15.826416     31.652833
     -3.358358     16.439578     16.439578     32.879155
     -3.348348     18.443147     18.443147     36.886294
     -3.338338     21.878345     21.878345     43.756689
     -3.328328     26.503910     26.503910     53.007821
     -3.318318     31.808775     31.808775     63.617551
     -3.308308     37.072691     37.072691     74.145383
     -3.298298     41.479548     41.479548     82.959096
     -3.288288     44.278367     44.278367     88.556734
     -3.278278     44.958202     44.958202     89.916405
     -3.268268     43.375792     43.375792     86.751585
     -3.258258     39.779334     39.779334     79.558669
     -3.248248     34.716331     34.716331     69.432662
     -3.238238     28.870004     28.870004     57.740008
     -3.228228     22.896485     22.896485     45.792970
     -3.218218     17.317705     17.317705     34.635410
     -3.208208     12.483262     12.483262     24.966523
     -3.198198      8.582542      8.582542     17.165083
     -3.188188      5.682313      5.682313     11.364626
     -3.178178      3.775205      3.775205      7.550409
     -3.168168      2.832442      2.832442      5.664884
     -3.158158      2.851334      2.851334      5.702667
     -3.148148      3.880114      3.880114      7.760227
     -3.138138      6.001115      6.001115     12.002230
     -3.128128      9.265016      9.265016     18.530031
     -3.118118     13.592631     13.592631     27.185262
     -3.108108     18.686330     18.686330     37.372660
     -3.098098     24.004776     24.004776     48.009552
     -3.088088     28.838588     28.838588     57.677176
     -3.078078     32.479947     32.479947     64.959894
     -3.068068     34.425637     34.425637     68.851273
     -3.058058     34.523189     34.523189     69.046377
     -3.048048     32.988892     32.988892     65.977784
     -3.038038     30.290220     30.290220     60.580440
     -3.028028     26.957514     26.957514     53.915028
     -3.018018     23.424268     23.424268     46.848536
     -3.008008     19.969616     19.969616     39.939232
     -2.997998     16.769455     16.769455     33.538909
     -2.987988     13.999969     13.999969     27.999938
     -2.977978     11.917207     11.917207     23.834414
     -2.967968     10.862657     10.862657     21.725313
     -2.957958     11.191169     11.191169     22.382337
     -2.947948     13.153308     13.153308     26.306617
     -2.937938     16.777103     16.777103     33.554207
     -2.927928     21.790721     21.790721     43.581442
     -2.917918     27.617841     27.617841     55.235682
     -2.907908     33.462575     33.462575     66.925150
     -2.897898     38.476173     38.476173     76.952346
     -2.887888     41.964775     41.964775     83.929551
     -2.877878     43.569636     43.569636     87.139272
     -2.867868     43.347935     43.347935     86.695871
     -2.857858     41.714204     41.714204     83.428409
     -2.847848     39.260739     39.260739     78.521478
     -2.837838     36.532648     36.532648     73.065295
     -2.827828     33.857096     33.857096     67.714192
     -2.817818     31.299800     31.299800     62.599600
     -2.807808     28.755983     28.755983     57.511965
     -2.797798     26.113325     26.113325     52.226649
     -2.787788     23.390416     23.390416     46.780832
     -2.777778     20.775145     20.775145     41.550291
     -2.767768     18.550241     18.550241     37.100483
     -2.757758     16.960227     16.960227     33.920453
     -2.747748     16.105557     16.105557     32.211113
     -2.737738     15.927280     15.927280     31.854560
     -2.727728     16.283477     16.283477     32.566955
     -2.717718     17.056802     17.056802     34.113603
     -2.707708     18.212225     18.212225     36.424450
     -2.697698     19.761540     19.761540     39.523079
     -2.687688     21.662606     21.662606     43.325211
     -2.677678     23.736256     23.736256     47.472513
     -2.667668     25.679173     25.679173     51.358345
     -2.657658     27.185268     27.185268     54.370536
     -2.647648     28.106212     28.106212     56.212424
     -2.637638     28.544744     28.544744     57.089488
     -2.627628     28.812627     28.812627     57.625255
     -2.617618     29.272720     29.272720     58.545441
     -2.607608     30.157899     30.157899     60.315799
     -2.597598     31.466636     31.466636     62.933272
     -2.587588     32.975964     32.975964     65.951927
     -2.577578     34.337254     34.337254     68.674509
     -2.567568     35.185282     35.185282     70.370565
     -2.557558     35.213960     35.213960     70.427919
     -2.547548     34.221038     34.221038     68.442075
     -2.537538     32.150642     32.150642     64.301284
     -2.527528     29.145614     29.145614     58.291228
     -2.517518     25.583161     25.583161     51.166323
     -2.507508     22.047944     22.047944     44.095888
     -2.497497     19.217983     19.217983     38.435967
     -2.487487     17.686720     17.686720     35.373440
     -2.477477     17.785544     17.785544     35.571088
     -2.467467     19.479839     19.479839     38.959679
     -2.457457     22.385150     22.385150     44.770301
     -2.447447     25.902675     25.902675     51.805350
     -2.437437     29.424686     29.424686     58.849372
     -2.427427     32.528899     32.528899     65.057797
     -2.417417     35.080328     35.080328     70.160657
     -2.407407     37.194395     37.194395     74.388790
     -2.397397     39.075894     39.075894     78.151788
     -2.387387     40.810104     40.810104     81.620207
     -2.377377     42.214167     42.214167     84.428333
     -2.367367     42.837226     42.837226     85.674451
     -2.357357     42.127951     42.127951     84.255902
     -2.347347     39.699136     39.699136     79.398271
     -2.337337     35.560471     35.560471     71.120942
     -2.327327     30.201274     30.201274     60.402548
     -2.317317     24.482282     24.482282     48.964564
     -2.307307     19.392468     19.392468     38.784935
     -2.297297     15.783742     15.783742     31.567484
     -2.287287     14.185453     14.185453     28.370907
     -2.277277     14.741672     14.741672     29.483344
     -2.267267     17.252745     17.252745     34.505489
     -2.257257     21.272002     21.272002     42.544005
     -2.247247     26.212040     26.212040     52.424080
     -2.237237     31.435044     31.435044     62.870088
     -2.227227     36.320481     36.320481     72.640961
     -2.217217     40.314376     40.314376     80.628753
     -2.207207     42.969388     42.969388     85.938775
     -2.197197     43.985891     43.985891     87.971782
     -2.187187     43.259525     43.259525     86.519051
     -2.177177     40.927309     40.927309     81.854618
     -2.167167     37.386686     37.386686     74.773371
     -2.157157     33.253341     33.253341     66.506682
     -2.147147     29.238988     29.238988     58.477975
     -2.137137     25.969617     25.969617     51.939233
     -2.127127     23.806221     23.806221     47.612443
     -2.117117     22.743527     22.743527     45.487053
     -2.107107     22.433569     22.433569     44.867138
     -2.097097     22.325138     22.325138     44.650276
     -2.087087     21.860162     21.860162     43.720324
     -2.077077     20.650366     20.650366     41.300732
     -2.067067     18.575444     18.575444     37.150889
     -2.057057     15.781972     15.781972     31.563945
     -2.047047     12.600348     12.600348     25.200696
     -2.037037      9.421580      9.421580     18.843159
     -2.027027      6.581529      6.581529     13.163059
     -2.017017      4.288572      4.288572      8.577145
     -2.007007      2.608102      2.608102      5.216204
     -1.996997      1.494343      1.494343      2.988685
     -1.986987      0.846251      0.846251      1.692502
     -1.976977      0.563573      0.563573      1.127146
     -1.966967      0.587357      0.587357      1.174715
     -1.956957      0.918741      0.918741      1.837481
     -1.946947      1.615294      1.615294      3.230588
     -1.936937      2.766006      2.766006      5.532012
     -1.926927      4.448281      4.448281      8.896561
     -1.916917      6.676303      6.676303     13.352605
     -1.906907      9.357786      9.357786     18.715572
     -1.896897     12.279024     12.279024     24.558049
     -1.886887     15.130890     15.130890     30.261779
     -1.876877     17.572528     17.572528     35.145057
     -1.866867     19.313688     19.313688     38.627375
     -1.856857     20.189525     20.189525     40.379050
     -1.846847     20.204872     20.204872     40.409745
     -1.836837     19.533118     19.533118     39.066236
     -1.826827     18.464574     18.464574     36.929148
     -1.816817     17.312568     17.312568     34.625137
     -1.806807     16.304429     16.304429     32.608857
     -1.796797     15.500907     15.500907     31.001815
     -1.786787     14.785437     14.785437     29.570875
     -1.776777     13.935195     13.935195     27.870389
     -1.766767     12.742137     12.742137     25.484273
     -1.756757     11.122755     11.122755     22.245510
     -1.746747      9.162505      9.162505     18.325011
     -1.736737      7.080664      7.080664     14.161328
     -1.726727      5.146010      5.146010     10.292019
     -1.716717      3.593955      3.593955      7.187911
     -1.706707      2.582486      2.582486      5.164971
     -1.696697      2.191813      2.191813      4.383625
     -1.686687      2.444853      2.444853      4.889705
     -1.676677      3.318568      3.318568      6.637136
     -1.666667      4.730900      4.730900      9.461800
     -1.656657      6.513109      6.513109     13.026217
     -1.646647      8.396681      8.396681     16.793361
     -1.636637     10.044454     10.044454     20.088909
     -1.626627     11.134314     11.134314     22.268629
