# EIG2DOS: Utility for SIESTA to obtain the electronic density of states
#  E. Artacho, Apr 1999, A. Garcia, Apr 2012
#  Nick R. Papior, Feb 2017
# ------------------------------------------
# Eigenvalues calculated from a non-polarized calculation
# Eigenvalues read from siesta.EIG
# Kpoint weights read from siesta.KP
# Using smearing parameter:   0.0500
# Using 1000 points in the energy range
# Selected bands: 1 to: 2981
# Emin, Emax in file for selected band(s):    -27.2927046    218.4099750
# Nbands, Nspin, Nk   =   2981     1     1
# E_F                 =    -4.1888 eV --> (shifted to ZERO)
# Broadening          =     0.0500 eV
#
#        E            N(up)  (=)   N(down)         Ntot
     -5.000000     35.518166     35.518166     71.036331
     -4.989990     40.370447     40.370447     80.740894
     -4.979980     44.300921     44.300921     88.601843
     -4.969970     46.587112     46.587112     93.174224
     -4.959960     46.816011     46.816011     93.632022
     -4.949950     45.022350     45.022350     90.044701
     -4.939940     41.679252     41.679252     83.358504
     -4.929930     37.570804     37.570804     75.141607
     -4.919920     33.617916     33.617916     67.235833
     -4.909910     30.715746     30.715746     61.431492
     -4.899900     29.596000     29.596000     59.192001
     -4.889890     30.696840     30.696840     61.393680
     -4.879880     34.036498     34.036498     68.072995
     -4.869870     39.130985     39.130985     78.261970
     -4.859860     45.025632     45.025632     90.051265
     -4.849850     50.485812     50.485812    100.971624
     -4.839840     54.317262     54.317262    108.634524
     -4.829830     55.707311     55.707311    111.414622
     -4.819820     54.450128     54.450128    108.900256
     -4.809810     50.964985     50.964985    101.929969
     -4.799800     46.111161     46.111161     92.222322
     -4.789790     40.891609     40.891609     81.783217
     -4.779780     36.172080     36.172080     72.344159
     -4.769770     32.511119     32.511119     65.022238
     -4.759760     30.126189     30.126189     60.252378
     -4.749750     28.956621     28.956621     57.913242
     -4.739740     28.757856     28.757856     57.515712
     -4.729730     29.177506     29.177506     58.355012
     -4.719720     29.801777     29.801777     59.603555
     -4.709710     30.193204     30.193204     60.386409
     -4.699700     29.949176     29.949176     59.898352
     -4.689690     28.793336     28.793336     57.586672
     -4.679680     26.681152     26.681152     53.362304
     -4.669670     23.876847     23.876847     47.753695
     -4.659660     20.957064     20.957064     41.914127
     -4.649650     18.718400     18.718400     37.436800
     -4.639640     17.998373     17.998373     35.996746
     -4.629630     19.447348     19.447348     38.894696
     -4.619620     23.307377     23.307377     46.614754
     -4.609610     29.264913     29.264913     58.529826
     -4.599600     36.444416     36.444416     72.888833
     -4.589590     43.584029     43.584029     87.168058
     -4.579580     49.372590     49.372590     98.745181
     -4.569570     52.847055     52.847055    105.694110
     -4.559560     53.697505     53.697505    107.395010
     -4.549550     52.346981     52.346981    104.693961
     -4.539540     49.766448     49.766448     99.532897
     -4.529530     47.102694     47.102694     94.205389
     -4.519520     45.273967     45.273967     90.547935
     -4.509510     44.688555     44.688555     89.377110
     -4.499499     45.175465     45.175465     90.350930
     -4.489489     46.124402     46.124402     92.248804
     -4.479479     46.755963     46.755963     93.511927
     -4.469469     46.407719     46.407719     92.815438
     -4.459459     44.733512     44.733512     89.467025
     -4.449449     41.762067     41.762067     83.524135
     -4.439439     37.824852     37.824852     75.649703
     -4.429429     33.414157     33.414157     66.828313
     -4.419419     29.047122     29.047122     58.094244
     -4.409409     25.184694     25.184694     50.369389
     -4.399399     22.205422     22.205422     44.410845
     -4.389389     20.396757     20.396757     40.793514
     -4.379379     19.926934     19.926934     39.853867
     -4.369369     20.795442     20.795442     41.590884
     -4.359359     22.798764     22.798764     45.597528
     -4.349349     25.556518     25.556518     51.113036
     -4.339339     28.612012     28.612012     57.224023
     -4.329329     31.572790     31.572790     63.145580
     -4.319319     34.226446     34.226446     68.452892
     -4.309309     36.575313     36.575313     73.150626
     -4.299299     38.773205     38.773205     77.546411
     -4.289289     40.992381     40.992381     81.984762
     -4.279279     43.276947     43.276947     86.553893
     -4.269269     45.443520     45.443520     90.887040
     -4.259259     47.075899     47.075899     94.151797
     -4.249249     47.632012     47.632012     95.264024
     -4.239239     46.640067     46.640067     93.280134
     -4.229229     43.915348     43.915348     87.830696
     -4.219219     39.702340     39.702340     79.404680
     -4.209209     34.663601     34.663601     69.327203
     -4.199199     29.700587     29.700587     59.401175
     -4.189189     25.672923     25.672923     51.345845
     -4.179179     23.135111     23.135111     46.270222
     -4.169169     22.202406     22.202406     44.404812
     -4.159159     22.595409     22.595409     45.190818
     -4.149149     23.830213     23.830213     47.660426
     -4.139139     25.457656     25.457656     50.915313
     -4.129129     27.237188     27.237188     54.474377
     -4.119119     29.163642     29.163642     58.327284
     -4.109109     31.336976     31.336976     62.673951
     -4.099099     33.748266     33.748266     67.496531
     -4.089089     36.110227     36.110227     72.220454
     -4.079079     37.850268     37.850268     75.700536
     -4.069069     38.300698     38.300698     76.601395
     -4.059059     37.004079     37.004079     74.008159
     -4.049049     33.973620     33.973620     67.947241
     -4.039039     29.764314     29.764314     59.528629
     -4.029029     25.314142     25.314142     50.628284
     -4.019019     21.638925     21.638925     43.277849
     -4.009009     19.530960     19.530960     39.061920
     -3.998999     19.386906     19.386906     38.773813
     -3.988989     21.203647     21.203647     42.407295
     -3.978979     24.694067     24.694067     49.388135
     -3.968969     29.436647     29.436647     58.873295
     -3.958959     34.991830     34.991830     69.983660
     -3.948949     40.965710     40.965710     81.931421
     -3.938939     47.038013     47.038013     94.076025
     -3.928929     52.974168     52.974168    105.948336
     -3.918919     58.619815     58.619815    117.239631
     -3.908909     63.860399     63.860399    127.720797
     -3.898899     68.541610     68.541610    137.083219
     -3.888889     72.381805     72.381805    144.763609
     -3.878879     74.934159     74.934159    149.868319
     -3.868869     75.646195     75.646195    151.292390
     -3.858859     74.017375     74.017375    148.034750
     -3.848849     69.800027     69.800027    139.600054
     -3.838839     63.158989     63.158989    126.317979
     -3.828829     54.717523     54.717523    109.435047
     -3.818819     45.462219     45.462219     90.924437
     -3.808809     36.533689     36.533689     73.067378
     -3.798799     28.969102     28.969102     57.938203
     -3.788789     23.474409     23.474409     46.948818
     -3.778779     20.289207     20.289207     40.578414
     -3.768769     19.175266     19.175266     38.350532
     -3.758759     19.523727     19.523727     39.047455
     -3.748749     20.546363     20.546363     41.092726
     -3.738739     21.499015     21.499015     42.998029
     -3.728729     21.881421     21.881421     43.762843
     -3.718719     21.565092     21.565092     43.130183
     -3.708709     20.816746     20.816746     41.633493
     -3.698699     20.207219     20.207219     40.414438
     -3.688689     20.423266     20.423266     40.846532
     -3.678679     22.029384     22.029384     44.058767
     -3.668669     25.250264     25.250264     50.500529
     -3.658659     29.849467     29.849467     59.698933
     -3.648649     35.155725     35.155725     70.311449
     -3.638639     40.236743     40.236743     80.473485
     -3.628629     44.160717     44.160717     88.321434
     -3.618619     46.248667     46.248667     92.497334
     -3.608609     46.228543     46.228543     92.457085
     -3.598599     44.251453     44.251453     88.502905
     -3.588589     40.790936     40.790936     81.581871
     -3.578579     36.482774     36.482774     72.965548
     -3.568569     31.962076     31.962076     63.924152
     -3.558559     27.732004     27.732004     55.464007
     -3.548549     24.080293     24.080293     48.160585
     -3.538539     21.055272     21.055272     42.110543
     -3.528529     18.510258     18.510258     37.020515
     -3.518519     16.208583     16.208583     32.417166
     -3.508509     13.953901     13.953901     27.907803
     -3.498498     11.692989     11.692989     23.385977
     -3.488488      9.549070      9.549070     19.098139
     -3.478478      7.778436      7.778436     15.556872
     -3.468468      6.678179      6.678179     13.356358
     -3.458458      6.486763      6.486763     12.973527
     -3.448448      7.309824      7.309824     14.619648
     -3.438438      9.085551      9.085551     18.171101
     -3.428428     11.591552     11.591552     23.183104
     -3.418418     14.490310     14.490310     28.980619
     -3.408408     17.406143     17.406143     34.812286
     -3.398398     20.018476     20.018476     40.036952
     -3.388388     22.147548     22.147548     44.295096
     -3.378378     23.806480     23.806480     47.612960
     -3.368368     25.200213     25.200213     50.400426
     -3.358358     26.664162     26.664162     53.328324
     -3.348348     28.549760     28.549760     57.099519
     -3.338338     31.079820     31.079820     62.159640
     -3.328328     34.213787     34.213787     68.427575
     -3.318318     37.575967     37.575967     75.151935
     -3.308308     40.496444     40.496444     80.992888
     -3.298298     42.182889     42.182889     84.365778
     -3.288288     41.984207     41.984207     83.968415
     -3.278278     39.648995     39.648995     79.297990
     -3.268268     35.461332     35.461332     70.922664
     -3.258258     30.178147     30.178147     60.356294
     -3.248248     24.782403     24.782403     49.564807
     -3.238238     20.155353     20.155353     40.310706
     -3.228228     16.807370     16.807370     33.614741
     -3.218218     14.772423     14.772423     29.544846
     -3.208208     13.690832     13.690832     27.381664
     -3.198198     13.024199     13.024199     26.048397
     -3.188188     12.302195     12.302195     24.604389
     -3.178178     11.305396     11.305396     22.610793
     -3.168168     10.130110     10.130110     20.260220
     -3.158158      9.134840      9.134840     18.269679
     -3.148148      8.807700      8.807700     17.615400
     -3.138138      9.605889      9.605889     19.211779
     -3.128128     11.807925     11.807925     23.615849
     -3.118118     15.404819     15.404819     30.809638
     -3.108108     20.051722     20.051722     40.103444
     -3.098098     25.102744     25.102744     50.205489
     -3.088088     29.741400     29.741400     59.482799
     -3.078078     33.186027     33.186027     66.372054
     -3.068068     34.905557     34.905557     69.811115
     -3.058058     34.757887     34.757887     69.515773
     -3.048048     32.987596     32.987596     65.975193
     -3.038038     30.087287     30.087287     60.174573
     -3.028028     26.598089     26.598089     53.196177
     -3.018018     22.952538     22.952538     45.905076
     -3.008008     19.428121     19.428121     38.856242
     -2.997998     16.207703     16.207703     32.415405
     -2.987988     13.483185     13.483185     26.966369
     -2.977978     11.526243     11.526243     23.052486
     -2.967968     10.682395     10.682395     21.364789
     -2.957958     11.291470     11.291470     22.582940
     -2.947948     13.569432     13.569432     27.138865
     -2.937938     17.495399     17.495399     34.990797
     -2.927928     22.742974     22.742974     45.485949
     -2.917918     28.686040     28.686040     57.372079
     -2.907908     34.494887     34.494887     68.989774
     -2.897898     39.313289     39.313289     78.626579
     -2.887888     42.472545     42.472545     84.945090
     -2.877878     43.670065     43.670065     87.340131
     -2.867868     43.038417     43.038417     86.076835
     -2.857858     41.066826     41.066826     82.133651
     -2.847848     38.400378     38.400378     76.800755
     -2.837838     35.601710     35.601710     71.203420
     -2.827828     32.981033     32.981033     65.962066
     -2.817818     30.566578     30.566578     61.133157
     -2.807808     28.214370     28.214370     56.428740
     -2.797798     25.784201     25.784201     51.568402
     -2.787788     23.279293     23.279293     46.558586
     -2.777778     20.876633     20.876633     41.753267
     -2.767768     18.844345     18.844345     37.688689
     -2.757758     17.409213     17.409213     34.818426
     -2.747748     16.661481     16.661481     33.322961
     -2.737738     16.551783     16.551783     33.103566
     -2.727728     16.968611     16.968611     33.937223
     -2.717718     17.828718     17.828718     35.657435
     -2.707708     19.106803     19.106803     38.213607
     -2.697698     20.780613     20.780613     41.561226
     -2.687688     22.738359     22.738359     45.476718
     -2.677678     24.733648     24.733648     49.467296
     -2.667668     26.445780     26.445780     52.891560
     -2.657658     27.626049     27.626049     55.252097
     -2.647648     28.239788     28.239788     56.479576
     -2.637638     28.504885     28.504885     57.009771
     -2.627628     28.790805     28.790805     57.581611
     -2.617618     29.432884     29.432884     58.865769
     -2.607608     30.568625     30.568625     61.137251
     -2.597598     32.080449     32.080449     64.160898
     -2.587588     33.654982     33.654982     67.309963
     -2.577578     34.901774     34.901774     69.803548
     -2.567568     35.460997     35.460997     70.921994
     -2.557558     35.068285     35.068285     70.136570
     -2.547548     33.592214     33.592214     67.184428
     -2.537538     31.072860     31.072860     62.145720
     -2.527528     27.762794     27.762794     55.525587
     -2.517518     24.136685     24.136685     48.273370
     -2.507508     20.829529     20.829529     41.659057
     -2.497497     18.495463     18.495463     36.990927
     -2.487487     17.626455     17.626455     35.252911
     -2.477477     18.400218     18.400218     36.800437
     -2.467467     20.622195     20.622195     41.244390
     -2.457457     23.791277     23.791277     47.582553
     -2.447447     27.270183     27.270183     54.540367
     -2.437437     30.498353     30.498353     60.996706
     -2.427427     33.164017     33.164017     66.328034
     -2.417417     35.263066     35.263066     70.526132
     -2.407407     37.015181     37.015181     74.030362
     -2.397397     38.669446     38.669446     77.338893
     -2.387387     40.287760     40.287760     80.575520
     -2.377377     41.616791     41.616791     83.233582
     -2.367367     42.128546     42.128546     84.257093
     -2.357357     41.230258     41.230258     82.460516
     -2.347347     38.552397     38.552397     77.104794
     -2.337337     34.173395     34.173395     68.346790
     -2.327327     28.667623     28.667623     57.335246
     -2.317317     22.956276     22.956276     45.912551
     -2.307307     18.040186     18.040186     36.080371
     -2.297297     14.737878     14.737878     29.475756
     -2.287287     13.523282     13.523282     27.046565
     -2.277277     14.488406     14.488406     28.976812
     -2.267267     17.397850     17.397850     34.795699
     -2.257257     21.782830     21.782830     43.565661
     -2.247247     27.036292     27.036292     54.072584
     -2.237237     32.494050     32.494050     64.988100
     -2.227227     37.502134     37.502134     75.004269
     -2.217217     41.475139     41.475139     82.950278
     -2.207207     43.950225     43.950225     87.900449
     -2.197197     44.640076     44.640076     89.280152
     -2.187187     43.483077     43.483077     86.966154
     -2.177177     40.677586     40.677586     81.355172
     -2.167167     36.674831     36.674831     73.349661
     -2.157157     32.105604     32.105604     64.211208
     -2.147147     27.640423     27.640423     55.280845
     -2.137137     23.823113     23.823113     47.646225
     -2.127127     20.945910     20.945910     41.891821
     -2.117117     19.022520     19.022520     38.045039
     -2.107107     17.864026     17.864026     35.728053
     -2.097097     17.204558     17.204558     34.409115
     -2.087087     16.801846     16.801846     33.603692
     -2.077077     16.468511     16.468511     32.937022
     -2.067067     16.047540     16.047540     32.095081
     -2.057057     15.384104     15.384104     30.768208
     -2.047047     14.337272     14.337272     28.674544
     -2.037037     12.831460     12.831460     25.662920
     -2.027027     10.907809     10.907809     21.815618
     -2.017017      8.732058      8.732058     17.464117
     -2.007007      6.546929      6.546929     13.093858
     -1.996997      4.595355      4.595355      9.190711
     -1.986987      3.057026      3.057026      6.114051
     -1.976977      2.027085      2.027085      4.054169
     -1.966967      1.537124      1.537124      3.074248
     -1.956957      1.595379      1.595379      3.190759
     -1.946947      2.216959      2.216959      4.433918
     -1.936937      3.424872      3.424872      6.849743
     -1.926927      5.220780      5.220780     10.441561
     -1.916917      7.541906      7.541906     15.083813
     -1.906907     10.229729     10.229729     20.459458
     -1.896897     13.032209     13.032209     26.064418
     -1.886887     15.645180     15.645180     31.290360
     -1.876877     17.779071     17.779071     35.558142
     -1.866867     19.226106     19.226106     38.452213
     -1.856857     19.905917     19.905917     39.811834
     -1.846847     19.878361     19.878361     39.756722
     -1.836837     19.321284     19.321284     38.642567
     -1.826827     18.475314     18.475314     36.950628
     -1.816817     17.564629     17.564629     35.129257
     -1.806807     16.716657     16.716657     33.433314
     -1.796797     15.916288     15.916288     31.832575
     -1.786787     15.024232     15.024232     30.048463
     -1.776777     13.858714     13.858714     27.717429
     -1.766767     12.301527     12.301527     24.603053
     -1.756757     10.372258     10.372258     20.744516
     -1.746747      8.233417      8.233417     16.466834
     -1.736737      6.131232      6.131232     12.262463
     -1.726727      4.312126      4.312126      8.624252
     -1.716717      2.960562      2.960562      5.921124
     -1.706707      2.181075      2.181075      4.362151
     -1.696697      2.015444      2.015444      4.030889
     -1.686687      2.466376      2.466376      4.932751
     -1.676677      3.501262      3.501262      7.002524
     -1.666667      5.029245      5.029245     10.058491
     -1.656657      6.869178      6.869178     13.738357
     -1.646647      8.740653      8.740653     17.481306
     -1.636637     10.304873     10.304873     20.609745
     -1.626627     11.256912     11.256912     22.513824
