# EIG2DOS: Utility for SIESTA to obtain the electronic density of states
#  E. Artacho, Apr 1999, A. Garcia, Apr 2012
#  Nick R. Papior, Feb 2017
# ------------------------------------------
# Eigenvalues calculated from a non-polarized calculation
# Eigenvalues read from siesta.EIG
# Kpoint weights read from siesta.KP
# Using smearing parameter:   0.0500
# Using 1000 points in the energy range
# Selected bands: 1 to: 2981
# Emin, Emax in file for selected band(s):    -27.0433950    218.3219580
# Nbands, Nspin, Nk   =   2981     1     1
# E_F                 =    -4.2866 eV --> (shifted to ZERO)
# Broadening          =     0.0500 eV
#
#        E            N(up)  (=)   N(down)         Ntot
     -5.000000     46.914061     46.914061     93.828122
     -4.989990     49.418594     49.418594     98.837188
     -4.979980     50.333425     50.333425    100.666850
     -4.969970     49.699451     49.699451     99.398901
     -4.959960     47.740889     47.740889     95.481779
     -4.949950     44.793454     44.793454     89.586909
     -4.939940     41.245745     41.245745     82.491490
     -4.929930     37.517869     37.517869     75.035738
     -4.919920     34.074021     34.074021     68.148041
     -4.909910     31.440536     31.440536     62.881073
     -4.899900     30.187134     30.187134     60.374269
     -4.889890     30.833596     30.833596     61.667193
     -4.879880     33.675099     33.675099     67.350198
     -4.869870     38.575376     38.575376     77.150752
     -4.859860     44.832141     44.832141     89.664281
     -4.849850     51.228489     51.228489    102.456977
     -4.839840     56.316484     56.316484    112.632967
     -4.829830     58.855754     58.855754    117.711507
     -4.819820     58.224307     58.224307    116.448615
     -4.809810     54.609027     54.609027    109.218054
     -4.799800     48.888631     48.888631     97.777261
     -4.789790     42.279806     42.279806     84.559612
     -4.779780     35.926531     35.926531     71.853062
     -4.769770     30.609707     30.609707     61.219414
     -4.759760     26.657543     26.657543     53.315085
     -4.749750     24.023675     24.023675     48.047350
     -4.739740     22.439659     22.439659     44.879318
     -4.729730     21.556721     21.556721     43.113442
     -4.719720     21.036159     21.036159     42.072318
     -4.709710     20.589013     20.589013     41.178026
     -4.699700     19.986643     19.986643     39.973286
     -4.689690     19.068062     19.068062     38.136124
     -4.679680     17.763089     17.763089     35.526179
     -4.669670     16.134483     16.134483     32.268966
     -4.659660     14.421673     14.421673     28.843346
     -4.649650     13.054645     13.054645     26.109290
     -4.639640     12.608715     12.608715     25.217430
     -4.629630     13.688960     13.688960     27.377920
     -4.619620     16.758426     16.758426     33.516851
     -4.609610     21.949588     21.949588     43.899177
     -4.599600     28.919996     28.919996     57.839992
     -4.589590     36.822424     36.822424     73.644847
     -4.579580     44.441796     44.441796     88.883593
     -4.569570     50.495390     50.495390    100.990780
     -4.559560     54.014092     54.014092    108.028184
     -4.549550     54.662524     54.662524    109.325048
     -4.539540     52.858367     52.858367    105.716735
     -4.529530     49.627460     49.627460     99.254920
     -4.519520     46.245921     46.245921     92.491843
     -4.509510     43.813199     43.813199     87.626398
     -4.499499     42.922995     42.922995     85.845990
     -4.489489     43.545620     43.545620     87.091241
     -4.479479     45.138288     45.138288     90.276576
     -4.469469     46.908705     46.908705     93.817409
     -4.459459     48.110807     48.110807     96.221615
     -4.449449     48.261599     48.261599     96.523199
     -4.439439     47.220530     47.220530     94.441059
     -4.429429     45.139165     45.139165     90.278330
     -4.419419     42.339451     42.339451     84.678902
     -4.409409     39.193570     39.193570     78.387140
     -4.399399     36.054008     36.054008     72.108015
     -4.389389     33.235834     33.235834     66.471668
     -4.379379     31.015249     31.015249     62.030498
     -4.369369     29.605267     29.605267     59.210535
     -4.359359     29.102036     29.102036     58.204072
     -4.349349     29.436146     29.436146     58.872292
     -4.339339     30.376795     30.376795     60.753591
     -4.329329     31.609064     31.609064     63.218129
     -4.319319     32.856105     32.856105     65.712210
     -4.309309     33.986010     33.986010     67.972020
     -4.299299     35.049991     35.049991     70.099981
     -4.289289     36.235336     36.235336     72.470671
     -4.279279     37.755266     37.755266     75.510533
     -4.269269     39.717824     39.717824     79.435647
     -4.259259     42.018697     42.018697     84.037394
     -4.249249     44.299768     44.299768     88.599536
     -4.239239     46.006647     46.006647     92.013294
     -4.229229     46.551511     46.551511     93.103022
     -4.219219     45.536874     45.536874     91.073749
     -4.209209     42.945144     42.945144     85.890288
     -4.199199     39.190820     39.190820     78.381640
     -4.189189     34.990528     34.990528     69.981055
     -4.179179     31.104066     31.104066     62.208132
     -4.169169     28.073689     28.073689     56.147377
     -4.159159     26.087813     26.087813     52.175626
     -4.149149     25.021527     25.021527     50.043054
     -4.139139     24.610136     24.610136     49.220272
     -4.129129     24.650122     24.650122     49.300244
     -4.119119     25.119699     25.119699     50.239398
     -4.109109     26.158721     26.158721     52.317441
     -4.099099     27.919002     27.919002     55.838005
     -4.089089     30.363917     30.363917     60.727834
     -4.079079     33.133110     33.133110     66.266221
     -4.069069     35.569702     35.569702     71.139405
     -4.059059     36.928874     36.928874     73.857748
     -4.049049     36.682089     36.682089     73.364179
     -4.039039     34.763692     34.763692     69.527385
     -4.029029     31.627223     31.627223     63.254446
     -4.019019     28.082267     28.082267     56.164534
     -4.009009     25.003901     25.003901     50.007801
     -3.998999     23.066557     23.066557     46.133115
     -3.988989     22.617651     22.617651     45.235303
     -3.978979     23.707310     23.707310     47.414621
     -3.968969     26.201863     26.201863     52.403726
     -3.958959     29.886573     29.886573     59.773146
     -3.948949     34.508803     34.508803     69.017606
     -3.938939     39.779000     39.779000     79.557999
     -3.928929     45.378979     45.378979     90.757958
     -3.918919     51.005305     51.005305    102.010610
     -3.908909     56.426202     56.426202    112.852405
     -3.898899     61.499713     61.499713    122.999425
     -3.888889     66.116875     66.116875    132.233749
     -3.878879     70.086905     70.086905    140.173810
     -3.868869     73.034018     73.034018    146.068036
     -3.858859     74.389493     74.389493    148.778986
     -3.848849     73.523271     73.523271    147.046542
     -3.838839     69.984269     69.984269    139.968538
     -3.828829     63.748768     63.748768    127.497537
     -3.818819     55.354225     55.354225    110.708450
     -3.808809     45.839419     45.839419     91.678838
     -3.798799     36.499859     36.499859     72.999718
     -3.788789     28.550746     28.550746     57.101492
     -3.778779     22.823826     22.823826     45.647652
     -3.768769     19.597563     19.597563     39.195127
     -3.758759     18.597028     18.597028     37.194056
     -3.748749     19.138611     19.138611     38.277222
     -3.738739     20.359872     20.359872     40.719744
     -3.728729     21.467827     21.467827     42.935653
     -3.718719     21.947796     21.947796     43.895591
     -3.708709     21.688468     21.688468     43.376936
     -3.698699     20.994347     20.994347     41.988693
     -3.688689     20.477323     20.477323     40.954645
     -3.678679     20.847615     20.847615     41.695229
     -3.668669     22.657572     22.657572     45.315144
     -3.658659     26.078548     26.078548     52.157095
     -3.648649     30.794275     30.794275     61.588550
     -3.638639     36.061230     36.061230     72.122459
     -3.628629     40.921980     40.921980     81.843961
     -3.618619     44.489735     44.489735     88.979469
     -3.608609     46.190326     46.190326     92.380652
     -3.598599     45.874294     45.874294     91.748589
     -3.588589     43.780916     43.780916     87.561832
     -3.578579     40.402688     40.402688     80.805376
     -3.568569     36.323087     36.323087     72.646173
     -3.558559     32.079647     32.079647     64.159294
     -3.548549     28.069822     28.069822     56.139643
     -3.538539     24.500379     24.500379     49.000759
     -3.528529     21.384976     21.384976     42.769952
     -3.518519     18.596923     18.596923     37.193845
     -3.508509     15.967785     15.967785     31.935570
     -3.498498     13.395764     13.395764     26.791528
     -3.488488     10.915923     10.915923     21.831846
     -3.478478      8.701555      8.701555     17.403110
     -3.468468      7.001134      7.001134     14.002269
     -3.458458      6.043340      6.043340     12.086681
     -3.448448      5.948375      5.948375     11.896749
     -3.438438      6.672598      6.672598     13.345196
     -3.428428      8.000310      8.000310     16.000619
     -3.418418      9.588349      9.588349     19.176698
     -3.408408     11.060172     11.060172     22.120343
     -3.398398     12.128819     12.128819     24.257639
     -3.388388     12.707641     12.707641     25.415282
     -3.378378     12.960460     12.960460     25.920919
     -3.368368     13.262100     13.262100     26.524200
     -3.358358     14.079583     14.079583     28.159165
     -3.348348     15.819736     15.819736     31.639472
     -3.338338     18.697364     18.697364     37.394727
     -3.328328     22.657236     22.657236     45.314473
     -3.318318     27.354146     27.354146     54.708291
     -3.308308     32.183103     32.183103     64.366206
     -3.298298     36.360960     36.360960     72.721919
     -3.288288     39.069597     39.069597     78.139195
     -3.278278     39.653336     39.653336     79.306672
     -3.268268     37.819908     37.819908     75.639815
     -3.258258     33.759995     33.759995     67.519990
     -3.248248     28.114789     28.114789     56.229577
     -3.238238     21.788796     21.788796     43.577591
     -3.228228     15.684730     15.684730     31.369460
     -3.218218     10.473927     10.473927     20.947855
     -3.208208      6.486796      6.486796     12.973592
     -3.198198      3.738761      3.738761      7.477522
     -3.188188      2.045939      2.045939      4.091879
     -3.178178      1.163366      1.163366      2.326732
     -3.168168      0.895309      0.895309      1.790618
     -3.158158      1.158051      1.158051      2.316103
     -3.148148      1.997507      1.997507      3.995013
     -3.138138      3.569522      3.569522      7.139044
     -3.128128      6.086828      6.086828     12.173655
     -3.118118      9.735437      9.735437     19.470873
     -3.108108     14.572163     14.572163     29.144326
     -3.098098     20.430953     20.430953     40.861905
     -3.088088     26.877367     26.877367     53.754735
     -3.078078     33.244884     33.244884     66.489767
     -3.068068     38.759232     38.759232     77.518463
     -3.058058     42.718022     42.718022     85.436044
     -3.048048     44.663590     44.663590     89.327180
     -3.038038     44.486531     44.486531     88.973061
     -3.028028     42.428442     42.428442     84.856884
     -3.018018     38.997009     38.997009     77.994019
     -3.008008     34.837959     34.837959     69.675918
     -2.997998     30.610741     30.610741     61.221482
     -2.987988     26.894611     26.894611     53.789222
     -2.977978     24.130003     24.130003     48.260006
     -2.967968     22.591648     22.591648     45.183295
     -2.957958     22.391113     22.391113     44.782227
     -2.947948     23.503232     23.503232     47.006464
     -2.937938     25.798897     25.798897     51.597794
     -2.927928     29.059419     29.059419     58.118837
     -2.917918     32.961725     32.961725     65.923450
     -2.907908     37.056283     37.056283     74.112565
     -2.897898     40.784075     40.784075     81.568149
     -2.887888     43.567555     43.567555     87.135110
     -2.877878     44.962544     44.962544     89.925088
     -2.867868     44.805571     44.805571     89.611143
     -2.857858     43.274878     43.274878     86.549757
     -2.847848     40.819880     40.819880     81.639761
     -2.837838     37.983085     37.983085     75.966169
     -2.827828     35.197720     35.197720     70.395440
     -2.817818     32.657812     32.657812     65.315624
     -2.807808     30.317753     30.317753     60.635507
     -2.797798     28.008913     28.008913     56.017825
     -2.787788     25.600499     25.600499     51.200999
     -2.777778     23.113390     23.113390     46.226781
     -2.767768     20.727894     20.727894     41.455789
     -2.757758     18.690546     18.690546     37.381092
     -2.747748     17.184130     17.184130     34.368261
     -2.737738     16.244674     16.244674     32.489348
     -2.727728     15.776912     15.776912     31.553825
     -2.717718     15.654617     15.654617     31.309235
     -2.707708     15.834864     15.834864     31.669728
     -2.697698     16.403747     16.403747     32.807494
     -2.687688     17.515202     17.515202     35.030405
     -2.677678     19.257621     19.257621     38.515243
     -2.667668     21.536628     21.536628     43.073256
     -2.657658     24.058697     24.058697     48.117393
     -2.647648     26.437928     26.437928     52.875857
     -2.637638     28.366921     28.366921     56.733842
     -2.627628     29.747842     29.747842     59.495684
     -2.617618     30.704623     30.704623     61.409246
     -2.607608     31.475584     31.475584     62.951169
     -2.597598     32.261579     32.261579     64.523158
     -2.587588     33.123151     33.123151     66.246303
     -2.577578     33.971886     33.971886     67.943772
     -2.567568     34.629801     34.629801     69.259603
     -2.557558     34.895463     34.895463     69.790925
     -2.547548     34.579423     34.579423     69.158846
     -2.537538     33.523025     33.523025     67.046051
     -2.527528     31.639407     31.639407     63.278814
     -2.517518     28.988959     28.988959     57.977919
     -2.507508     25.849957     25.849957     51.699915
     -2.497497     22.719463     22.719463     45.438926
     -2.487487     20.207648     20.207648     40.415295
     -2.477477     18.852195     18.852195     37.704391
     -2.467467     18.933159     18.933159     37.866318
     -2.457457     20.377092     20.377092     40.754183
     -2.447447     22.799028     22.799028     45.598056
     -2.437437     25.665793     25.665793     51.331585
     -2.427427     28.507109     28.507109     57.014218
     -2.417417     31.078100     31.078100     62.156200
     -2.407407     33.398307     33.398307     66.796613
     -2.397397     35.649486     35.649486     71.298972
     -2.387387     37.981994     37.981994     75.963988
     -2.377377     40.326413     40.326413     80.652825
     -2.367367     42.310283     42.310283     84.620565
     -2.357357     43.335292     43.335292     86.670584
     -2.347347     42.795426     42.795426     85.590853
     -2.337337     40.345219     40.345219     80.690438
     -2.327327     36.096191     36.096191     72.192382
     -2.317317     30.649063     30.649063     61.298125
     -2.307307     24.946374     24.946374     49.892748
     -2.297297     20.012108     20.012108     40.024217
     -2.287287     16.686075     16.686075     33.372149
     -2.277277     15.444500     15.444500     30.889000
     -2.267267     16.345161     16.345161     32.690321
     -2.257257     19.082548     19.082548     38.165096
     -2.247247     23.110034     23.110034     46.220068
     -2.237237     27.781663     27.781663     55.563325
     -2.227227     32.474041     32.474041     64.948082
     -2.217217     36.661808     36.661808     73.323615
     -2.207207     39.939489     39.939489     79.878977
     -2.197197     42.007367     42.007367     84.014734
     -2.187187     42.657714     42.657714     85.315427
     -2.177177     41.793911     41.793911     83.587822
     -2.167167     39.483798     39.483798     78.967595
     -2.157157     36.007977     36.007977     72.015955
     -2.147147     31.846205     31.846205     63.692410
     -2.137137     27.571557     27.571557     55.143115
     -2.127127     23.681180     23.681180     47.362360
     -2.117117     20.443052     20.443052     40.886105
     -2.107107     17.840416     17.840416     35.680832
     -2.097097     15.643122     15.643122     31.286245
     -2.087087     13.562810     13.562810     27.125619
     -2.077077     11.405432     11.405432     22.810863
     -2.067067      9.146660      9.146660     18.293320
     -2.057057      6.909116      6.909116     13.818233
     -2.047047      4.875923      4.875923      9.751845
     -2.037037      3.198878      3.198878      6.397756
     -2.027027      1.945557      1.945557      3.891114
     -2.017017      1.096553      1.096553      2.193105
     -2.007007      0.576754      0.576754      1.153507
     -1.996997      0.295875      0.295875      0.591749
     -1.986987      0.180692      0.180692      0.361385
     -1.976977      0.193720      0.193720      0.387440
     -1.966967      0.341157      0.341157      0.682315
     -1.956957      0.673895      0.673895      1.347791
     -1.946947      1.281459      1.281459      2.562919
     -1.936937      2.274820      2.274820      4.549640
     -1.926927      3.754472      3.754472      7.508943
     -1.916917      5.766809      5.766809     11.533618
     -1.906907      8.261846      8.261846     16.523692
     -1.896897     11.071773     11.071773     22.143546
     -1.886887     13.926044     13.926044     27.852087
     -1.876877     16.504262     16.504262     33.008525
     -1.866867     18.511211     18.511211     37.022422
     -1.856857     19.749298     19.749298     39.498596
     -1.846847     20.166386     20.166386     40.332772
     -1.836837     19.865864     19.865864     39.731728
     -1.826827     19.074157     19.074157     38.148315
     -1.816817     18.068907     18.068907     36.137814
     -1.806807     17.084220     17.084220     34.168440
     -1.796797     16.226395     16.226395     32.452789
     -1.786787     15.440946     15.440946     30.881892
     -1.776777     14.555050     14.555050     29.110099
     -1.766767     13.381243     13.381243     26.762487
     -1.756757     11.832064     11.832064     23.664129
     -1.746747      9.988184      9.988184     19.976368
     -1.736737      8.090597      8.090597     16.181194
     -1.726727      6.469834      6.469834     12.939668
     -1.716717      5.452199      5.452199     10.904399
     -1.706707      5.280639      5.280639     10.561278
     -1.696697      6.066238      6.066238     12.132476
     -1.686687      7.767090      7.767090     15.534180
     -1.676677     10.187394     10.187394     20.374787
     -1.666667     12.996767     12.996767     25.993533
     -1.656657     15.774724     15.774724     31.549449
     -1.646647     18.080198     18.080198     36.160396
     -1.636637     19.534818     19.534818     39.069637
     -1.626627     19.900955     19.900955     39.801911
