# EIG2DOS: Utility for SIESTA to obtain the electronic density of states
#  E. Artacho, Apr 1999, A. Garcia, Apr 2012
#  Nick R. Papior, Feb 2017
# ------------------------------------------
# Eigenvalues calculated from a non-polarized calculation
# Eigenvalues read from siesta.EIG
# Kpoint weights read from siesta.KP
# Using smearing parameter:   0.0500
# Using 1000 points in the energy range
# Selected bands: 1 to: 2981
# Emin, Emax in file for selected band(s):    -27.2972690    218.3758540
# Nbands, Nspin, Nk   =   2981     1     1
# E_F                 =    -4.2306 eV --> (shifted to ZERO)
# Broadening          =     0.0500 eV
#
#        E            N(up)  (=)   N(down)         Ntot
     -5.000000     32.884281     32.884281     65.768562
     -4.989990     37.325253     37.325253     74.650506
     -4.979980     41.309553     41.309553     82.619106
     -4.969970     44.194047     44.194047     88.388095
     -4.959960     45.466511     45.466511     90.933022
     -4.949950     44.913826     44.913826     89.827652
     -4.939940     42.700396     42.700396     85.400792
     -4.929930     39.339189     39.339189     78.678377
     -4.919920     35.585830     35.585830     71.171659
     -4.909910     32.303011     32.303011     64.606023
     -4.899900     30.322944     30.322944     60.645888
     -4.889890     30.304908     30.304908     60.609817
     -4.879880     32.578677     32.578677     65.157355
     -4.869870     36.996423     36.996423     73.992846
     -4.859860     42.860914     42.860914     85.721827
     -4.849850     49.009501     49.009501     98.019002
     -4.839840     54.082383     54.082383    108.164766
     -4.829830     56.908263     56.908263    113.816526
     -4.819820     56.860180     56.860180    113.720359
     -4.809810     54.027875     54.027875    108.055749
     -4.799800     49.134099     49.134099     98.268198
     -4.789790     43.245306     43.245306     86.490612
     -4.779780     37.418165     37.418165     74.836330
     -4.769770     32.431475     32.431475     64.862949
     -4.759760     28.684167     28.684167     57.368334
     -4.749750     26.246122     26.246122     52.492243
     -4.739740     24.985446     24.985446     49.970892
     -4.729730     24.687248     24.687248     49.374495
     -4.719720     25.112241     25.112241     50.224482
     -4.709710     25.991725     25.991725     51.983451
     -4.699700     26.996250     26.996250     53.992501
     -4.689690     27.733741     27.733741     55.467482
     -4.679680     27.819084     27.819084     55.638167
     -4.669670     27.012776     27.012776     54.025551
     -4.659660     25.372736     25.372736     50.745472
     -4.649650     23.335102     23.335102     46.670204
     -4.639640     21.658988     21.658988     43.317975
     -4.629630     21.228118     21.228118     42.456236
     -4.619620     22.766438     22.766438     45.532876
     -4.609610     26.564284     26.564284     53.128569
     -4.599600     32.314920     32.314920     64.629839
     -4.589590     39.132069     39.132069     78.264138
     -4.579580     45.765072     45.765072     91.530143
     -4.569570     50.959121     50.959121    101.918242
     -4.559560     53.844167     53.844167    107.688333
     -4.549550     54.208472     54.208472    108.416944
     -4.539540     52.545352     52.545352    105.090704
     -4.529530     49.848919     49.848919     99.697839
     -4.519520     47.238588     47.238588     94.477176
     -4.509510     45.562293     45.562293     91.124587
     -4.499499     45.131539     45.131539     90.263079
     -4.489489     45.678399     45.678399     91.356798
     -4.479479     46.527598     46.527598     93.055197
     -4.469469     46.891422     46.891422     93.782845
     -4.459459     46.158165     46.158165     92.316330
     -4.449449     44.067912     44.067912     88.135825
     -4.439439     40.735202     40.735202     81.470403
     -4.429429     36.550473     36.550473     73.100946
     -4.419419     32.035062     32.035062     64.070124
     -4.409409     27.720135     27.720135     55.440271
     -4.399399     24.078590     24.078590     48.157181
     -4.389389     21.492454     21.492454     42.984908
     -4.379379     20.219637     20.219637     40.439275
     -4.369369     20.343723     20.343723     40.687447
     -4.359359     21.728857     21.728857     43.457715
     -4.349349     24.024029     24.024029     48.048058
     -4.339339     26.745536     26.745536     53.491072
     -4.329329     29.422195     29.422195     58.844390
     -4.319319     31.746303     31.746303     63.492606
     -4.309309     33.663040     33.663040     67.326080
     -4.299299     35.356879     35.356879     70.713758
     -4.289289     37.137570     37.137570     74.275140
     -4.279279     39.267041     39.267041     78.534082
     -4.269269     41.789950     41.789950     83.579901
     -4.259259     44.434349     44.434349     88.868698
     -4.249249     46.635041     46.635041     93.270082
     -4.239239     47.695744     47.695744     95.391488
     -4.229229     47.047902     47.047902     94.095804
     -4.219219     44.505325     44.505325     89.010651
     -4.209209     40.393389     40.393389     80.786777
     -4.199199     35.476467     35.476467     70.952935
     -4.189189     30.703907     30.703907     61.407815
     -4.179179     26.888711     26.888711     53.777422
     -4.169169     24.466006     24.466006     48.932013
     -4.159159     23.431178     23.431178     46.862355
     -4.149149     23.462444     23.462444     46.924888
     -4.139139     24.146326     24.146326     48.292652
     -4.129129     25.188202     25.188202     50.376403
     -4.119119     26.510875     26.510875     53.021751
     -4.109109     28.203006     28.203006     56.406012
     -4.099099     30.350540     30.350540     60.701081
     -4.089089     32.843411     32.843411     65.686821
     -4.079079     35.271938     35.271938     70.543876
     -4.069069     36.993287     36.993287     73.986574
     -4.059059     37.362277     37.362277     74.724554
     -4.049049     36.023641     36.023641     72.047283
     -4.039039     33.115065     33.115065     66.230130
     -4.029029     29.269640     29.269640     58.539280
     -4.019019     25.413567     25.413567     50.827133
     -4.009009     22.462783     22.462783     44.925566
     -3.998999     21.063746     21.063746     42.127493
     -3.988989     21.479610     21.479610     42.959219
     -3.978979     23.631291     23.631291     47.262582
     -3.968969     27.226139     27.226139     54.452278
     -3.958959     31.887760     31.887760     63.775521
     -3.948949     37.236905     37.236905     74.473810
     -3.938939     42.926474     42.926474     85.852947
     -3.928929     48.661037     48.661037     97.322075
     -3.918919     54.218056     54.218056    108.436111
     -3.908909     59.455861     59.455861    118.911722
     -3.898899     64.278994     64.278994    128.557988
     -3.888889     68.553522     68.553522    137.107044
     -3.878879     72.008672     72.008672    144.017345
     -3.868869     74.190922     74.190922    148.381844
     -3.858859     74.525366     74.525366    149.050732
     -3.848849     72.488092     72.488092    144.976185
     -3.838839     67.830611     67.830611    135.661221
     -3.828829     60.759249     60.759249    121.518498
     -3.818819     51.981599     51.981599    103.963197
     -3.808809     42.585316     42.585316     85.170632
     -3.798799     33.785047     33.785047     67.570095
     -3.788789     26.625730     26.625730     53.251459
     -3.778779     21.741786     21.741786     43.483572
     -3.768769     19.242389     19.242389     38.484778
     -3.758759     18.743319     18.743319     37.486639
     -3.748749     19.520628     19.520628     39.041257
     -3.738739     20.734414     20.734414     41.468829
     -3.728729     21.663195     21.663195     43.326389
     -3.718719     21.893993     21.893993     43.787987
     -3.708709     21.424604     21.424604     42.849207
     -3.698699     20.651051     20.651051     41.302103
     -3.688689     20.236413     20.236413     40.472826
     -3.678679     20.887260     20.887260     41.774519
     -3.668669     23.096670     23.096670     46.193340
     -3.658659     26.936257     26.936257     53.872515
     -3.648649     31.977677     31.977677     63.955354
     -3.638639     37.385603     37.385603     74.771205
     -3.628629     42.156895     42.156895     84.313791
     -3.618619     45.415165     45.415165     90.830330
     -3.608609     46.644998     46.644998     93.289996
     -3.598599     45.784165     45.784165     91.568331
     -3.588589     43.164762     43.164762     86.329524
     -3.578579     39.358613     39.358613     78.717227
     -3.568569     35.002022     35.002022     70.004044
     -3.558559     30.651650     30.651650     61.303299
     -3.548549     26.689530     26.689530     53.379059
     -3.538539     23.279455     23.279455     46.558911
     -3.528529     20.379042     20.379042     40.758084
     -3.518519     17.810039     17.810039     35.620078
     -3.508509     15.370476     15.370476     30.740953
     -3.498498     12.947313     12.947313     25.894626
     -3.488488     10.581508     10.581508     21.163016
     -3.478478      8.459419      8.459419     16.918838
     -3.468468      6.840777      6.840777     13.681553
     -3.458458      5.959237      5.959237     11.918474
     -3.448448      5.934038      5.934038     11.868075
     -3.438438      6.718259      6.718259     13.436518
     -3.428428      8.096098      8.096098     16.192197
     -3.418418      9.734146      9.734146     19.468292
     -3.408408     11.282714     11.282714     22.565428
     -3.398398     12.505067     12.505067     25.010135
     -3.388388     13.390491     13.390491     26.780983
     -3.378378     14.198836     14.198836     28.397673
     -3.368368     15.403283     15.403283     30.806567
     -3.358358     17.539389     17.539389     35.078777
     -3.348348     21.009485     21.009485     42.018971
     -3.338338     25.909207     25.909207     51.818415
     -3.328328     31.931298     31.931298     63.862597
     -3.318318     38.374008     38.374008     76.748016
     -3.308308     44.254974     44.254974     88.509948
     -3.298298     48.512677     48.512677     97.025355
     -3.288288     50.259114     50.259114    100.518227
     -3.278278     49.023582     49.023582     98.047164
     -3.268268     44.909345     44.909345     89.818690
     -3.258258     38.595580     38.595580     77.191160
     -3.248248     31.168008     31.168008     62.336015
     -3.238238     23.832894     23.832894     47.665788
     -3.228228     17.618307     17.618307     35.236614
     -3.218218     13.162542     13.162542     26.325085
     -3.208208     10.639414     10.639414     21.278828
     -3.198198      9.811068      9.811068     19.622136
     -3.188188     10.165643     10.165643     20.331287
     -3.178178     11.094654     11.094654     22.189309
     -3.168168     12.073735     12.073735     24.147469
     -3.158158     12.811715     12.811715     25.623430
     -3.148148     13.328387     13.328387     26.656775
     -3.138138     13.927508     13.927508     27.855017
     -3.128128     15.060300     15.060300     30.120600
     -3.118118     17.118441     17.118441     34.236882
     -3.108108     20.232066     20.232066     40.464131
     -3.098098     24.156056     24.156056     48.312112
     -3.088088     28.299022     28.299022     56.598044
     -3.078078     31.892899     31.892899     63.785798
     -3.068068     34.239443     34.239443     68.478887
     -3.058058     34.931680     34.931680     69.863360
     -3.048048     33.956359     33.956359     67.912717
     -3.038038     31.639925     31.639925     63.279849
     -3.028028     28.478798     28.478798     56.957597
     -3.018018     24.950410     24.950410     49.900819
     -3.008008     21.400274     21.400274     42.800547
     -2.997998     18.044683     18.044683     36.089367
     -2.987988     15.056714     15.056714     30.113428
     -2.977978     12.661331     12.661331     25.322663
     -2.967968     11.173414     11.173414     22.346829
     -2.957958     10.954494     10.954494     21.908988
     -2.947948     12.307383     12.307383     24.614767
     -2.937938     15.351197     15.351197     30.702393
     -2.927928     19.922325     19.922325     39.844651
     -2.917918     25.539660     25.539660     51.079320
     -2.907908     31.459087     31.459087     62.918174
     -2.897898     36.819411     36.819411     73.638822
     -2.887888     40.848243     40.848243     81.696487
     -2.877878     43.063307     43.063307     86.126614
     -2.867868     43.392185     43.392185     86.784371
     -2.857858     42.156678     42.156678     84.313356
     -2.847848     39.922419     39.922419     79.844839
     -2.837838     37.275722     37.275722     74.551444
     -2.827828     34.624993     34.624993     69.249986
     -2.817818     32.112074     32.112074     64.224148
     -2.807808     29.663074     29.663074     59.326148
     -2.797798     27.137327     27.137327     54.274655
     -2.787788     24.485386     24.485386     48.970773
     -2.777778     21.828671     21.828671     43.657342
     -2.767768     19.423067     19.423067     38.846134
     -2.757758     17.537628     17.537628     35.075256
     -2.747748     16.327772     16.327772     32.655545
     -2.737738     15.781675     15.781675     31.563349
     -2.727728     15.769220     15.769220     31.538441
     -2.717718     16.155002     16.155002     32.310003
     -2.707708     16.893746     16.893746     33.787492
     -2.697698     18.038180     18.038180     36.076361
     -2.687688     19.650754     19.650754     39.301508
     -2.677678     21.681922     21.681922     43.363844
     -2.667668     23.908400     23.908400     47.816800
     -2.657658     25.989485     25.989485     51.978969
     -2.647648     27.618884     27.618884     55.237769
     -2.637638     28.679353     28.679353     57.358706
     -2.627628     29.299542     29.299542     58.599084
     -2.617618     29.774854     29.774854     59.549708
     -2.607608     30.402386     30.402386     60.804773
     -2.597598     31.330284     31.330284     62.660568
     -2.587588     32.500217     32.500217     65.000433
     -2.577578     33.690834     33.690834     67.381669
     -2.567568     34.608642     34.608642     69.217284
     -2.557558     34.965428     34.965428     69.930857
     -2.547548     34.522797     34.522797     69.045594
     -2.537538     33.128200     33.128200     66.256399
     -2.527528     30.770727     30.770727     61.541454
     -2.517518     27.647924     27.647924     55.295847
     -2.507508     24.195667     24.195667     48.391335
     -2.497497     21.031569     21.031569     42.063137
     -2.487487     18.804655     18.804655     37.609309
     -2.477477     18.000534     18.000534     36.001069
     -2.467467     18.783692     18.783692     37.567384
     -2.457457     20.948183     20.948183     41.896365
     -2.447447     24.002302     24.002302     48.004604
     -2.437437     27.354634     27.354634     54.709268
     -2.427427     30.523527     30.523527     61.047055
     -2.417417     33.279091     33.279091     66.558181
     -2.407407     35.654281     35.654281     71.308561
     -2.397397     37.820766     37.820766     75.641531
     -2.387387     39.890779     39.890779     79.781557
     -2.377377     41.746761     41.746761     83.493522
     -2.367367     42.993809     42.993809     85.987618
     -2.357357     43.074500     43.074500     86.148999
     -2.347347     41.504820     41.504820     83.009639
     -2.337337     38.123830     38.123830     76.247659
     -2.327327     33.236344     33.236344     66.472689
     -2.317317     27.578528     27.578528     55.157056
     -2.307307     22.123346     22.123346     44.246691
     -2.297297     17.815080     17.815080     35.630160
     -2.287287     15.340182     15.340182     30.680364
     -2.277277     15.004679     15.004679     30.009358
     -2.267267     16.729249     16.729249     33.458498
     -2.257257     20.128963     20.128963     40.257927
     -2.247247     24.630996     24.630996     49.261991
     -2.237237     29.591950     29.591950     59.183901
     -2.227227     34.391333     34.391333     68.782666
     -2.217217     38.491166     38.491166     76.982332
     -2.207207     41.464397     41.464397     82.928795
     -2.197197     43.006933     43.006933     86.013866
     -2.187187     42.953895     42.953895     85.907791
     -2.177177     41.311578     41.311578     82.623155
     -2.167167     38.292539     38.292539     76.585078
     -2.157157     34.317684     34.317684     68.635369
     -2.147147     29.949019     29.949019     59.898038
     -2.137137     25.750517     25.750517     51.501033
     -2.127127     22.125001     22.125001     44.250003
     -2.117117     19.204839     19.204839     38.409678
     -2.107107     16.855571     16.855571     33.711143
     -2.097097     14.791351     14.791351     29.582703
     -2.087087     12.738850     12.738850     25.477699
     -2.077077     10.564267     10.564267     21.128533
     -2.067067      8.308321      8.308321     16.616643
     -2.057057      6.131819      6.131819     12.263638
     -2.047047      4.219869      4.219869      8.439738
     -2.037037      2.701551      2.701551      5.403102
     -2.027027      1.618018      1.618018      3.236036
     -2.017017      0.938831      0.938831      1.877662
     -2.007007      0.604968      0.604968      1.209937
     -1.996997      0.573911      0.573911      1.147823
     -1.986987      0.850379      0.850379      1.700757
     -1.976977      1.495391      1.495391      2.990781
     -1.966967      2.611603      2.611603      5.223207
     -1.956957      4.306228      4.306228      8.612455
     -1.946947      6.638614      6.638614     13.277229
     -1.936937      9.568202      9.568202     19.136404
     -1.926927     12.924784     12.924784     25.849567
     -1.916917     16.419539     16.419539     32.839078
     -1.906907     19.699552     19.699552     39.399103
     -1.896897     22.427533     22.427533     44.855066
     -1.886887     24.355279     24.355279     48.710557
     -1.876877     25.363769     25.363769     50.727539
     -1.866867     25.462790     25.462790     50.925579
     -1.856857     24.764662     24.764662     49.529324
     -1.846847     23.454521     23.454521     46.909042
     -1.836837     21.768176     21.768176     43.536353
     -1.826827     19.968865     19.968865     39.937730
     -1.816817     18.305448     18.305448     36.610897
     -1.806807     16.948460     16.948460     33.896920
     -1.796797     15.928021     15.928021     31.856043
     -1.786787     15.114439     15.114439     30.228879
     -1.776777     14.268386     14.268386     28.536771
     -1.766767     13.147528     13.147528     26.295055
     -1.756757     11.618610     11.618610     23.237219
     -1.746747      9.717624      9.717624     19.435249
     -1.736737      7.631634      7.631634     15.263268
     -1.726727      5.621462      5.621462     11.242924
     -1.716717      3.933214      3.933214      7.866428
     -1.706707      2.742129      2.742129      5.484259
     -1.696697      2.143076      2.143076      4.286152
     -1.686687      2.170792      2.170792      4.341583
     -1.676677      2.819000      2.819000      5.638001
     -1.666667      4.036072      4.036072      8.072145
     -1.656657      5.698040      5.698040     11.396081
     -1.646647      7.582904      7.582904     15.165807
     -1.636637      9.378860      9.378860     18.757720
     -1.626627     10.746070     10.746070     21.492140
