# EIG2DOS: Utility for SIESTA to obtain the electronic density of states
#  E. Artacho, Apr 1999, A. Garcia, Apr 2012
#  Nick R. Papior, Feb 2017
# ------------------------------------------
# Eigenvalues calculated from a non-polarized calculation
# Eigenvalues read from siesta.EIG
# Kpoint weights read from siesta.KP
# Using smearing parameter:   0.0500
# Using 1000 points in the energy range
# Selected bands: 1 to: 2981
# Emin, Emax in file for selected band(s):    -27.0450269    218.3104110
# Nbands, Nspin, Nk   =   2981     1     1
# E_F                 =    -4.3047 eV --> (shifted to ZERO)
# Broadening          =     0.0500 eV
#
#        E            N(up)  (=)   N(down)         Ntot
     -5.000000     45.384266     45.384266     90.768531
     -4.989990     47.904509     47.904509     95.809017
     -4.979980     49.081912     49.081912     98.163824
     -4.969970     48.917225     48.917225     97.834450
     -4.959960     47.533658     47.533658     95.067317
     -4.949950     45.141589     45.141589     90.283179
     -4.939940     42.020098     42.020098     84.040196
     -4.929930     38.520350     38.520350     77.040701
     -4.919920     35.081639     35.081639     70.163278
     -4.909910     32.239695     32.239695     64.479390
     -4.899900     30.598792     30.598792     61.197584
     -4.889890     30.738431     30.738431     61.476862
     -4.879880     33.044264     33.044264     66.088528
     -4.869870     37.499025     37.499025     74.998050
     -4.859860     43.525284     43.525284     87.050568
     -4.849850     49.994519     49.994519     99.989038
     -4.839840     55.467332     55.467332    110.934665
     -4.829830     58.614549     58.614549    117.229097
     -4.819820     58.652937     58.652937    117.305874
     -4.809810     55.595194     55.595194    111.190388
     -4.799800     50.197529     50.197529    100.395058
     -4.789790     43.643234     43.643234     87.286469
     -4.779780     37.127709     37.127709     74.255419
     -4.769770     31.532049     31.532049     63.064098
     -4.759760     27.289459     27.289459     54.578917
     -4.749750     24.431655     24.431655     48.863311
     -4.739740     22.728459     22.728459     45.456918
     -4.729730     21.831116     21.831116     43.662232
     -4.719720     21.372045     21.372045     42.744090
     -4.709710     21.017604     21.017604     42.035209
     -4.699700     20.493038     20.493038     40.986075
     -4.689690     19.601648     19.601648     39.203296
     -4.679680     18.252789     18.252789     36.505578
     -4.669670     16.500311     16.500311     33.000623
     -4.659660     14.578017     14.578017     29.156035
     -4.649650     12.908426     12.908426     25.816852
     -4.639640     12.062360     12.062360     24.124720
     -4.629630     12.659027     12.659027     25.318053
     -4.619620     15.213396     15.213396     30.426792
     -4.609610     19.956629     19.956629     39.913257
     -4.599600     26.676875     26.676875     53.353750
     -4.589590     34.647074     34.647074     69.294147
     -4.579580     42.705410     42.705410     85.410821
     -4.569570     49.513059     49.513059     99.026118
     -4.559560     53.935079     53.935079    107.870159
     -4.549550     55.411281     55.411281    110.822561
     -4.539540     54.157764     54.157764    108.315528
     -4.529530     51.096634     51.096634    102.193268
     -4.519520     47.529453     47.529453     95.058905
     -4.509510     44.686665     44.686665     89.373329
     -4.499499     43.336927     43.336927     86.673853
     -4.489489     43.602625     43.602625     87.205250
     -4.479479     45.026884     45.026884     90.053768
     -4.469469     46.828687     46.828687     93.657374
     -4.459459     48.217570     48.217570     96.435139
     -4.449449     48.639671     48.639671     97.279341
     -4.439439     47.881155     47.881155     95.762309
     -4.429429     46.030345     46.030345     92.060689
     -4.419419     43.359779     43.359779     86.719559
     -4.409409     40.208279     40.208279     80.416557
     -4.399399     36.916293     36.916293     73.832586
     -4.389389     33.815166     33.815166     67.630332
     -4.379379     31.228155     31.228155     62.456309
     -4.369369     29.438050     29.438050     58.876101
     -4.359359     28.614205     28.614205     57.228411
     -4.349349     28.739634     28.739634     57.479267
     -4.339339     29.596514     29.596514     59.193028
     -4.329329     30.839434     30.839434     61.678868
     -4.319319     32.131024     32.131024     64.262047
     -4.309309     33.274659     33.274659     66.549318
     -4.299299     34.280225     34.280225     68.560450
     -4.289289     35.335335     35.335335     70.670670
     -4.279279     36.697637     36.697637     73.395275
     -4.269269     38.550423     38.550423     77.100847
     -4.259259     40.871318     40.871318     81.742636
     -4.249249     43.362391     43.362391     86.724781
     -4.239239     45.482001     45.482001     90.964003
     -4.229229     46.592969     46.592969     93.185937
     -4.219219     46.191366     46.191366     92.382732
     -4.209209     44.124723     44.124723     88.249446
     -4.199199     40.689304     40.689304     81.378608
     -4.189189     36.542980     36.542980     73.085961
     -4.179179     32.465974     32.465974     64.931949
     -4.169169     29.086667     29.086667     58.173334
     -4.159159     26.706100     26.706100     53.412199
     -4.149149     25.293347     25.293347     50.586694
     -4.139139     24.628312     24.628312     49.256625
     -4.129129     24.497556     24.497556     48.995112
     -4.119119     24.834845     24.834845     49.669690
     -4.109109     25.736005     25.736005     51.472011
     -4.099099     27.342796     27.342796     54.685592
     -4.089089     29.657150     29.657150     59.314301
     -4.079079     32.390872     32.390872     64.781744
     -4.069069     34.952503     34.952503     69.905005
     -4.059059     36.611267     36.611267     73.222534
     -4.049049     36.779678     36.779678     73.559355
     -4.039039     35.277497     35.277497     70.554994
     -4.029029     32.436633     32.436633     64.873267
     -4.019019     28.990068     28.990068     57.980136
     -4.009009     25.807638     25.807638     51.615275
     -3.998999     23.619046     23.619046     47.238092
     -3.988989     22.851627     22.851627     45.703254
     -3.978979     23.623853     23.623853     47.247706
     -3.968969     25.841159     25.841159     51.682319
     -3.958959     29.301722     29.301722     58.603443
     -3.948949     33.751697     33.751697     67.503393
     -3.938939     38.894370     38.894370     77.788739
     -3.928929     44.399156     44.399156     88.798312
     -3.918919     49.944896     49.944896     99.889791
     -3.908909     55.284212     55.284212    110.568424
     -3.898899     60.277100     60.277100    120.554199
     -3.888889     64.847805     64.847805    129.695611
     -3.878879     68.868819     68.868819    137.737638
     -3.868869     72.035375     72.035375    144.070750
     -3.858859     73.821045     73.821045    147.642091
     -3.848849     73.576444     73.576444    147.152887
     -3.838839     70.759074     70.759074    141.518147
     -3.828829     65.202507     65.202507    130.405015
     -3.818819     57.295359     57.295359    114.590718
     -3.808809     47.971667     47.971667     95.943333
     -3.798799     38.500167     38.500167     77.000334
     -3.788789     30.152197     30.152197     60.304395
     -3.778779     23.875841     23.875841     47.751681
     -3.768769     20.087806     20.087806     40.175612
     -3.758759     18.634386     18.634386     37.268772
     -3.748749     18.907670     18.907670     37.815339
     -3.738739     20.062091     20.062091     40.124182
     -3.728729     21.264626     21.264626     42.529252
     -3.718719     21.918397     21.918397     43.836795
     -3.708709     21.811939     21.811939     43.623879
     -3.698699     21.160676     21.160676     42.321352
     -3.688689     20.526097     20.526097     41.052193
     -3.678679     20.625079     20.625079     41.250158
     -3.668669     22.075352     22.075352     44.150704
     -3.658659     25.153524     25.153524     50.307047
     -3.648649     29.652973     29.652973     59.305945
     -3.638639     34.904768     34.904768     69.809536
     -3.628629     39.964761     39.964761     79.929523
     -3.618619     43.897445     43.897445     87.794889
     -3.608609     46.042122     46.042122     92.084243
     -3.598599     46.159861     46.159861     92.319723
     -3.588589     44.424681     44.424681     88.849363
     -3.578579     41.297060     41.297060     82.594119
     -3.568569     37.355511     37.355511     74.711022
     -3.558559     33.149053     33.149053     66.298106
     -3.548549     29.096267     29.096267     58.192534
     -3.538539     25.431755     25.431755     50.863510
     -3.528529     22.199713     22.199713     44.399427
     -3.518519     19.299015     19.299015     38.598030
     -3.508509     16.573570     16.573570     33.147141
     -3.498498     13.917682     13.917682     27.835364
     -3.488488     11.351155     11.351155     22.702310
     -3.478478      9.030748      9.030748     18.061495
     -3.468468      7.196877      7.196877     14.393754
     -3.458458      6.083917      6.083917     12.167835
     -3.448448      5.831369      5.831369     11.662737
     -3.438438      6.423807      6.423807     12.847614
     -3.428428      7.674443      7.674443     15.348886
     -3.418418      9.259124      9.259124     18.518248
     -3.408408     10.800257     10.800257     21.600515
     -3.398398     11.984729     11.984729     23.969457
     -3.388388     12.678685     12.678685     25.357371
     -3.378378     12.990819     12.990819     25.981638
     -3.368368     13.250008     13.250008     26.500015
     -3.358358     13.900754     13.900754     27.801507
     -3.348348     15.358183     15.358183     30.716366
     -3.338338     17.877490     17.877490     35.754981
     -3.328328     21.473489     21.473489     42.946979
     -3.318318     25.893701     25.893701     51.787402
     -3.308308     30.632177     30.632177     61.264353
     -3.298298     34.982167     34.982167     69.964333
     -3.288288     38.144350     38.144350     76.288700
     -3.278278     39.400887     39.400887     78.801775
     -3.268268     38.323377     38.323377     76.646755
     -3.258258     34.934299     34.934299     69.868597
     -3.248248     29.734428     29.734428     59.468855
     -3.238238     23.563687     23.563687     47.127375
     -3.228228     17.348900     17.348900     34.697801
     -3.218218     11.849611     11.849611     23.699223
     -3.208208      7.504393      7.504393     15.008786
     -3.198198      4.417145      4.417145      8.834290
     -3.188188      2.452877      2.452877      4.905754
     -3.178178      1.376643      1.376643      2.753286
     -3.168168      0.976153      0.976153      1.952305
     -3.158158      1.138023      1.138023      2.276045
     -3.148148      1.873899      1.873899      3.747798
     -3.138138      3.303450      3.303450      6.606900
     -3.128128      5.600674      5.600674     11.201349
     -3.118118      8.910110      8.910110     17.820220
     -3.108108     13.248738     13.248738     26.497477
     -3.098098     18.425088     18.425088     36.850177
     -3.088088     24.016513     24.016513     48.033026
     -3.078078     29.433827     29.433827     58.867653
     -3.068068     34.065416     34.065416     68.130832
     -3.058058     37.446254     37.446254     74.892507
     -3.048048     39.371891     39.371891     78.743783
     -3.038038     39.899214     39.899214     79.798428
     -3.028028     39.240538     39.240538     78.481077
     -3.018018     37.625971     37.625971     75.251941
     -3.008008     35.229894     35.229894     70.459788
     -2.997998     32.209989     32.209989     64.419978
     -2.987988     28.822291     28.822291     57.644582
     -2.977978     25.515651     25.515651     51.031302
     -2.967968     22.917632     22.917632     45.835263
     -2.957958     21.692684     21.692684     43.385367
     -2.947948     22.331495     22.331495     44.662989
     -2.937938     24.967471     24.967471     49.934943
     -2.927928     29.297984     29.297984     58.595967
     -2.917918     34.636673     34.636673     69.273346
     -2.907908     40.072683     40.072683     80.145367
     -2.897898     44.683900     44.683900     89.367799
     -2.887888     47.745403     47.745403     95.490807
     -2.877878     48.882232     48.882232     97.764464
     -2.867868     48.129740     48.129740     96.259480
     -2.857858     45.884886     45.884886     91.769773
     -2.847848     42.759671     42.759671     85.519342
     -2.837838     39.380456     39.380456     78.760912
     -2.827828     36.201620     36.201620     72.403240
     -2.817818     33.402777     33.402777     66.805553
     -2.807808     30.907702     30.907702     61.815404
     -2.797798     28.509666     28.509666     57.019331
     -2.787788     26.037544     26.037544     52.075089
     -2.777778     23.477805     23.477805     46.955610
     -2.767768     20.992511     20.992511     41.985022
     -2.757758     18.831598     18.831598     37.663196
     -2.747748     17.197251     17.197251     34.394503
     -2.737738     16.144666     16.144666     32.289332
     -2.727728     15.579706     15.579706     31.159411
     -2.717718     15.352567     15.352567     30.705135
     -2.707708     15.384337     15.384337     30.768674
     -2.697698     15.739916     15.739916     31.479833
     -2.687688     16.593193     16.593193     33.186386
     -2.677678     18.099994     18.099994     36.199988
     -2.667668     20.257450     20.257450     40.514899
     -2.657658     22.842830     22.842830     45.685659
     -2.647648     25.478551     25.478551     50.957102
     -2.637638     27.790492     27.790492     55.580985
     -2.627628     29.566032     29.566032     59.132063
     -2.617618     30.818436     30.818436     61.636872
     -2.607608     31.726586     31.726586     63.453172
     -2.597598     32.499535     32.499535     64.999069
     -2.587588     33.255824     33.255824     66.511649
     -2.577578     33.980957     33.980957     67.961915
     -2.567568     34.559961     34.559961     69.119922
     -2.557558     34.833400     34.833400     69.666799
     -2.547548     34.631987     34.631987     69.263974
     -2.537538     33.791740     33.791740     67.583481
     -2.527528     32.186791     32.186791     64.373581
     -2.517518     29.803131     29.803131     59.606263
     -2.507508     26.826036     26.826036     53.652072
     -2.497497     23.675403     23.675403     47.350805
     -2.487487     20.936075     20.936075     41.872150
     -2.477477     19.189231     19.189231     38.378462
     -2.467467     18.814313     18.814313     37.628627
     -2.457457     19.855781     19.855781     39.711561
     -2.447447     22.021015     22.021015     44.042030
     -2.437437     24.812860     24.812860     49.625721
     -2.427427     27.735744     27.735744     55.471487
     -2.417417     30.478794     30.478794     60.957588
     -2.407407     32.989310     32.989310     65.978619
     -2.397397     35.401935     35.401935     70.803870
     -2.387387     37.859980     37.859980     75.719959
     -2.377377     40.321428     40.321428     80.642856
     -2.367367     42.454798     42.454798     84.909597
     -2.357357     43.690674     43.690674     87.381348
     -2.347347     43.420367     43.420367     86.840734
     -2.337337     41.258963     41.258963     82.517926
     -2.327327     37.253592     37.253592     74.507183
     -2.317317     31.939947     31.939947     63.879893
     -2.307307     26.220605     26.220605     52.441211
     -2.297297     21.119282     21.119282     42.238565
     -2.287287     17.512216     17.512216     35.024431
     -2.277277     15.931323     15.931323     31.862645
     -2.267267     16.487821     16.487821     32.975643
     -2.257257     18.912604     18.912604     37.825207
     -2.247247     22.675740     22.675740     45.351480
     -2.237237     27.136215     27.136215     54.272431
     -2.227227     31.675952     31.675952     63.351904
     -2.217217     35.783799     35.783799     71.567597
     -2.207207     39.076552     39.076552     78.153105
     -2.197197     41.273666     41.273666     82.547331
     -2.187187     42.167016     42.167016     84.334031
     -2.177177     41.627791     41.627791     83.255583
     -2.167167     39.661182     39.661182     79.322363
     -2.157157     36.472836     36.472836     72.945673
     -2.147147     32.483706     32.483706     64.967411
     -2.137137     28.248812     28.248812     56.497624
     -2.127127     24.294772     24.294772     48.589545
     -2.117117     20.950690     20.950690     41.901380
     -2.107107     18.262272     18.262272     36.524543
     -2.097097     16.035041     16.035041     32.070082
     -2.087087     13.978194     13.978194     27.956388
     -2.077077     11.866450     11.866450     23.732900
     -2.067067      9.637127      9.637127     19.274254
     -2.057057      7.387670      7.387670     14.775341
     -2.047047      5.298017      5.298017     10.596034
     -2.037037      3.534728      3.534728      7.069456
     -2.027027      2.187025      2.187025      4.374050
     -2.017017      1.253557      1.253557      2.507113
     -2.007007      0.668331      0.668331      1.336662
     -1.996997      0.341190      0.341190      0.682380
     -1.986987      0.192784      0.192784      0.385569
     -1.976977      0.176184      0.176184      0.352368
     -1.966967      0.286865      0.286865      0.573730
     -1.956957      0.565331      0.565331      1.130661
     -1.946947      1.093424      1.093424      2.186848
     -1.936937      1.980869      1.980869      3.961738
     -1.926927      3.337459      3.337459      6.674919
     -1.916917      5.231306      5.231306     10.462612
     -1.906907      7.643237      7.643237     15.286474
     -1.896897     10.435966     10.435966     20.871932
     -1.886887     13.356590     13.356590     26.713179
     -1.876877     16.079618     16.079618     32.159235
     -1.866867     18.280434     18.280434     36.560868
     -1.856857     19.716045     19.716045     39.432089
     -1.846847     20.287678     20.287678     40.575355
     -1.836837     20.066173     20.066173     40.132345
     -1.826827     19.270162     19.270162     38.540324
     -1.816817     18.197306     18.197306     36.394613
     -1.806807     17.123729     17.123729     34.247459
     -1.796797     16.205463     16.205463     32.410926
     -1.786787     15.426126     15.426126     30.852252
     -1.776777     14.622122     14.622122     29.244245
     -1.766767     13.579463     13.579463     27.158927
     -1.756757     12.155957     12.155957     24.311915
     -1.746747     10.367674     10.367674     20.735347
     -1.736737      8.401192      8.401192     16.802384
     -1.726727      6.556910      6.556910     13.113820
     -1.716717      5.162315      5.162315     10.324631
     -1.706707      4.496938      4.496938      8.993875
     -1.696697      4.747342      4.747342      9.494684
     -1.686687      5.983978      5.983978     11.967956
     -1.676677      8.142850      8.142850     16.285700
     -1.666667     11.007371     11.007371     22.014741
     -1.656657     14.205471     14.205471     28.410942
     -1.646647     17.245536     17.245536     34.491073
     -1.636637     19.602896     19.602896     39.205792
     -1.626627     20.842696     20.842696     41.685392
