# EIG2DOS: Utility for SIESTA to obtain the electronic density of states
#  E. Artacho, Apr 1999, A. Garcia, Apr 2012
#  Nick R. Papior, Feb 2017
# ------------------------------------------
# Eigenvalues calculated from a non-polarized calculation
# Eigenvalues read from siesta.EIG
# Kpoint weights read from siesta.KP
# Using smearing parameter:   0.0500
# Using 1000 points in the energy range
# Selected bands: 1 to: 2981
# Emin, Emax in file for selected band(s):    -27.3218628    218.3753280
# Nbands, Nspin, Nk   =   2981     1     1
# E_F                 =    -4.2295 eV --> (shifted to ZERO)
# Broadening          =     0.0500 eV
#
#        E            N(up)  (=)   N(down)         Ntot
     -5.000000     36.228575     36.228575     72.457151
     -4.989990     39.909940     39.909940     79.819880
     -4.979980     42.660074     42.660074     85.320148
     -4.969970     44.063384     44.063384     88.126768
     -4.959960     43.915440     43.915440     87.830881
     -4.949950     42.288308     42.288308     84.576616
     -4.939940     39.522702     39.522702     79.045405
     -4.929930     36.167306     36.167306     72.334611
     -4.919920     32.899056     32.899056     65.798113
     -4.909910     30.443090     30.443090     60.886179
     -4.899900     29.482251     29.482251     58.964503
     -4.889890     30.531800     30.531800     61.063600
     -4.879880     33.776237     33.776237     67.552473
     -4.869870     38.915950     38.915950     77.831899
     -4.859860     45.114159     45.114159     90.228319
     -4.849850     51.125177     51.125177    102.250354
     -4.839840     55.609345     55.609345    111.218691
     -4.829830     57.534802     57.534802    115.069604
     -4.819820     56.499414     56.499414    112.998828
     -4.809810     52.829181     52.829181    105.658362
     -4.799800     47.415841     47.415841     94.831683
     -4.789790     41.382924     41.382924     82.765847
     -4.779780     35.739498     35.739498     71.478996
     -4.769770     31.158662     31.158662     62.317325
     -4.759760     27.929796     27.929796     55.859591
     -4.749750     26.042119     26.042119     52.084239
     -4.739740     25.312445     25.312445     50.624890
     -4.729730     25.481815     25.481815     50.963629
     -4.719720     26.250759     26.250759     52.501517
     -4.709710     27.270681     27.270681     54.541362
     -4.699700     28.138305     28.138305     56.276611
     -4.689690     28.440145     28.440145     56.880289
     -4.679680     27.863157     27.863157     55.726315
     -4.669670     26.339379     26.339379     52.678757
     -4.659660     24.154340     24.154340     48.308681
     -4.649650     21.948304     21.948304     43.896608
     -4.639640     20.579924     20.579924     41.159848
     -4.629630     20.881290     20.881290     41.762579
     -4.619620     23.380337     23.380337     46.760674
     -4.609610     28.083929     28.083929     56.167859
     -4.599600     34.402236     34.402236     68.804473
     -4.589590     41.258161     41.258161     82.516322
     -4.579580     47.368888     47.368888     94.737775
     -4.569570     51.621102     51.621102    103.242203
     -4.559560     53.412329     53.412329    106.824658
     -4.549550     52.828697     52.828697    105.657394
     -4.539540     50.586345     50.586345    101.172691
     -4.529530     47.757994     47.757994     95.515988
     -4.519520     45.392591     45.392591     90.785182
     -4.509510     44.173481     44.173481     88.346961
     -4.499499     44.235210     44.235210     88.470420
     -4.489489     45.187577     45.187577     90.375154
     -4.479479     46.312525     46.312525     92.625051
     -4.469469     46.840063     46.840063     93.680127
     -4.459459     46.195007     46.195007     92.390015
     -4.449449     44.137200     44.137200     88.274401
     -4.439439     40.774647     40.774647     81.549295
     -4.429429     36.482526     36.482526     72.965051
     -4.419419     31.786605     31.786605     63.573210
     -4.409409     27.259320     27.259320     54.518640
     -4.399399     23.443709     23.443709     46.887418
     -4.389389     20.791057     20.791057     41.582114
     -4.379379     19.594234     19.594234     39.188468
     -4.369369     19.921360     19.921360     39.842721
     -4.359359     21.581878     21.581878     43.163756
     -4.349349     24.162095     24.162095     48.324189
     -4.339339     27.139545     27.139545     54.279090
     -4.329329     30.041448     30.041448     60.082897
     -4.319319     32.582779     32.582779     65.165559
     -4.309309     34.725084     34.725084     69.450168
     -4.299299     36.633931     36.633931     73.267863
     -4.289289     38.556639     38.556639     77.113278
     -4.279279     40.669381     40.669381     81.338762
     -4.269269     42.948121     42.948121     85.896242
     -4.259259     45.109782     45.109782     90.219565
     -4.249249     46.655324     46.655324     93.310649
     -4.239239     47.020049     47.020049     94.040099
     -4.229229     45.793119     45.793119     91.586238
     -4.219219     42.921496     42.921496     85.842993
     -4.209209     38.796832     38.796832     77.593664
     -4.199199     34.164156     34.164156     68.328312
     -4.189189     29.877871     29.877871     59.755742
     -4.179179     26.613666     26.613666     53.227331
     -4.169169     24.670494     24.670494     49.340988
     -4.159159     23.947937     23.947937     47.895874
     -4.149149     24.092600     24.092600     48.185200
     -4.139139     24.726341     24.726341     49.452681
     -4.129129     25.637908     25.637908     51.275815
     -4.119119     26.845236     26.845236     53.690471
     -4.109109     28.500988     28.500988     57.001975
     -4.099099     30.692085     30.692085     61.384170
     -4.089089     33.244103     33.244103     66.488206
     -4.079079     35.652489     35.652489     71.304978
     -4.069069     37.207112     37.207112     74.414224
     -4.059059     37.272168     37.272168     74.544336
     -4.049049     35.586441     35.586441     71.172882
     -4.039039     32.424087     32.424087     64.848175
     -4.029029     28.527286     28.527286     57.054571
     -4.019019     24.847642     24.847642     49.695284
     -4.009009     22.232576     22.232576     44.465152
     -3.998999     21.205247     21.205247     42.410494
     -3.988989     21.913152     21.913152     43.826305
     -3.978979     24.218292     24.218292     48.436585
     -3.968969     27.838137     27.838137     55.676274
     -3.958959     32.452864     32.452864     64.905729
     -3.948949     37.749961     37.749961     75.499922
     -3.938939     43.431822     43.431822     86.863644
     -3.928929     49.225437     49.225437     98.450874
     -3.918919     54.904676     54.904676    109.809351
     -3.908909     60.299514     60.299514    120.599029
     -3.898899     65.260395     65.260395    130.520791
     -3.888889     69.578180     69.578180    139.156360
     -3.878879     72.904650     72.904650    145.809300
     -3.868869     74.738043     74.738043    149.476085
     -3.858859     74.514410     74.514410    149.028821
     -3.848849     71.790937     71.790937    143.581874
     -3.838839     66.453190     66.453190    132.906381
     -3.828829     58.854786     58.854786    117.709572
     -3.818819     49.818059     49.818059     99.636119
     -3.808809     40.479043     40.479043     80.958087
     -3.798799     32.023352     32.023352     64.046703
     -3.788789     25.401900     25.401900     50.803800
     -3.778779     21.118869     21.118869     42.237737
     -3.768769     19.151951     19.151951     38.303901
     -3.758759     19.016245     19.016245     38.032490
     -3.748749     19.940433     19.940433     39.880867
     -3.738739     21.099624     21.099624     42.199248
     -3.728729     21.843684     21.843684     43.687368
     -3.718719     21.866853     21.866853     43.733706
     -3.708709     21.278644     21.278644     42.557288
     -3.698699     20.555933     20.555933     41.111867
     -3.688689     20.382350     20.382350     40.764699
     -3.678679     21.412355     21.412355     42.824710
     -3.668669     24.027051     24.027051     48.054101
     -3.658659     28.163642     28.163642     56.327284
     -3.648649     33.286592     33.286592     66.573183
     -3.638639     38.521243     38.521243     77.042486
     -3.628629     42.905114     42.905114     85.810228
     -3.618619     45.660488     45.660488     91.320976
     -3.608609     46.385655     46.385655     92.771310
     -3.598599     45.106844     45.106844     90.213689
     -3.588589     42.200434     42.200434     84.400867
     -3.578579     38.243035     38.243035     76.486070
     -3.568569     33.852299     33.852299     67.704599
     -3.558559     29.556000     29.556000     59.112000
     -3.548549     25.702385     25.702385     51.404771
     -3.538539     22.419137     22.419137     44.838273
     -3.528529     19.631921     19.631921     39.263842
     -3.518519     17.145209     17.145209     34.290419
     -3.508509     14.762154     14.762154     29.524308
     -3.498498     12.395423     12.395423     24.790846
     -3.488488     10.120636     10.120636     20.241271
     -3.478478      8.152710      8.152710     16.305421
     -3.468468      6.763339      6.763339     13.526678
     -3.458458      6.180216      6.180216     12.360431
     -3.448448      6.506943      6.506943     13.013887
     -3.438438      7.686840      7.686840     15.373681
     -3.428428      9.518120      9.518120     19.036239
     -3.418418     11.715927     11.715927     23.431853
     -3.408408     14.003787     14.003787     28.007574
     -3.398398     16.202776     16.202776     32.405552
     -3.388388     18.281401     18.281401     36.562801
     -3.378378     20.343996     20.343996     40.687991
     -3.368368     22.566546     22.566546     45.133093
     -3.358358     25.115043     25.115043     50.230086
     -3.348348     28.081557     28.081557     56.163115
     -3.338338     31.448115     31.448115     62.896229
     -3.328328     35.063466     35.063466     70.126931
     -3.318318     38.620024     38.620024     77.240047
     -3.308308     41.647885     41.647885     83.295770
     -3.298298     43.568861     43.568861     87.137722
     -3.288288     43.839712     43.839712     87.679423
     -3.278278     42.155772     42.155772     84.311544
     -3.268268     38.622955     38.622955     77.245910
     -3.258258     33.792211     33.792211     67.584423
     -3.248248     28.509354     28.509354     57.018709
     -3.238238     23.633038     23.633038     47.266076
     -3.228228     19.749608     19.749608     39.499216
     -3.218218     17.016111     17.016111     34.032222
     -3.208208     15.192866     15.192866     30.385731
     -3.198198     13.830680     13.830680     27.661359
     -3.188188     12.510996     12.510996     25.021991
     -3.178178     11.030733     11.030733     22.061465
     -3.168168      9.469782      9.469782     18.939565
     -3.158158      8.143070      8.143070     16.286141
     -3.148148      7.483285      7.483285     14.966570
     -3.138138      7.907172      7.907172     15.814344
     -3.128128      9.697707      9.697707     19.395415
     -3.118118     12.912471     12.912471     25.824942
     -3.108108     17.324896     17.324896     34.649792
     -3.098098     22.417457     22.417457     44.834914
     -3.088088     27.452932     27.452932     54.905864
     -3.078078     31.631162     31.631162     63.262325
     -3.068068     34.295361     34.295361     68.590722
     -3.058058     35.111099     35.111099     70.222198
     -3.048048     34.137248     34.137248     68.274496
     -3.038038     31.754893     31.754893     63.509785
     -3.028028     28.494021     28.494021     56.988041
     -3.018018     24.851142     24.851142     49.702284
     -3.008008     21.187351     21.187351     42.374703
     -2.997998     17.739236     17.739236     35.478471
     -2.987988     14.705340     14.705340     29.410679
     -2.977978     12.334247     12.334247     24.668495
     -2.967968     10.953032     10.953032     21.906064
     -2.957958     10.917524     10.917524     21.835049
     -2.947948     12.506231     12.506231     25.012462
     -2.937938     15.799555     15.799555     31.599110
     -2.927928     20.587740     20.587740     41.175480
     -2.917918     26.344477     26.344477     52.688954
     -2.907908     32.290724     32.290724     64.581448
     -2.897898     37.549820     37.549820     75.099640
     -2.887888     41.359870     41.359870     82.719740
     -2.877878     43.275538     43.275538     86.551077
     -2.867868     43.280257     43.280257     86.560513
     -2.857858     41.756139     41.756139     83.512278
     -2.847848     39.316985     39.316985     78.633970
     -2.837838     36.572892     36.572892     73.145784
     -2.827828     33.929040     33.929040     67.858081
     -2.817818     31.504690     31.504690     63.009379
     -2.807808     29.197259     29.197259     58.394519
     -2.797798     26.842468     26.842468     53.684937
     -2.787788     24.375542     24.375542     48.751085
     -2.777778     21.905946     21.905946     43.811891
     -2.767768     19.673861     19.673861     39.347723
     -2.757758     17.927608     17.927608     35.855215
     -2.747748     16.805286     16.805286     33.610571
     -2.737738     16.294970     16.294970     32.589939
     -2.727728     16.291662     16.291662     32.583324
     -2.717718     16.702171     16.702171     33.404342
     -2.707708     17.515927     17.515927     35.031855
     -2.697698     18.784895     18.784895     37.569789
     -2.687688     20.524057     20.524057     41.048114
     -2.677678     22.608181     22.608181     45.216361
     -2.667668     24.752399     24.752399     49.504798
     -2.657658     26.610454     26.610454     53.220909
     -2.647648     27.940091     27.940091     55.880182
     -2.637638     28.730963     28.730963     57.461926
     -2.627628     29.208499     29.208499     58.416997
     -2.617618     29.707001     29.707001     59.414002
     -2.607608     30.489504     30.489504     60.979008
     -2.597598     31.619677     31.619677     63.239353
     -2.587588     32.945826     32.945826     65.891652
     -2.577578     34.178752     34.178752     68.357503
     -2.567568     34.995759     34.995759     69.991517
     -2.557558     35.114663     35.114663     70.229326
     -2.547548     34.332137     34.332137     68.664274
     -2.537538     32.558163     32.558163     65.116327
     -2.527528     29.869190     29.869190     59.738379
     -2.517518     26.560249     26.560249     53.120498
     -2.507508     23.144925     23.144925     46.289850
     -2.497497     20.264428     20.264428     40.528857
     -2.487487     18.517055     18.517055     37.034111
     -2.477477     18.270998     18.270998     36.541997
     -2.467467     19.542330     19.542330     39.084660
     -2.457457     21.995796     21.995796     43.991592
     -2.447447     25.073348     25.073348     50.146695
     -2.437437     28.199752     28.199752     56.399503
     -2.427427     30.980054     30.980054     61.960107
     -2.417417     33.304712     33.304712     66.609423
     -2.407407     35.315946     35.315946     70.631893
     -2.397397     37.249203     37.249203     74.498407
     -2.387387     39.221977     39.221977     78.443954
     -2.377377     41.072865     41.072865     82.145729
     -2.367367     42.339521     42.339521     84.679042
     -2.357357     42.404986     42.404986     84.809971
     -2.347347     40.759441     40.759441     81.518883
     -2.337337     37.259577     37.259577     74.519153
     -2.327327     32.260407     32.260407     64.520815
     -2.317317     26.555208     26.555208     53.110417
     -2.307307     21.154497     21.154497     42.308995
     -2.297297     17.007056     17.007056     34.014112
     -2.287287     14.774894     14.774894     29.549788
     -2.277277     14.725997     14.725997     29.451995
     -2.267267     16.744591     16.744591     33.489181
     -2.257257     20.417922     20.417922     40.835844
     -2.247247     25.152421     25.152421     50.304842
     -2.237237     30.286050     30.286050     60.572100
     -2.227227     35.179265     35.179265     70.358531
     -2.217217     39.277420     39.277420     78.554840
     -2.207207     42.146239     42.146239     84.292479
     -2.197197     43.491699     43.491699     86.983399
     -2.187187     43.180579     43.180579     86.361158
     -2.177177     41.269365     41.269365     82.538729
     -2.167167     38.027240     38.027240     76.054479
     -2.157157     33.919413     33.919413     67.838827
     -2.147147     29.521853     29.521853     59.043705
     -2.137137     25.374723     25.374723     50.749445
     -2.127127     21.828831     21.828831     43.657663
     -2.117117     18.960276     18.960276     37.920552
     -2.107107     16.600696     16.600696     33.201392
     -2.097097     14.467889     14.467889     28.935779
     -2.087087     12.326313     12.326313     24.652625
     -2.077077     10.096793     10.096793     20.193586
     -2.067067      7.873349      7.873349     15.746697
     -2.057057      5.861721      5.861721     11.723443
     -2.047047      4.290146      4.290146      8.580293
     -2.037037      3.339937      3.339937      6.679874
     -2.027027      3.113244      3.113244      6.226489
     -2.017017      3.625294      3.625294      7.250588
     -2.007007      4.799711      4.799711      9.599422
     -1.996997      6.460086      6.460086     12.920172
     -1.986987      8.333014      8.333014     16.666029
     -1.976977     10.086782     10.086782     20.173565
     -1.966967     11.414775     11.414775     22.829550
     -1.956957     12.140870     12.140870     24.281741
     -1.946947     12.297787     12.297787     24.595575
     -1.936937     12.130399     12.130399     24.260799
     -1.926927     12.009111     12.009111     24.018222
     -1.916917     12.285445     12.285445     24.570891
     -1.906907     13.153854     13.153854     26.307707
     -1.896897     14.580544     14.580544     29.161087
     -1.886887     16.324893     16.324893     32.649786
     -1.876877     18.034502     18.034502     36.069004
     -1.866867     19.367037     19.367037     38.734075
     -1.856857     20.091960     20.091960     40.183920
     -1.846847     20.144494     20.144494     40.288987
     -1.836837     19.625009     19.625009     39.250017
     -1.826827     18.749223     18.749223     37.498446
     -1.816817     17.762362     17.762362     35.524725
     -1.806807     16.841998     16.841998     33.683995
     -1.796797     16.027009     16.027009     32.054019
     -1.786787     15.209063     15.209063     30.418126
     -1.776777     14.197307     14.197307     28.394614
     -1.766767     12.826795     12.826795     25.653590
     -1.756757     11.053835     11.053835     22.107670
     -1.746747      8.988995      8.988995     17.977990
     -1.736737      6.856882      6.856882     13.713763
     -1.726727      4.913795      4.913795      9.827591
     -1.716717      3.371886      3.371886      6.743772
     -1.706707      2.363880      2.363880      4.727759
     -1.696697      1.950653      1.950653      3.901307
     -1.686687      2.147653      2.147653      4.295305
     -1.676677      2.939857      2.939857      5.879714
     -1.666667      4.268984      4.268984      8.537969
     -1.656657      6.000781      6.000781     12.001563
     -1.646647      7.900497      7.900497     15.800993
     -1.636637      9.648579      9.648579     19.297159
     -1.626627     10.911369     10.911369     21.822737
