# EIG2DOS: Utility for SIESTA to obtain the electronic density of states
#  E. Artacho, Apr 1999, A. Garcia, Apr 2012
#  Nick R. Papior, Feb 2017
# ------------------------------------------
# Eigenvalues calculated from a non-polarized calculation
# Eigenvalues read from siesta.EIG
# Kpoint weights read from siesta.KP
# Using smearing parameter:   0.0500
# Using 1000 points in the energy range
# Selected bands: 1 to: 2981
# Emin, Emax in file for selected band(s):    -27.2939889    218.3734300
# Nbands, Nspin, Nk   =   2981     1     1
# E_F                 =    -4.2277 eV --> (shifted to ZERO)
# Broadening          =     0.0500 eV
#
#        E            N(up)  (=)   N(down)         Ntot
     -5.000000     32.922216     32.922216     65.844431
     -4.989990     37.322518     37.322518     74.645036
     -4.979980     41.265924     41.265924     82.531848
     -4.969970     44.118668     44.118668     88.237336
     -4.959960     45.373596     45.373596     90.747191
     -4.949950     44.817378     44.817378     89.634756
     -4.939940     42.610300     42.610300     85.220600
     -4.929930     39.259625     39.259625     78.519249
     -4.919920     35.515470     35.515470     71.030940
     -4.909910     32.236044     32.236044     64.472089
     -4.899900     30.250627     30.250627     60.501254
     -4.889890     30.218100     30.218100     60.436200
     -4.879880     32.471675     32.471675     64.943350
     -4.869870     36.871319     36.871319     73.742638
     -4.859860     42.730463     42.730463     85.460926
     -4.849850     48.896270     48.896270     97.792541
     -4.839840     54.013247     54.013247    108.026495
     -4.829830     56.905607     56.905607    113.811215
     -4.819820     56.933126     56.933126    113.866252
     -4.809810     54.167202     54.167202    108.334404
     -4.799800     49.312867     49.312867     98.625733
     -4.789790     43.424285     43.424285     86.848569
     -4.779780     37.552515     37.552515     75.105029
     -4.769770     32.474153     32.474153     64.948306
     -4.759760     28.583202     28.583202     57.166404
     -4.749750     25.937171     25.937171     51.874342
     -4.739740     24.386678     24.386678     48.773356
     -4.729730     23.707510     23.707510     47.415019
     -4.719720     23.681505     23.681505     47.363011
     -4.709710     24.112115     24.112115     48.224229
     -4.699700     24.795090     24.795090     49.590179
     -4.689690     25.486859     25.486859     50.973719
     -4.679680     25.915634     25.915634     51.831269
     -4.669670     25.857419     25.857419     51.714838
     -4.659660     25.256605     25.256605     50.513209
     -4.649650     24.330690     24.330690     48.661380
     -4.639640     23.587374     23.587374     47.174747
     -4.629630     23.711805     23.711805     47.423610
     -4.619620     25.340610     25.340610     50.681219
     -4.609610     28.799005     28.799005     57.598010
     -4.599600     33.908524     33.908524     67.817048
     -4.589590     39.958342     39.958342     79.916685
     -4.579580     45.874990     45.874990     91.749979
     -4.569570     50.544750     50.544750    101.089500
     -4.559560     53.174313     53.174313    106.348626
     -4.549550     53.550866     53.550866    107.101733
     -4.539540     52.097234     52.097234    104.194467
     -4.529530     49.698203     49.698203     99.396407
     -4.519520     47.366300     47.366300     94.732599
     -4.509510     45.878835     45.878835     91.757671
     -4.499499     45.526015     45.526015     91.052030
     -4.489489     46.059184     46.059184     92.118367
     -4.479479     46.842077     46.842077     93.684155
     -4.469469     47.125336     47.125336     94.250671
     -4.459459     46.322995     46.322995     92.645990
     -4.449449     44.185924     44.185924     88.371847
     -4.439439     40.828381     40.828381     81.656763
     -4.429429     36.635305     36.635305     73.270611
     -4.419419     32.122062     32.122062     64.244123
     -4.409409     27.815838     27.815838     55.631676
     -4.399399     24.187733     24.187733     48.375465
     -4.389389     21.618762     21.618762     43.237524
     -4.379379     20.364668     20.364668     40.729335
     -4.369369     20.504320     20.504320     41.008640
     -4.359359     21.894760     21.894760     43.789519
     -4.349349     24.177537     24.177537     48.355075
     -4.339339     26.864620     26.864620     53.729240
     -4.329329     29.486947     29.486947     58.973895
     -4.319319     31.746844     31.746844     63.493688
     -4.309309     33.605681     33.605681     67.211362
     -4.299299     35.265400     35.265400     70.530800
     -4.289289     37.047952     37.047952     74.095903
     -4.279279     39.216473     39.216473     78.432945
     -4.269269     41.803587     41.803587     83.607174
     -4.259259     44.515028     44.515028     89.030055
     -4.249249     46.760884     46.760884     93.521768
     -4.239239     47.827700     47.827700     95.655400
     -4.229229     47.144584     47.144584     94.289168
     -4.219219     44.538469     44.538469     89.076938
     -4.209209     40.356569     40.356569     80.713139
     -4.199199     35.383352     35.383352     70.766704
     -4.189189     30.578198     30.578198     61.156396
     -4.179179     26.752299     26.752299     53.504598
     -4.169169     24.331949     24.331949     48.663899
     -4.159159     23.304130     23.304130     46.608260
     -4.149149     23.344067     23.344067     46.688134
     -4.139139     24.040404     24.040404     48.080808
     -4.129129     25.101254     25.101254     50.202508
     -4.119119     26.447978     26.447978     52.895955
     -4.109109     28.162407     28.162407     56.324814
     -4.099099     30.321855     30.321855     60.643711
     -4.089089     32.811855     32.811855     65.623710
     -4.079079     35.226809     35.226809     70.453618
     -4.069069     36.935669     36.935669     73.871337
     -4.059059     37.307014     37.307014     74.614028
     -4.049049     35.994030     35.994030     71.988059
     -4.039039     33.133064     33.133064     66.266128
     -4.029029     29.346776     29.346776     58.693552
     -4.019019     25.546707     25.546707     51.093414
     -4.009009     22.635744     22.635744     45.271489
     -3.998999     21.252701     21.252701     42.505403
     -3.988989     21.659200     21.659200     43.318399
     -3.978979     23.779231     23.779231     47.558463
     -3.968969     27.325710     27.325710     54.651421
     -3.958959     31.928728     31.928728     63.857456
     -3.948949     37.215628     37.215628     74.431256
     -3.938939     42.845495     42.845495     85.690990
     -3.928929     48.527878     48.527878     97.055756
     -3.918919     54.043009     54.043009    108.086017
     -3.908909     59.249454     59.249454    118.498908
     -3.898899     64.050835     64.050835    128.101669
     -3.888889     68.314059     68.314059    136.628118
     -3.878879     71.773325     71.773325    143.546649
     -3.868869     73.983214     73.983214    147.966427
     -3.858859     74.374821     74.374821    148.749643
     -3.848849     72.421461     72.421461    144.842921
     -3.838839     67.860072     67.860072    135.720144
     -3.828829     60.874620     60.874620    121.749241
     -3.818819     52.152009     52.152009    104.304017
     -3.808809     42.770124     42.770124     85.540248
     -3.798799     33.948190     33.948190     67.896381
     -3.788789     26.746240     26.746240     53.492480
     -3.778779     21.816398     21.816398     43.632796
     -3.768769     19.280989     19.280989     38.561978
     -3.758759     18.761130     18.761130     37.522261
     -3.748749     19.531161     19.531161     39.062322
     -3.738739     20.745439     20.745439     41.490877
     -3.728729     21.676024     21.676024     43.352049
     -3.718719     21.905174     21.905174     43.810348
     -3.708709     21.428722     21.428722     42.857444
     -3.698699     20.643487     20.643487     41.286974
     -3.688689     20.215205     20.215205     40.430410
     -3.678679     20.853724     20.853724     41.707449
     -3.668669     23.054893     23.054893     46.109785
     -3.658659     26.891905     26.891905     53.783811
     -3.648649     31.936684     31.936684     63.873368
     -3.638639     37.353156     37.353156     74.706312
     -3.628629     42.136857     42.136857     84.273713
     -3.618619     45.409769     45.409769     90.819539
     -3.608609     46.654573     46.654573     93.309147
     -3.598599     45.806801     45.806801     91.613602
     -3.588589     43.196199     43.196199     86.392398
     -3.578579     39.392808     39.392808     78.785617
     -3.568569     35.032565     35.032565     70.065131
     -3.558559     30.673659     30.673659     61.347317
     -3.548549     26.701174     26.701174     53.402348
     -3.538539     23.282322     23.282322     46.564644
     -3.528529     20.377095     20.377095     40.754189
     -3.518519     17.807626     17.807626     35.615252
     -3.508509     15.370265     15.370265     30.740530
     -3.498498     12.948951     12.948951     25.897901
     -3.488488     10.581440     10.581440     21.162880
     -3.478478      8.451911      8.451911     16.903822
     -3.468468      6.820111      6.820111     13.640222
     -3.458458      5.923271      5.923271     11.846543
     -3.448448      5.889609      5.889609     11.779217
     -3.438438      6.688988      6.688988     13.377976
     -3.428428      8.132728      8.132728     16.265456
     -3.418418      9.926232      9.926232     19.852464
     -3.408408     11.767763     11.767763     23.535526
     -3.398398     13.467057     13.467057     26.934113
     -3.388388     15.035950     15.035950     30.071900
     -3.378378     16.700052     16.700052     33.400104
     -3.368368     18.810112     18.810112     37.620224
     -3.358358     21.683972     21.683972     43.367943
     -3.348348     25.451355     25.451355     50.902710
     -3.338338     29.972298     29.972298     59.944595
     -3.328328     34.854180     34.854180     69.708359
     -3.318318     39.536697     39.536697     79.073394
     -3.308308     43.392197     43.392197     86.784395
     -3.298298     45.813567     45.813567     91.627135
     -3.288288     46.301884     46.301884     92.603768
     -3.278278     44.575048     44.575048     89.150096
     -3.268268     40.682961     40.682961     81.365922
     -3.258258     35.070253     35.070253     70.140507
     -3.248248     28.524795     28.524795     57.049589
     -3.238238     22.002883     22.002883     44.005766
     -3.228228     16.391586     16.391586     32.783172
     -3.218218     12.301441     12.301441     24.602882
     -3.208208      9.959071      9.959071     19.918143
     -3.198198      9.215789      9.215789     18.431579
     -3.188188      9.646362      9.646362     19.292725
     -3.178178     10.699604     10.699604     21.399207
     -3.168168     11.866501     11.866501     23.733001
     -3.158158     12.831695     12.831695     25.663389
     -3.148148     13.567121     13.567121     27.134242
     -3.138138     14.328055     14.328055     28.656109
     -3.128128     15.536845     15.536845     31.073689
     -3.118118     17.584769     17.584769     35.169538
     -3.108108     20.625374     20.625374     41.250748
     -3.098098     24.447508     24.447508     48.895016
     -3.088088     28.490521     28.490521     56.981043
     -3.078078     32.005604     32.005604     64.011209
     -3.068068     34.300979     34.300979     68.601958
     -3.058058     34.966750     34.966750     69.933500
     -3.048048     33.982188     33.982188     67.964377
     -3.038038     31.665667     31.665667     63.331335
     -3.028028     28.507262     28.507262     57.014524
     -3.018018     24.980608     24.980608     49.961217
     -3.008008     21.429799     21.429799     42.859598
     -2.997998     18.071378     18.071378     36.142756
     -2.987988     15.079576     15.079576     30.159152
     -2.977978     12.680852     12.680852     25.361704
     -2.967968     11.191611     11.191611     22.383222
     -2.957958     10.974686     10.974686     21.949373
     -2.947948     12.333533     12.333533     24.667066
     -2.937938     15.386619     15.386619     30.773237
     -2.927928     19.967968     19.967968     39.935936
     -2.917918     25.592750     25.592750     51.185501
     -2.907908     31.513281     31.513281     63.026562
     -2.897898     36.867098     36.867098     73.734195
     -2.887888     40.884355     40.884355     81.768709
     -2.877878     43.088602     43.088602     86.177204
     -2.867868     43.413670     43.413670     86.827339
     -2.857858     42.184196     42.184196     84.368393
     -2.847848     39.962867     39.962867     79.925733
     -2.837838     37.328092     37.328092     74.656184
     -2.827828     34.679286     34.679286     69.358573
     -2.817818     32.152903     32.152903     64.305806
     -2.807808     29.676111     29.676111     59.352223
     -2.797798     27.115274     27.115274     54.230549
     -2.787788     24.430701     24.430701     48.861402
     -2.777778     21.752297     21.752297     43.504595
     -2.767768     19.340477     19.340477     38.680953
     -2.757758     17.464526     17.464526     34.929052
     -2.747748     16.277425     16.277425     32.554850
     -2.737738     15.764468     15.764468     31.528937
     -2.727728     15.793542     15.793542     31.587085
     -2.717718     16.227620     16.227620     32.455241
     -2.707708     17.018095     17.018095     34.036190
     -2.697698     18.210336     18.210336     36.420671
     -2.687688     19.854860     19.854860     39.709719
     -2.677678     21.888241     21.888241     43.776483
     -2.667668     24.076842     24.076842     48.153685
     -2.657658     26.079052     26.079052     52.158104
     -2.647648     27.600081     27.600081     55.200162
     -2.637638     28.544337     28.544337     57.088673
     -2.627628     29.065349     29.065349     58.130697
     -2.617618     29.478285     29.478285     58.956571
     -2.607608     30.089111     30.089111     60.178223
     -2.597598     31.042956     31.042956     62.085913
     -2.587588     32.269905     32.269905     64.539810
     -2.577578     33.533618     33.533618     67.067237
     -2.567568     34.526660     34.526660     69.053319
     -2.557558     34.950328     34.950328     69.900655
     -2.547548     34.559670     34.559670     69.119340
     -2.537538     33.199038     33.199038     66.398077
     -2.527528     30.857308     30.857308     61.714615
     -2.517518     27.734335     27.734335     55.468670
     -2.507508     24.270422     24.270422     48.540843
     -2.497497     21.088832     21.088832     42.177664
     -2.487487     18.844026     18.844026     37.688051
     -2.477477     18.025209     18.025209     36.050418
     -2.467467     18.797547     18.797547     37.595094
     -2.457457     20.952921     20.952921     41.905842
     -2.447447     23.995898     23.995898     47.991796
     -2.437437     27.331723     27.331723     54.663446
     -2.427427     30.477314     30.477314     60.954627
     -2.417417     33.203529     33.203529     66.407058
     -2.407407     35.545439     35.545439     71.090877
     -2.397397     37.677486     37.677486     75.354971
     -2.387387     39.715916     39.715916     79.431831
     -2.377377     41.549944     41.549944     83.099887
     -2.367367     42.794567     42.794567     85.589135
     -2.357357     42.902512     42.902512     85.805023
     -2.347347     41.394385     41.394385     82.788771
     -2.337337     38.103191     38.103191     76.206382
     -2.327327     33.316707     33.316707     66.633414
     -2.317317     27.748981     27.748981     55.497962
     -2.307307     22.354778     22.354778     44.709555
     -2.297297     18.070805     18.070805     36.141611
     -2.287287     15.587314     15.587314     31.174628
     -2.277277     15.220759     15.220759     30.441517
     -2.267267     16.902355     16.902355     33.804711
     -2.257257     20.253490     20.253490     40.506981
     -2.247247     24.703042     24.703042     49.406084
     -2.237237     29.607390     29.607390     59.214779
     -2.227227     34.347384     34.347384     68.694768
     -2.217217     38.390171     38.390171     76.780342
     -2.207207     41.317404     41.317404     82.634808
     -2.197197     42.834744     42.834744     85.669489
     -2.187187     42.784267     42.784267     85.568533
     -2.177177     41.172931     41.172931     82.345863
     -2.167167     38.206330     38.206330     76.412660
     -2.157157     34.292541     34.292541     68.585081
     -2.147147     29.979259     29.979259     59.958518
     -2.137137     25.819678     25.819678     51.639357
     -2.127127     22.212610     22.212610     44.425219
     -2.117117     19.293311     19.293311     38.586622
     -2.107107     16.934726     16.934726     33.869453
     -2.097097     14.860082     14.860082     29.720165
     -2.087087     12.805873     12.805873     25.611746
     -2.077077     10.651342     10.651342     21.302684
     -2.067067      8.459345      8.459345     16.918691
     -2.057057      6.429576      6.429576     12.859152
     -2.047047      4.808573      4.808573      9.617146
     -2.037037      3.807347      3.807347      7.614694
     -2.027027      3.552383      3.552383      7.104766
     -2.017017      4.065324      4.065324      8.130647
     -2.007007      5.254380      5.254380     10.508760
     -1.996997      6.911324      6.911324     13.822649
     -1.986987      8.726970      8.726970     17.453940
     -1.976977     10.344549     10.344549     20.689098
     -1.966967     11.453977     11.453977     22.907954
     -1.956957     11.899591     11.899591     23.799182
     -1.946947     11.752060     11.752060     23.504119
     -1.936937     11.301052     11.301052     22.602103
     -1.926927     10.959670     10.959670     21.919341
     -1.916917     11.115207     11.115207     22.230413
     -1.906907     11.987539     11.987539     23.975078
     -1.896897     13.551997     13.551997     27.103995
     -1.886887     15.552403     15.552403     31.104805
     -1.876877     17.591196     17.591196     35.182392
     -1.866867     19.256806     19.256806     38.513612
     -1.856857     20.243051     20.243051     40.486103
     -1.846847     20.427048     20.427048     40.854096
     -1.836837     19.888967     19.888967     39.777935
     -1.826827     18.870957     18.870957     37.741914
     -1.816817     17.685041     17.685041     35.370082
     -1.806807     16.595862     16.595862     33.191725
     -1.796797     15.720694     15.720694     31.441389
     -1.786787     14.992108     14.992108     29.984215
     -1.776777     14.205792     14.205792     28.411583
     -1.766767     13.133340     13.133340     26.266680
     -1.756757     11.643173     11.643173     23.286345
     -1.746747      9.768640      9.768640     19.537279
     -1.736737      7.695091      7.695091     15.390181
     -1.726727      5.684683      5.684683     11.369365
     -1.716717      3.987485      3.987485      7.974970
     -1.706707      2.783628      2.783628      5.567256
     -1.696697      2.172096      2.172096      4.344192
     -1.686687      2.190045      2.190045      4.380091
     -1.676677      2.831888      2.831888      5.663776
     -1.666667      4.045465      4.045465      8.090929
     -1.656657      5.705716      5.705716     11.411431
     -1.646647      7.589536      7.589536     15.179072
     -1.636637      9.384383      9.384383     18.768767
     -1.626627     10.750250     10.750250     21.500499
