# EIG2DOS: Utility for SIESTA to obtain the electronic density of states
#  E. Artacho, Apr 1999, A. Garcia, Apr 2012
#  Nick R. Papior, Feb 2017
# ------------------------------------------
# Eigenvalues calculated from a non-polarized calculation
# Eigenvalues read from siesta.EIG
# Kpoint weights read from siesta.KP
# Using smearing parameter:   0.0500
# Using 1000 points in the energy range
# Selected bands: 1 to: 2981
# Emin, Emax in file for selected band(s):    -27.3579736    218.3889720
# Nbands, Nspin, Nk   =   2981     1     1
# E_F                 =    -4.2106 eV --> (shifted to ZERO)
# Broadening          =     0.0500 eV
#
#        E            N(up)  (=)   N(down)         Ntot
     -5.000000     33.379157     33.379157     66.758315
     -4.989990     37.940741     37.940741     75.881483
     -4.979980     41.978610     41.978610     83.957220
     -4.969970     44.816126     44.816126     89.632251
     -4.959960     45.936624     45.936624     91.873248
     -4.949950     45.156095     45.156095     90.312190
     -4.939940     42.693361     42.693361     85.386722
     -4.929930     39.124425     39.124425     78.248850
     -4.919920     35.257929     35.257929     70.515857
     -4.909910     31.984002     31.984002     63.968005
     -4.899900     30.126760     30.126760     60.253521
     -4.889890     30.299659     30.299659     60.599318
     -4.879880     32.758053     32.758053     65.516107
     -4.869870     37.274168     37.274168     74.548336
     -4.859860     43.098575     43.098575     86.197150
     -4.849850     49.075264     49.075264     98.150527
     -4.839840     53.922937     53.922937    107.845873
     -4.829830     56.606805     56.606805    113.213610
     -4.819820     56.658683     56.658683    113.317366
     -4.809810     54.307182     54.307182    108.614365
     -4.799800     50.359584     50.359584    100.719168
     -4.789790     45.889138     45.889138     91.778275
     -4.779780     41.863517     41.863517     83.727035
     -4.769770     38.861398     38.861398     77.722796
     -4.759760     36.968668     36.968668     73.937336
     -4.749750     35.861425     35.861425     71.722850
     -4.739740     35.011557     35.011557     70.023114
     -4.729730     33.916702     33.916702     67.833405
     -4.719720     32.264377     32.264377     64.528754
     -4.709710     29.982455     29.982455     59.964911
     -4.699700     27.187219     27.187219     54.374438
     -4.689690     24.088303     24.088303     48.176606
     -4.679680     20.920428     20.920428     41.840856
     -4.669670     17.938596     17.938596     35.877192
     -4.659660     15.459722     15.459722     30.919444
     -4.649650     13.896157     13.896157     27.792313
     -4.639640     13.727615     13.727615     27.455231
     -4.629630     15.392216     15.392216     30.784432
     -4.619620     19.122095     19.122095     38.244190
     -4.609610     24.783746     24.783746     49.567493
     -4.599600     31.796456     31.796456     63.592912
     -4.589590     39.187924     39.187924     78.375848
     -4.579580     45.802201     45.802201     91.604402
     -4.569570     50.611209     50.611209    101.222418
     -4.559560     53.024034     53.024034    106.048068
     -4.549550     53.071194     53.071194    106.142387
     -4.539540     51.381079     51.381079    102.762157
     -4.529530     48.948571     48.948571     97.897142
     -4.519520     46.782389     46.782389     93.564778
     -4.509510     45.566929     45.566929     91.133858
     -4.499499     45.464669     45.464669     90.929337
     -4.489489     46.122989     46.122989     92.245978
     -4.479479     46.863820     46.863820     93.727641
     -4.469469     46.964040     46.964040     93.928080
     -4.459459     45.909260     45.909260     91.818521
     -4.449449     43.531681     43.531681     87.063362
     -4.439439     40.006298     40.006298     80.012597
     -4.429429     35.744686     35.744686     71.489372
     -4.419419     31.259050     31.259050     62.518101
     -4.409409     27.057803     27.057803     54.115607
     -4.399399     23.590910     23.590910     47.181821
     -4.389389     21.221252     21.221252     42.442505
     -4.379379     20.187203     20.187203     40.374406
     -4.369369     20.547263     20.547263     41.094525
     -4.359359     22.136198     22.136198     44.272397
     -4.349349     24.579017     24.579017     49.158034
     -4.339339     27.386523     27.386523     54.773047
     -4.329329     30.108054     30.108054     60.216108
     -4.319319     32.477220     32.477220     64.954441
     -4.309309     34.482724     34.482724     68.965448
     -4.299299     36.329662     36.329662     72.659323
     -4.289289     38.305379     38.305379     76.610759
     -4.279279     40.602288     40.602288     81.204576
     -4.269269     43.166224     43.166224     86.332447
     -4.259259     45.633931     45.633931     91.267861
     -4.249249     47.399616     47.399616     94.799231
     -4.239239     47.807429     47.807429     95.614857
     -4.229229     46.409950     46.409950     92.819900
     -4.219219     43.186391     43.186391     86.372782
     -4.209209     38.612449     38.612449     77.224898
     -4.199199     33.532947     33.532947     67.065894
     -4.189189     28.884333     28.884333     57.768665
     -4.179179     25.391397     25.391397     50.782795
     -4.169169     23.373186     23.373186     46.746372
     -4.159159     22.731940     22.731940     45.463880
     -4.149149     23.105598     23.105598     46.211197
     -4.139139     24.091825     24.091825     48.183650
     -4.129129     25.431428     25.431428     50.862855
     -4.119119     27.070083     27.070083     54.140166
     -4.109109     29.078426     29.078426     58.156851
     -4.099099     31.477553     31.477553     62.955107
     -4.089089     34.067125     34.067125     68.134250
     -4.079079     36.363374     36.363374     72.726748
     -4.069069     37.708732     37.708732     75.417465
     -4.059059     37.524348     37.524348     75.048697
     -4.049049     35.587871     35.587871     71.175742
     -4.039039     32.190054     32.190054     64.380108
     -4.029029     28.081510     28.081510     56.163020
     -4.019019     24.233249     24.233249     48.466498
     -4.009009     21.530331     21.530331     43.060661
     -3.998999     20.538932     20.538932     41.077863
     -3.988989     21.428597     21.428597     42.857194
     -3.978979     24.039930     24.039930     48.079860
     -3.968969     28.023099     28.023099     56.046199
     -3.958959     32.966383     32.966383     65.932767
     -3.948949     38.474831     38.474831     76.949661
     -3.938939     44.206754     44.206754     88.413509
     -3.928929     49.894015     49.894015     99.788029
     -3.918919     55.355106     55.355106    110.710212
     -3.908909     60.483767     60.483767    120.967533
     -3.898899     65.192406     65.192406    130.384811
     -3.888889     69.318348     69.318348    138.636696
     -3.878879     72.539591     72.539591    145.079182
     -3.868869     74.361944     74.361944    148.723888
     -3.858859     74.214198     74.214198    148.428396
     -3.848849     71.634447     71.634447    143.268894
     -3.838839     66.479217     66.479217    132.958435
     -3.828829     59.065931     59.065931    118.131862
     -3.818819     50.179540     50.179540    100.359079
     -3.808809     40.926476     40.926476     81.852952
     -3.798799     32.479280     32.479280     64.958560
     -3.788789     25.796381     25.796381     51.592762
     -3.778779     21.406882     21.406882     42.813764
     -3.768769     19.321510     19.321510     38.643019
     -3.758759     19.085092     19.085092     38.170183
     -3.748749     19.943658     19.943658     39.887316
     -3.738739     21.073342     21.073342     42.146683
     -3.728729     21.810405     21.810405     43.620811
     -3.718719     21.827119     21.827119     43.654238
     -3.708709     21.211669     21.211669     42.423337
     -3.698699     20.429671     20.429671     40.859341
     -3.688689     20.170361     20.170361     40.340722
     -3.678679     21.111478     21.111478     42.222956
     -3.668669     23.667730     23.667730     47.335460
     -3.658659     27.806204     27.806204     55.612408
     -3.648649     33.002622     33.002622     66.005244
     -3.638639     38.367381     38.367381     76.734763
     -3.628629     42.901981     42.901981     85.803962
     -3.618619     45.787708     45.787708     91.575417
     -3.608609     46.595149     46.595149     93.190298
     -3.598599     45.346160     45.346160     90.692320
     -3.588589     42.432943     42.432943     84.865886
     -3.578579     38.455467     38.455467     76.910934
     -3.568569     34.049211     34.049211     68.098422
     -3.558559     29.748607     29.748607     59.497215
     -3.548549     25.900907     25.900907     51.801814
     -3.538539     22.633808     22.633808     45.267617
     -3.528529     19.882571     19.882571     39.765143
     -3.518519     17.476674     17.476674     34.953349
     -3.508509     15.263044     15.263044     30.526087
     -3.498498     13.217562     13.217562     26.435123
     -3.488488     11.492902     11.492902     22.985805
     -3.478478     10.376932     10.376932     20.753864
     -3.468468     10.176765     10.176765     20.353530
     -3.458458     11.075397     11.075397     22.150793
     -3.448448     13.017372     13.017372     26.034744
     -3.438438     15.669174     15.669174     31.338349
     -3.428428     18.476620     18.476620     36.953239
     -3.418418     20.810919     20.810919     41.621837
     -3.408408     22.162003     22.162003     44.324006
     -3.398398     22.312949     22.312949     44.625899
     -3.388388     21.427824     21.427824     42.855647
     -3.378378     20.014718     20.014718     40.029437
     -3.368368     18.775935     18.775935     37.551869
     -3.358358     18.402548     18.402548     36.805096
     -3.348348     19.386064     19.386064     38.772127
     -3.338338     21.899472     21.899472     43.798943
     -3.328328     25.761656     25.761656     51.523312
     -3.318318     30.471122     30.471122     60.942244
     -3.308308     35.292703     35.292703     70.585406
     -3.298298     39.392829     39.392829     78.785657
     -3.288288     42.017718     42.017718     84.035435
     -3.278278     42.680936     42.680936     85.361871
     -3.268268     41.292784     41.292784     82.585569
     -3.258258     38.164369     38.164369     76.328738
     -3.248248     33.872616     33.872616     67.745232
     -3.238238     29.049280     29.049280     58.098560
     -3.228228     24.199119     24.199119     48.398238
     -3.218218     19.625711     19.625711     39.251422
     -3.208208     15.469566     15.469566     30.939133
     -3.198198     11.799858     11.799858     23.599715
     -3.188188      8.690393      8.690393     17.380786
     -3.178178      6.247135      6.247135     12.494269
     -3.168168      4.599115      4.599115      9.198231
     -3.158158      3.881868      3.881868      7.763736
     -3.148148      4.227874      4.227874      8.455749
     -3.138138      5.753418      5.753418     11.506836
     -3.128128      8.520817      8.520817     17.041634
     -3.118118     12.469404     12.469404     24.938809
     -3.108108     17.338608     17.338608     34.677215
     -3.098098     22.630737     22.630737     45.261473
     -3.088088     27.659061     27.659061     55.318121
     -3.078078     31.691698     31.691698     63.383396
     -3.068068     34.148371     34.148371     68.296741
     -3.058058     34.766892     34.766892     69.533785
     -3.048048     33.659453     33.659453     67.318905
     -3.038038     31.231060     31.231060     62.462119
     -3.028028     28.005718     28.005718     56.011436
     -3.018018     24.453755     24.453755     48.907509
     -3.008008     20.904485     20.904485     41.808970
     -2.997998     17.569578     17.569578     35.139156
     -2.987988     14.635297     14.635297     29.270594
     -2.977978     12.349257     12.349257     24.698513
     -2.967968     11.043037     11.043037     22.086075
     -2.957958     11.075593     11.075593     22.151187
     -2.947948     12.722340     12.722340     25.444679
     -2.937938     16.053631     16.053631     32.107262
     -2.927928     20.846789     20.846789     41.693579
     -2.917918     26.567356     26.567356     53.134711
     -2.907908     32.440615     32.440615     64.881231
     -2.897898     37.609841     37.609841     75.219683
     -2.887888     41.344022     41.344022     82.688043
     -2.877878     43.227904     43.227904     86.455809
     -2.867868     43.260411     43.260411     86.520823
     -2.857858     41.815641     41.815641     83.631282
     -2.847848     39.476757     39.476757     78.953514
     -2.837838     36.811390     36.811390     73.622779
     -2.827828     34.186436     34.186436     68.372872
     -2.817818     31.701426     31.701426     63.402852
     -2.807808     29.259585     29.259585     58.519170
     -2.797798     26.725376     26.725376     53.450752
     -2.787788     24.075431     24.075431     48.150862
     -2.777778     21.460046     21.460046     42.920092
     -2.767768     19.148674     19.148674     38.297347
     -2.757758     17.401912     17.401912     34.803825
     -2.747748     16.353578     16.353578     32.707156
     -2.737738     15.975075     15.975075     31.950150
     -2.727728     16.137574     16.137574     32.275148
     -2.717718     16.721361     16.721361     33.442722
     -2.707708     17.689964     17.689964     35.379928
     -2.697698     19.072663     19.072663     38.145325
     -2.687688     20.867486     20.867486     41.734971
     -2.677678     22.940614     22.940614     45.881228
     -2.667668     25.009295     25.009295     50.018590
     -2.657658     26.740940     26.740940     53.481880
     -2.647648     27.916674     27.916674     55.833347
     -2.637638     28.554452     28.554452     57.108903
     -2.627628     28.906549     28.906549     57.813097
     -2.617618     29.327035     29.327035     58.654071
     -2.607608     30.088505     30.088505     60.177010
     -2.597598     31.253534     31.253534     62.507068
     -2.587588     32.659993     32.659993     65.319986
     -2.577578     34.001146     34.001146     68.002291
     -2.567568     34.932740     34.932740     69.865479
     -2.557558     35.150944     35.150944     70.301887
     -2.547548     34.434768     34.434768     68.869536
     -2.537538     32.683434     32.683434     65.366868
     -2.527528     29.970439     29.970439     59.940878
     -2.517518     26.595058     26.595058     53.190116
     -2.507508     23.081596     23.081596     46.163192
     -2.497497     20.088603     20.088603     40.177207
     -2.487487     18.238544     18.238544     36.477087
     -2.477477     17.928640     17.928640     35.857279
     -2.467467     19.202823     19.202823     38.405646
     -2.457457     21.743118     21.743118     43.486236
     -2.447447     24.989279     24.989279     49.978558
     -2.437437     28.341117     28.341117     56.682235
     -2.427427     31.361036     31.361036     62.722073
     -2.417417     33.890820     33.890820     67.781639
     -2.407407     36.031049     36.031049     72.062097
     -2.397397     37.992093     37.992093     75.984187
     -2.387387     39.887128     39.887128     79.774256
     -2.377377     41.571077     41.571077     83.142153
     -2.367367     42.615469     42.615469     85.230938
     -2.357357     42.448525     42.448525     84.897049
     -2.347347     40.607093     40.607093     81.214187
     -2.337337     36.984296     36.984296     73.968591
     -2.327327     31.952007     31.952007     63.904014
     -2.317317     26.298042     26.298042     52.596084
     -2.307307     21.009830     21.009830     42.019660
     -2.297297     17.004368     17.004368     34.008736
     -2.287287     14.911817     14.911817     29.823634
     -2.277277     14.973970     14.973970     29.947939
     -2.267267     17.057522     17.057522     34.115044
     -2.257257     20.742461     20.742461     41.484922
     -2.247247     25.438667     25.438667     50.877334
     -2.237237     30.496647     30.496647     60.993293
     -2.227227     35.294405     35.294405     70.588810
     -2.217217     39.294769     39.294769     78.589539
     -2.207207     42.077715     42.077715     84.155431
     -2.197197     43.361463     43.361463     86.722925
     -2.187187     43.028991     43.028991     86.057983
     -2.177177     41.165772     41.165772     82.331543
     -2.167167     38.091018     38.091018     76.182036
     -2.157157     34.344207     34.344207     68.688415
     -2.147147     30.592464     30.592464     61.184928
     -2.137137     27.461107     27.461107     54.922215
     -2.127127     25.341090     25.341090     50.682180
     -2.117117     24.257770     24.257770     48.515540
     -2.107107     23.869140     23.869140     47.738281
     -2.097097     23.603208     23.603208     47.206416
     -2.087087     22.877420     22.877420     45.754840
     -2.077077     21.306353     21.306353     42.612707
     -2.067067     18.815500     18.815500     37.631000
     -2.057057     15.628203     15.628203     31.256407
     -2.047047     12.150581     12.150581     24.301162
     -2.037037      8.816754      8.816754     17.633509
     -2.027027      5.960016      5.960016     11.920032
     -2.017017      3.749921      3.749921      7.499842
     -2.007007      2.199102      2.199102      4.398204
     -1.996997      1.216141      1.216141      2.432283
     -1.986987      0.672210      0.672210      1.344420
     -1.976977      0.456839      0.456839      0.913678
     -1.966967      0.512033      0.512033      1.024065
     -1.956957      0.844250      0.844250      1.688500
     -1.946947      1.516883      1.516883      3.033766
     -1.936937      2.624742      2.624742      5.249484
     -1.926927      4.252464      4.252464      8.504929
     -1.916917      6.424166      6.424166     12.848332
     -1.906907      9.059860      9.059860     18.119720
     -1.896897     11.958240     11.958240     23.916480
     -1.886887     14.819324     14.819324     29.638648
     -1.876877     17.305096     17.305096     34.610192
     -1.866867     19.120197     19.120197     38.240395
     -1.856857     20.087059     20.087059     40.174119
     -1.846847     20.192669     20.192669     40.385337
     -1.836837     19.592186     19.592186     39.184373
     -1.826827     18.563585     18.563585     37.127170
     -1.816817     17.419284     17.419284     34.838568
     -1.806807     16.398607     16.398607     32.797214
     -1.796797     15.582425     15.582425     31.164849
     -1.786787     14.872726     14.872726     29.745451
     -1.776777     14.054113     14.054113     28.108227
     -1.766767     12.911021     12.911021     25.822043
     -1.756757     11.341625     11.341625     22.683251
     -1.746747      9.411562      9.411562     18.823125
     -1.736737      7.327384      7.327384     14.654769
     -1.726727      5.355466      5.355466     10.710932
     -1.716717      3.736420      3.736420      7.472840
     -1.706707      2.635669      2.635669      5.271337
     -1.696697      2.139544      2.139544      4.279087
     -1.686687      2.276608      2.276608      4.553216
     -1.676677      3.033401      3.033401      6.066803
     -1.666667      4.345553      4.345553      8.691106
     -1.656657      6.069531      6.069531     12.139062
     -1.646647      7.961828      7.961828     15.923657
     -1.636637      9.697350      9.697350     19.394701
     -1.626627     10.941668     10.941668     21.883336
