# EIG2DOS: Utility for SIESTA to obtain the electronic density of states
#  E. Artacho, Apr 1999, A. Garcia, Apr 2012
#  Nick R. Papior, Feb 2017
# ------------------------------------------
# Eigenvalues calculated from a non-polarized calculation
# Eigenvalues read from siesta.EIG
# Kpoint weights read from siesta.KP
# Using smearing parameter:   0.0500
# Using 1000 points in the energy range
# Selected bands: 1 to: 2981
# Emin, Emax in file for selected band(s):    -27.0410592    218.3186390
# Nbands, Nspin, Nk   =   2981     1     1
# E_F                 =    -4.2887 eV --> (shifted to ZERO)
# Broadening          =     0.0500 eV
#
#        E            N(up)  (=)   N(down)         Ntot
     -5.000000     45.651233     45.651233     91.302466
     -4.989990     49.702867     49.702867     99.405735
     -4.979980     52.099518     52.099518    104.199035
     -4.969970     52.560731     52.560731    105.121463
     -4.959960     51.127315     51.127315    102.254631
     -4.949950     48.135428     48.135428     96.270857
     -4.939940     44.123189     44.123189     88.246379
     -4.929930     39.724589     39.724589     79.449178
     -4.919920     35.596664     35.596664     71.193327
     -4.909910     32.387669     32.387669     64.775337
     -4.899900     30.711839     30.711839     61.423678
     -4.889890     31.078461     31.078461     62.156922
     -4.879880     33.747478     33.747478     67.494956
     -4.869870     38.546078     38.546078     77.092157
     -4.859860     44.745696     44.745696     89.491392
     -4.849850     51.114984     51.114984    102.229967
     -4.839840     56.199361     56.199361    112.398723
     -4.829830     58.754278     58.754278    117.508556
     -4.819820     58.152419     58.152419    116.304838
     -4.809810     54.573563     54.573563    109.147126
     -4.799800     48.889243     48.889243     97.778487
     -4.789790     42.311057     42.311057     84.622114
     -4.779780     35.980957     35.980957     71.961915
     -4.769770     30.680234     30.680234     61.360467
     -4.759760     26.738448     26.738448     53.476897
     -4.749750     24.110454     24.110454     48.220907
     -4.739740     22.528549     22.528549     45.057097
     -4.729730     21.644340     21.644340     43.288681
     -4.719720     21.119224     21.119224     42.238448
     -4.709710     20.664009     20.664009     41.328019
     -4.699700     20.049618     20.049618     40.099236
     -4.689690     19.114811     19.114811     38.229622
     -4.679680     17.789767     17.789767     35.579533
     -4.669670     16.138237     16.138237     32.276473
     -4.659660     14.400804     14.400804     28.801607
     -4.649650     13.008187     13.008187     26.016374
     -4.639640     12.536004     12.536004     25.072009
     -4.629630     13.590066     13.590066     27.180132
     -4.619620     16.635892     16.635892     33.271783
     -4.609610     21.810882     21.810882     43.621763
     -4.599600     28.779059     28.779059     57.558117
     -4.589590     36.698618     36.698618     73.397236
     -4.579580     44.355663     44.355663     88.711327
     -4.569570     50.462519     50.462519    100.925039
     -4.559560     54.039852     54.039852    108.079704
     -4.549550     54.740301     54.740301    109.480601
     -4.539540     52.972198     52.972198    105.944396
     -4.529530     49.757442     49.757442     99.514884
     -4.519520     46.373081     46.373081     92.746162
     -4.509510     43.920545     43.920545     87.841090
     -4.499499     42.991206     42.991206     85.982412
     -4.489489     43.544364     43.544364     87.088728
     -4.479479     45.016675     45.016675     90.033350
     -4.469469     46.590354     46.590354     93.180708
     -4.459459     47.500049     47.500049     95.000099
     -4.449449     47.266263     47.266263     94.532526
     -4.439439     45.791740     45.791740     91.583480
     -4.429429     43.318832     43.318832     86.637664
     -4.419419     40.294929     40.294929     80.589859
     -4.409409     37.214241     37.214241     74.428481
     -4.399399     34.494501     34.494501     68.989003
     -4.389389     32.415638     32.415638     64.831276
     -4.379379     31.112180     31.112180     62.224359
     -4.369369     30.591506     30.591506     61.183013
     -4.359359     30.754732     30.754732     61.509465
     -4.349349     31.417575     31.417575     62.835151
     -4.339339     32.344897     32.344897     64.689793
     -4.329329     33.309015     33.309015     66.618030
     -4.319319     34.161135     34.161135     68.322271
     -4.309309     34.885912     34.885912     69.771825
     -4.299299     35.608809     35.608809     71.217617
     -4.289289     36.545055     36.545055     73.090110
     -4.279279     37.903105     37.903105     75.806211
     -4.269269     39.771333     39.771333     79.542666
     -4.259259     42.023823     42.023823     84.047646
     -4.249249     44.284714     44.284714     88.569428
     -4.239239     45.986523     45.986523     91.973046
     -4.229229     46.531952     46.531952     93.063903
     -4.219219     45.516915     45.516915     91.033830
     -4.209209     42.920177     42.920177     85.840353
     -4.199199     39.155933     39.155933     78.311867
     -4.189189     34.943709     34.943709     69.887417
     -4.179179     31.048255     31.048255     62.096510
     -4.169169     28.016875     28.016875     56.033751
     -4.159159     26.041115     26.041115     52.082229
     -4.149149     24.996047     24.996047     49.992095
     -4.139139     24.613835     24.613835     49.227671
     -4.129129     24.685738     24.685738     49.371477
     -4.119119     25.184180     25.184180     50.368360
     -4.109109     26.244047     26.244047     52.488095
     -4.099099     28.013950     28.013950     56.027899
     -4.089089     30.456210     30.456210     60.912420
     -4.079079     33.211457     33.211457     66.422914
     -4.069069     35.625298     35.625298     71.250595
     -4.059059     36.956197     36.956197     73.912395
     -4.049049     36.679115     36.679115     73.358229
     -4.039039     34.731852     34.731852     69.463704
     -4.029029     31.571437     31.571437     63.142875
     -4.019019     28.011003     28.011003     56.022006
     -4.009009     24.928819     24.928819     49.857638
     -3.998999     23.001148     23.001148     46.002296
     -3.988989     22.574674     22.574674     45.149349
     -3.978979     23.695635     23.695635     47.391270
     -3.968969     26.223935     26.223935     52.447871
     -3.958959     29.937675     29.937675     59.875350
     -3.948949     34.578451     34.578451     69.156901
     -3.938939     39.853800     39.853800     79.707600
     -3.928929     45.445728     45.445728     90.891457
     -3.918919     51.053371     51.053371    102.106742
     -3.908909     56.448967     56.448967    112.897933
     -3.898899     61.495364     61.495364    122.990728
     -3.888889     66.088783     66.088783    132.177566
     -3.878879     70.043329     70.043329    140.086658
     -3.868869     72.986621     72.986621    145.973241
     -3.858859     74.350513     74.350513    148.701025
     -3.848849     73.502087     73.502087    147.004173
     -3.838839     69.984767     69.984767    139.969533
     -3.828829     63.768755     63.768755    127.537510
     -3.818819     55.387099     55.387099    110.774198
     -3.808809     45.877139     45.877139     91.754279
     -3.798799     36.535730     36.535730     73.071461
     -3.788789     28.580908     28.580908     57.161816
     -3.778779     22.847222     22.847222     45.694444
     -3.768769     19.614924     19.614924     39.229847
     -3.758759     18.609625     18.609625     37.219249
     -3.748749     19.147344     19.147344     38.294689
     -3.738739     20.364860     20.364860     40.729721
     -3.728729     21.468393     21.468393     42.936786
     -3.718719     21.942656     21.942656     43.885312
     -3.708709     21.676001     21.676001     43.352003
     -3.698699     20.972945     20.972945     41.945890
     -3.688689     20.445911     20.445911     40.891822
     -3.678679     20.806366     20.806366     41.612732
     -3.668669     22.608642     22.608642     45.217284
     -3.658659     26.026438     26.026438     52.052876
     -3.648649     30.745396     30.745396     61.490793
     -3.638639     36.022518     36.022518     72.045035
     -3.628629     40.898950     40.898950     81.797900
     -3.618619     44.484800     44.484800     88.969599
     -3.608609     46.202199     46.202199     92.404399
     -3.598599     45.898761     45.898761     91.797522
     -3.588589     43.812529     43.812529     87.625058
     -3.578579     40.436509     40.436509     80.873017
     -3.568569     36.355711     36.355711     72.711421
     -3.558559     32.109306     32.109306     64.218612
     -3.548549     28.095886     28.095886     56.191771
     -3.538539     24.522770     24.522770     49.045539
     -3.528529     21.403803     21.403803     42.807607
     -3.518519     18.612366     18.612366     37.224732
     -3.508509     15.980055     15.980055     31.960110
     -3.498498     13.405030     13.405030     26.810060
     -3.488488     10.922202     10.922202     21.844403
     -3.478478      8.704648      8.704648     17.409295
     -3.468468      7.000700      7.000700     14.001400
     -3.458458      6.039130      6.039130     12.078259
     -3.448448      5.940579      5.940579     11.881158
     -3.438438      6.662203      6.662203     13.324407
     -3.428428      7.989289      7.989289     15.978578
     -3.418418      9.579544      9.579544     19.159087
     -3.408408     11.056800     11.056800     22.113600
     -3.398398     12.133699     12.133699     24.267398
     -3.388388     12.722316     12.722316     25.444632
     -3.378378     12.984455     12.984455     25.968909
     -3.368368     13.292472     13.292472     26.584943
     -3.358358     14.110922     14.110922     28.221844
     -3.348348     15.844816     15.844816     31.689631
     -3.338338     18.708593     18.708593     37.417186
     -3.328328     22.648829     22.648829     45.297659
     -3.318318     27.324425     27.324425     54.648849
     -3.308308     32.135935     32.135935     64.271870
     -3.298298     36.305383     36.305383     72.610767
     -3.288288     39.017402     39.017402     78.034804
     -3.278278     39.615394     39.615394     79.230787
     -3.268268     37.802794     37.802794     75.605588
     -3.258258     33.764350     33.764350     67.528699
     -3.248248     28.135971     28.135971     56.271943
     -3.238238     21.819271     21.819271     43.638542
     -3.228228     15.716914     15.716914     31.433827
     -3.218218     10.502287     10.502287     21.004575
     -3.208208      6.508648      6.508648     13.017295
     -3.198198      3.753929      3.753929      7.507858
     -3.188188      2.055887      2.055887      4.111775
     -3.178178      1.170416      1.170416      2.340831
     -3.168168      0.902336      0.902336      1.804673
     -3.158158      1.168784      1.168784      2.337568
     -3.148148      2.017375      2.017375      4.034749
     -3.138138      3.606887      3.606887      7.213775
     -3.128128      6.154212      6.154212     12.308424
     -3.118118      9.849989      9.849989     19.699977
     -3.108108     14.754147     14.754147     29.508294
     -3.098098     20.698948     20.698948     41.397895
     -3.088088     27.239741     27.239741     54.479482
     -3.078078     33.689279     33.689279     67.378559
     -3.068068     39.244541     39.244541     78.489082
     -3.058058     43.174657     43.174657     86.349313
     -3.048048     45.005783     45.005783     90.011567
     -3.038038     44.634726     44.634726     89.269452
     -3.028028     42.333525     42.333525     84.667051
     -3.018018     38.655748     38.655748     77.311496
     -3.008008     34.293006     34.293006     68.586013
     -2.997998     29.936760     29.936760     59.873520
     -2.987988     26.178743     26.178743     52.357486
     -2.977978     23.455472     23.455472     46.910944
     -2.967968     22.028218     22.028218     44.056437
     -2.957958     21.990235     21.990235     43.980470
     -2.947948     23.293907     23.293907     46.587814
     -2.937938     25.783196     25.783196     51.566392
     -2.927928     29.210603     29.210603     58.421206
     -2.917918     33.228878     33.228878     66.457756
     -2.907908     37.376260     37.376260     74.752521
     -2.897898     41.097081     41.097081     82.194161
     -2.887888     43.830328     43.830328     87.660656
     -2.877878     45.154504     45.154504     90.309008
     -2.867868     44.926970     44.926970     89.853941
     -2.857858     43.339436     43.339436     86.678871
     -2.847848     40.845866     40.845866     81.691732
     -2.837838     37.986243     37.986243     75.972485
     -2.827828     35.187750     35.187750     70.375501
     -2.817818     32.638408     32.638408     65.276816
     -2.807808     30.288976     30.288976     60.577952
     -2.797798     27.970216     27.970216     55.940433
     -2.787788     25.552947     25.552947     51.105894
     -2.777778     23.060298     23.060298     46.120596
     -2.767768     20.674004     20.674004     41.348008
     -2.757758     18.640429     18.640429     37.280857
     -2.747748     17.140662     17.140662     34.281324
     -2.737738     16.208186     16.208186     32.416371
     -2.727728     15.745205     15.745205     31.490409
     -2.717718     15.623723     15.623723     31.247447
     -2.707708     15.800327     15.800327     31.600654
     -2.697698     16.362152     16.362152     32.724304
     -2.687688     17.465644     17.465644     34.931289
     -2.677678     19.202634     19.202634     38.405267
     -2.667668     21.482048     21.482048     42.964096
     -2.657658     24.012184     24.012184     48.024369
     -2.647648     26.406446     26.406446     52.812893
     -2.637638     28.354148     28.354148     56.708297
     -2.627628     29.752732     29.752732     59.505464
     -2.617618     30.721849     30.721849     61.443699
     -2.607608     31.497660     31.497660     62.995320
     -2.597598     32.281565     32.281565     64.563129
     -2.587588     33.136713     33.136713     66.273425
     -2.577578     33.978017     33.978017     67.956033
     -2.567568     34.630344     34.630344     69.260689
     -2.557558     34.894037     34.894037     69.788074
     -2.547548     34.580294     34.580294     69.160587
     -2.537538     33.530097     33.530097     67.060193
     -2.527528     31.655332     31.655332     63.310663
     -2.517518     29.014431     29.014431     58.028861
     -2.507508     25.883432     25.883432     51.766865
     -2.497497     22.757528     22.757528     45.515056
     -2.487487     20.245935     20.245935     40.491870
     -2.477477     18.886466     18.886466     37.772932
     -2.467467     18.960123     18.960123     37.920247
     -2.457457     20.394810     20.394810     40.789621
     -2.447447     22.807068     22.807068     45.614136
     -2.437437     25.665402     25.665402     51.330803
     -2.427427     28.501439     28.501439     57.002878
     -2.417417     31.072129     31.072129     62.144257
     -2.407407     33.397961     33.397961     66.795922
     -2.397397     35.659804     35.659804     71.319609
     -2.387387     38.004882     38.004882     76.009765
     -2.377377     40.359162     40.359162     80.718325
     -2.367367     42.345948     42.345948     84.691896
     -2.357357     43.365130     43.365130     86.730260
     -2.347347     42.812385     42.812385     85.624769
     -2.337337     40.346756     40.346756     80.693511
     -2.327327     36.085079     36.085079     72.170159
     -2.317317     30.631994     30.631994     61.263988
     -2.307307     24.931326     24.931326     49.862652
     -2.297297     20.005821     20.005821     40.011642
     -2.287287     16.692562     16.692562     33.385124
     -2.277277     15.464752     15.464752     30.929504
     -2.267267     16.377680     16.377680     32.755360
     -2.257257     19.124254     19.124254     38.248509
     -2.247247     23.157193     23.157193     46.314387
     -2.237237     27.830610     27.830610     55.661219
     -2.227227     32.521518     32.521518     65.043037
     -2.217217     36.704842     36.704842     73.409685
     -2.207207     39.974978     39.974978     79.949956
     -2.197197     42.031801     42.031801     84.063601
     -2.187187     42.667497     42.667497     85.334995
     -2.177177     41.786430     41.786430     83.572861
     -2.167167     39.458791     39.458791     78.917582
     -2.157157     35.968394     35.968394     71.936788
     -2.147147     31.797843     31.797843     63.595686
     -2.137137     27.521416     27.521416     55.042832
     -2.127127     23.635242     23.635242     47.270484
     -2.117117     20.404590     20.404590     40.809180
     -2.107107     17.809607     17.809607     35.619214
     -2.097097     15.618007     15.618007     31.236015
     -2.087087     13.540892     13.540892     27.081784
     -2.077077     11.385023     11.385023     22.770046
     -2.067067      9.127394      9.127394     18.254788
     -2.057057      6.891638      6.891638     13.783277
     -2.047047      4.861174      4.861174      9.722348
     -2.037037      3.187471      3.187471      6.374943
     -2.027027      1.937510      1.937510      3.875020
     -2.017017      1.091368      1.091368      2.182736
     -2.007007      0.573670      0.573670      1.147339
     -1.996997      0.294099      0.294099      0.588197
     -1.986987      0.179520      0.179520      0.359040
     -1.976977      0.192530      0.192530      0.385060
     -1.966967      0.339340      0.339340      0.678680
     -1.956957      0.670798      0.670798      1.341595
     -1.946947      1.276419      1.276419      2.552839
     -1.936937      2.267347      2.267347      4.534693
     -1.926927      3.744557      3.744557      7.489113
     -1.916917      5.755255      5.755255     11.510510
     -1.906907      8.250404      8.250404     16.500809
     -1.896897     11.062887     11.062887     22.125774
     -1.886887     13.922129     13.922129     27.844259
     -1.876877     16.506735     16.506735     33.013471
     -1.866867     18.519675     18.519675     37.039349
     -1.856857     19.761340     19.761340     39.522680
     -1.846847     20.178183     20.178183     40.356366
     -1.836837     19.873412     19.873412     39.746823
     -1.826827     19.074641     19.074641     38.149282
     -1.816817     18.061658     18.061658     36.123317
     -1.806807     17.070877     17.070877     34.141753
     -1.796797     16.210138     16.210138     32.420276
     -1.786787     15.424896     15.424896     30.849792
     -1.776777     14.539940     14.539940     29.079881
     -1.766767     13.362395     13.362395     26.724790
     -1.756757     11.795600     11.795600     23.591201
     -1.746747      9.906688      9.906688     19.813376
     -1.736737      7.919453      7.919453     15.838906
     -1.726727      6.147304      6.147304     12.294608
     -1.716717      4.907947      4.907947      9.815895
     -1.706707      4.456704      4.456704      8.913407
     -1.696697      4.949333      4.949333      9.898666
     -1.686687      6.422027      6.422027     12.844055
     -1.676677      8.773257      8.773257     17.546514
     -1.666667     11.747873     11.747873     23.495745
     -1.656657     14.941987     14.941987     29.883973
     -1.646647     17.850633     17.850633     35.701266
     -1.636637     19.963990     19.963990     39.927980
     -1.626627     20.891628     20.891628     41.783256
