# EIG2DOS: Utility for SIESTA to obtain the electronic density of states
#  E. Artacho, Apr 1999, A. Garcia, Apr 2012
#  Nick R. Papior, Feb 2017
# ------------------------------------------
# Eigenvalues calculated from a non-polarized calculation
# Eigenvalues read from siesta.EIG
# Kpoint weights read from siesta.KP
# Using smearing parameter:   0.0500
# Using 1000 points in the energy range
# Selected bands: 1 to: 2981
# Emin, Emax in file for selected band(s):    -27.2862143    218.3658000
# Nbands, Nspin, Nk   =   2981     1     1
# E_F                 =    -4.2437 eV --> (shifted to ZERO)
# Broadening          =     0.0500 eV
#
#        E            N(up)  (=)   N(down)         Ntot
     -5.000000     31.795422     31.795422     63.590844
     -4.989990     35.993738     35.993738     71.987475
     -4.979980     39.920111     39.920111     79.840222
     -4.969970     42.991699     42.991699     85.983398
     -4.959960     44.678937     44.678937     89.357873
     -4.949950     44.675294     44.675294     89.350587
     -4.939940     43.009565     43.009565     86.019131
     -4.929930     40.063998     40.063998     80.127997
     -4.919920     36.505944     36.505944     73.011889
     -4.909910     33.168612     33.168612     66.337224
     -4.899900     30.912089     30.912089     61.824178
     -4.889890     30.471768     30.471768     60.943536
     -4.879880     32.289688     32.289688     64.579377
     -4.869870     36.347212     36.347212     72.694425
     -4.859860     42.061601     42.061601     84.123202
     -4.849850     48.330926     48.330926     96.661852
     -4.839840     53.773252     53.773252    107.546503
     -4.829830     57.112653     57.112653    114.225306
     -4.819820     57.570743     57.570743    115.141485
     -4.809810     55.095315     55.095315    110.190630
     -4.799800     50.326114     50.326114    100.652228
     -4.789790     44.325326     44.325326     88.650653
     -4.779780     38.209191     38.209191     76.418382
     -4.769770     32.843099     32.843099     65.686198
     -4.759760     28.700861     28.700861     57.401722
     -4.749750     25.890623     25.890623     51.781245
     -4.739740     24.278324     24.278324     48.556648
     -4.729730     23.624010     23.624010     47.248020
     -4.719720     23.673741     23.673741     47.347482
     -4.709710     24.190056     24.190056     48.380112
     -4.699700     24.936894     24.936894     49.873788
     -4.689690     25.654944     25.654944     51.309888
     -4.679680     26.068077     26.068077     52.136154
     -4.669670     25.945858     25.945858     51.891716
     -4.659660     25.212353     25.212353     50.424705
     -4.649650     24.053023     24.053023     48.106046
     -4.639640     22.952977     22.952977     45.905953
     -4.629630     22.616349     22.616349     45.232698
     -4.619620     23.764100     23.764100     47.528199
     -4.609610     26.865485     26.865485     53.730969
     -4.599600     31.901529     31.901529     63.803058
     -4.589590     38.266253     38.266253     76.532506
     -4.579580     44.873391     44.873391     89.746781
     -4.569570     50.459805     50.459805    100.919610
     -4.559560     53.989114     53.989114    107.978229
     -4.549550     55.001513     55.001513    110.003026
     -4.539540     53.763435     53.763435    107.526870
     -4.529530     51.148518     51.148518    102.297035
     -4.519520     48.295856     48.295856     96.591712
     -4.509510     46.187272     46.187272     92.374543
     -4.499499     45.315502     45.315502     90.631004
     -4.489489     45.567137     45.567137     91.134274
     -4.479479     46.344441     46.344441     92.688882
     -4.469469     46.848836     46.848836     93.697672
     -4.459459     46.392691     46.392691     92.785382
     -4.449449     44.615951     44.615951     89.231903
     -4.439439     41.546902     41.546902     83.093803
     -4.429429     37.524837     37.524837     75.049674
     -4.419419     33.056107     33.056107     66.112214
     -4.409409     28.680749     28.680749     57.361499
     -4.399399     24.890261     24.890261     49.780523
     -4.389389     22.087827     22.087827     44.175654
     -4.379379     20.555890     20.555890     41.111781
     -4.369369     20.408608     20.408608     40.817216
     -4.359359     21.543827     21.543827     43.087655
     -4.349349     23.636776     23.636776     47.273551
     -4.339339     26.209634     26.209634     52.419267
     -4.329329     28.770722     28.770722     57.541444
     -4.319319     30.972746     30.972746     61.945493
     -4.309309     32.722019     32.722019     65.444037
     -4.299299     34.189440     34.189440     68.378880
     -4.289289     35.714816     35.714816     71.429632
     -4.279279     37.636269     37.636269     75.272538
     -4.269269     40.102863     40.102863     80.205726
     -4.259259     42.939520     42.939520     85.879041
     -4.249249     45.627613     45.627613     91.255227
     -4.239239     47.434621     47.434621     94.869243
     -4.229229     47.668193     47.668193     95.336385
     -4.219219     45.961762     45.961762     91.923523
     -4.209209     42.461419     42.461419     84.922838
     -4.199199     37.813463     37.813463     75.626926
     -4.189189     32.945821     32.945821     65.891643
     -4.179179     28.743047     28.743047     57.486094
     -4.169169     25.767647     25.767647     51.535295
     -4.159159     24.147933     24.147933     48.295867
     -4.149149     23.659089     23.659089     47.318179
     -4.139139     23.929116     23.929116     47.858232
     -4.129129     24.654359     24.654359     49.308719
     -4.119119     25.722545     25.722545     51.445089
     -4.109109     27.195119     27.195119     54.390237
     -4.099099     29.167507     29.167507     58.335015
     -4.089089     31.583457     31.583457     63.166913
     -4.079079     34.108687     34.108687     68.217373
     -4.069069     36.151442     36.151442     72.302885
     -4.059059     37.048794     37.048794     74.097588
     -4.049049     36.344632     36.344632     72.689264
     -4.039039     34.022009     34.022009     68.044018
     -4.029029     30.565025     30.565025     61.130049
     -4.019019     26.813567     26.813567     53.627134
     -4.009009     23.684689     23.684689     47.369379
     -3.998999     21.897596     21.897596     43.795191
     -3.988989     21.819266     21.819266     43.638533
     -3.978979     23.465952     23.465952     46.931904
     -3.968969     26.610834     26.610834     53.221668
     -3.958959     30.912359     30.912359     61.824719
     -3.948949     36.002475     36.002475     72.004951
     -3.938939     41.527599     41.527599     83.055197
     -3.928929     47.171369     47.171369     94.342739
     -3.918919     52.682614     52.682614    105.365228
     -3.908909     57.898504     57.898504    115.797007
     -3.898899     62.729159     62.729159    125.458317
     -3.888889     67.083202     67.083202    134.166404
     -3.878879     70.758105     70.758105    141.516210
     -3.868869     73.360693     73.360693    146.721385
     -3.858859     74.327318     74.327318    148.654636
     -3.848849     73.070192     73.070192    146.140383
     -3.838839     69.207928     69.207928    138.415856
     -3.828829     62.783650     62.783650    125.567300
     -3.818819     54.365935     54.365935    108.731869
     -3.808809     44.973714     44.973714     89.947427
     -3.798799     35.842529     35.842529     71.685057
     -3.788789     28.116185     28.116185     56.232370
     -3.778779     22.572386     22.572386     45.144772
     -3.768769     19.467262     19.467262     38.934523
     -3.758759     18.531905     18.531905     37.063811
     -3.748749     19.102933     19.102933     38.205866
     -3.738739     20.337425     20.337425     40.674850
     -3.728729     21.452491     21.452491     42.904982
     -3.718719     21.933225     21.933225     43.866450
     -3.708709     21.662621     21.662621     43.325242
     -3.698699     20.941222     20.941222     41.882444
     -3.688689     20.384977     20.384977     40.769954
     -3.678679     20.718724     20.718724     41.437449
     -3.668669     22.516821     22.516821     45.033642
     -3.658659     25.971061     25.971061     51.942121
     -3.648649     30.772450     30.772450     61.544900
     -3.638639     36.163266     36.163266     72.326533
     -3.628629     41.151353     41.151353     82.302706
     -3.618619     44.806582     44.806582     89.613164
     -3.608609     46.520934     46.520934     93.041868
     -3.598599     46.135584     46.135584     92.271169
     -3.588589     43.908811     43.908811     87.817623
     -3.578579     40.371662     40.371662     80.743324
     -3.568569     36.149859     36.149859     72.299718
     -3.558559     31.812621     31.812621     63.625241
     -3.548549     27.771696     27.771696     55.543393
     -3.538539     24.231567     24.231567     48.463135
     -3.528529     21.191715     21.191715     42.383430
     -3.518519     18.504278     18.504278     37.008556
     -3.508509     15.976563     15.976563     31.953125
     -3.498498     13.483159     13.483159     26.966319
     -3.488488     11.040375     11.040375     22.080751
     -3.478478      8.811602      8.811602     17.623203
     -3.468468      7.046810      7.046810     14.093619
     -3.458458      5.988034      5.988034     11.976069
     -3.448448      5.779216      5.779216     11.558432
     -3.438438      6.407430      6.407430     12.814861
     -3.428428      7.688866      7.688866     15.377732
     -3.418418      9.305435      9.305435     18.610870
     -3.408408     10.891199     10.891199     21.782398
     -3.398398     12.152747     12.152747     24.305493
     -3.388388     12.986532     12.986532     25.973064
     -3.378378     13.544822     13.544822     27.089644
     -3.368368     14.215251     14.215251     28.430502
     -3.358358     15.514356     15.514356     31.028711
     -3.348348     17.931070     17.931070     35.862141
     -3.338338     21.769092     21.769092     43.538185
     -3.328328     27.024424     27.024424     54.048848
     -3.318318     33.315911     33.315911     66.631821
     -3.308308     39.883637     39.883637     79.767274
     -3.298298     45.680276     45.680276     91.360553
     -3.288288     49.576165     49.576165     99.152330
     -3.278278     50.656025     50.656025    101.312051
     -3.268268     48.517986     48.517986     97.035971
     -3.258258     43.445730     43.445730     86.891460
     -3.248248     36.358774     36.358774     72.717548
     -3.238238     28.546943     28.546943     57.093886
     -3.228228     21.299921     21.299921     42.599841
     -3.218218     15.582194     15.582194     31.164388
     -3.208208     11.859499     11.859499     23.718997
     -3.198198     10.097185     10.097185     20.194370
     -3.188188      9.884288      9.884288     19.768576
     -3.178178     10.618606     10.618606     21.237211
     -3.168168     11.702441     11.702441     23.404883
     -3.158158     12.713700     12.713700     25.427400
     -3.148148     13.517938     13.517938     27.035876
     -3.138138     14.285899     14.285899     28.571798
     -3.128128     15.398093     15.398093     30.796186
     -3.118118     17.257684     17.257684     34.515367
     -3.108108     20.077408     20.077408     40.154816
     -3.098098     23.728472     23.728472     47.456944
     -3.088088     27.722166     27.722166     55.444331
     -3.078078     31.341696     31.341696     62.683392
     -3.068068     33.874840     33.874840     67.749681
     -3.058058     34.849146     34.849146     69.698292
     -3.048048     34.167510     34.167510     68.335021
     -3.038038     32.089843     32.089843     64.179686
     -3.028028     29.084235     29.084235     58.168470
     -3.018018     25.635533     25.635533     51.271067
     -3.008008     22.111854     22.111854     44.223708
     -2.997998     18.743789     18.743789     37.487579
     -2.987988     15.698780     15.698780     31.397559
     -2.977978     13.181549     13.181549     26.363097
     -2.967968     11.488431     11.488431     22.976863
     -2.957958     10.980486     10.980486     21.960972
     -2.947948     11.986334     11.986334     23.972668
     -2.937938     14.674942     14.674942     29.349885
     -2.927928     18.945966     18.945966     37.891933
     -2.917918     24.379414     24.379414     48.758828
     -2.907908     30.273410     30.273410     60.546821
     -2.897898     35.776625     35.776625     71.553250
     -2.887888     40.088731     40.088731     80.177462
     -2.877878     42.667711     42.667711     85.335423
     -2.867868     43.366566     43.366566     86.733131
     -2.857858     42.440317     42.440317     84.880634
     -2.847848     40.415457     40.415457     80.830913
     -2.837838     37.875442     37.875442     75.750883
     -2.827828     35.255558     35.255558     70.511116
     -2.817818     32.735495     32.735495     65.470990
     -2.807808     30.268668     30.268668     60.537337
     -2.797798     27.718371     27.718371     55.436742
     -2.787788     25.018570     25.018570     50.037140
     -2.777778     22.269721     22.269721     44.539442
     -2.767768     19.721156     19.721156     39.442312
     -2.757758     17.658283     17.658283     35.316566
     -2.747748     16.267230     16.267230     32.534459
     -2.737738     15.560372     15.560372     31.120743
     -2.727728     15.406577     15.406577     30.813155
     -2.717718     15.643034     15.643034     31.286068
     -2.707708     16.192200     16.192200     32.384399
     -2.697698     17.102761     17.102761     34.205522
     -2.687688     18.483298     18.483298     36.966596
     -2.677678     20.371441     20.371441     40.742883
     -2.667668     22.630374     22.630374     45.260748
     -2.657658     24.952442     24.952442     49.904884
     -2.647648     26.980583     26.980583     53.961166
     -2.637638     28.477422     28.477422     56.954845
     -2.627628     29.436099     29.436099     58.872198
     -2.617618     30.063309     30.063309     60.126618
     -2.607608     30.648707     30.648707     61.297413
     -2.597598     31.405206     31.405206     62.810411
     -2.587588     32.372110     32.372110     64.744220
     -2.577578     33.417658     33.417658     66.835315
     -2.567568     34.308186     34.308186     68.616372
     -2.557558     34.782773     34.782773     69.565547
     -2.547548     34.599564     34.599564     69.199128
     -2.537538     33.567926     33.567926     67.135851
     -2.527528     31.599578     31.599578     63.199155
     -2.517518     28.784146     28.784146     57.568292
     -2.507508     25.448789     25.448789     50.897579
     -2.497497     22.143344     22.143344     44.286687
     -2.487487     19.522780     19.522780     39.045560
     -2.477477     18.157610     18.157610     36.315220
     -2.467467     18.349493     18.349493     36.698985
     -2.457457     20.034668     20.034668     40.069337
     -2.447447     22.820871     22.820871     45.641743
     -2.437437     26.144247     26.144247     52.288494
     -2.427427     29.478793     29.478793     58.957587
     -2.417417     32.505457     32.505457     65.010913
     -2.407407     35.164337     35.164337     70.328675
     -2.397397     37.567582     37.567582     75.135164
     -2.387387     39.819315     39.819315     79.638631
     -2.377377     41.838630     41.838630     83.677260
     -2.367367     43.285108     43.285108     86.570216
     -2.357357     43.638718     43.638718     87.277437
     -2.347347     42.408632     42.408632     84.817263
     -2.337337     39.377065     39.377065     78.754129
     -2.327327     34.761658     34.761658     69.523316
     -2.317317     29.217239     29.217239     58.434479
     -2.307307     23.675268     23.675268     47.350537
     -2.297297     19.092857     19.092857     38.185714
     -2.287287     16.213273     16.213273     32.426546
     -2.277277     15.417049     15.417049     30.834098
     -2.267267     16.690640     16.690640     33.381280
     -2.257257     19.692089     19.692089     39.384178
     -2.247247     23.870087     23.870087     47.740175
     -2.237237     28.592583     28.592583     57.185166
     -2.227227     33.252210     33.252210     66.504421
     -2.217217     37.330573     37.330573     74.661146
     -2.207207     40.420564     40.420564     80.841128
     -2.197197     42.223890     42.223890     84.447780
     -2.187187     42.551883     42.551883     85.103766
     -2.177177     41.350996     41.350996     82.701993
     -2.167167     38.747972     38.747972     77.495944
     -2.157157     35.078398     35.078398     70.156795
     -2.147147     30.852094     30.852094     61.704188
     -2.137137     26.636127     26.636127     53.272254
     -2.127127     22.889681     22.889681     45.779361
     -2.117117     19.827546     19.827546     39.655092
     -2.107107     17.385165     17.385165     34.770330
     -2.097097     15.304909     15.304909     30.609818
     -2.087087     13.294939     13.294939     26.589878
     -2.077077     11.174913     11.174913     22.349826
     -2.067067      8.939669      8.939669     17.879338
     -2.057057      6.726457      6.726457     13.452913
     -2.047047      4.724184      4.724184      9.448369
     -2.037037      3.083002      3.083002      6.166004
     -2.027027      1.865844      1.865844      3.731689
     -2.017017      1.050278      1.050278      2.100556
     -2.007007      0.563240      0.563240      1.126481
     -1.996997      0.324443      0.324443      0.648885
     -1.986987      0.282241      0.282241      0.564482
     -1.976977      0.437275      0.437275      0.874550
     -1.966967      0.854996      0.854996      1.709991
     -1.956957      1.666206      1.666206      3.332413
     -1.946947      3.049019      3.049019      6.098038
     -1.936937      5.183551      5.183551     10.367102
     -1.926927      8.178578      8.178578     16.357155
     -1.916917     11.987365     11.987365     23.974730
     -1.906907     16.348666     16.348666     32.697332
     -1.896897     20.792794     20.792794     41.585588
     -1.886887     24.731098     24.731098     49.462196
     -1.876877     27.606809     27.606809     55.213617
     -1.866867     29.050181     29.050181     58.100362
     -1.856857     28.975945     28.975945     57.951890
     -1.846847     27.590148     27.590148     55.180296
     -1.836837     25.315157     25.315157     50.630314
     -1.826827     22.668202     22.668202     45.336405
     -1.816817     20.130836     20.130836     40.261672
     -1.806807     18.036974     18.036974     36.073948
     -1.796797     16.502031     16.502031     33.004063
     -1.786787     15.414845     15.414845     30.829689
     -1.776777     14.503402     14.503402     29.006803
     -1.766767     13.457551     13.457551     26.915103
     -1.756757     12.060649     12.060649     24.121298
     -1.746747     10.272599     10.272599     20.545198
     -1.736737      8.231128      8.231128     16.462256
     -1.726727      6.182278      6.182278     12.364557
     -1.716717      4.385505      4.385505      8.771010
     -1.706707      3.042297      3.042297      6.084593
     -1.696697      2.272144      2.272144      4.544288
     -1.686687      2.126299      2.126299      4.252599
     -1.676677      2.609700      2.609700      5.219401
     -1.666667      3.684134      3.684134      7.368268
     -1.656657      5.246325      5.246325     10.492649
     -1.646647      7.099442      7.099442     14.198884
     -1.636637      8.950308      8.950308     17.900616
     -1.626627     10.457322     10.457322     20.914643
