# EIG2DOS: Utility for SIESTA to obtain the electronic density of states
#  E. Artacho, Apr 1999, A. Garcia, Apr 2012
#  Nick R. Papior, Feb 2017
# ------------------------------------------
# Eigenvalues calculated from a non-polarized calculation
# Eigenvalues read from siesta.EIG
# Kpoint weights read from siesta.KP
# Using smearing parameter:   0.0500
# Using 1000 points in the energy range
# Selected bands: 1 to: 2981
# Emin, Emax in file for selected band(s):    -27.0938426    218.3355680
# Nbands, Nspin, Nk   =   2981     1     1
# E_F                 =    -4.2712 eV --> (shifted to ZERO)
# Broadening          =     0.0500 eV
#
#        E            N(up)  (=)   N(down)         Ntot
     -5.000000     37.275177     37.275177     74.550354
     -4.989990     39.862539     39.862539     79.725078
     -4.979980     42.178152     42.178152     84.356303
     -4.969970     43.704497     43.704497     87.408995
     -4.959960     44.038839     44.038839     88.077678
     -4.949950     43.021483     43.021483     86.042966
     -4.939940     40.785666     40.785666     81.571331
     -4.929930     37.733121     37.733121     75.466243
     -4.919920     34.465392     34.465392     68.930785
     -4.909910     31.698943     31.698943     63.397885
     -4.899900     30.168212     30.168212     60.336424
     -4.889890     30.498467     30.498467     60.996934
     -4.879880     33.036778     33.036778     66.073556
     -4.869870     37.672230     37.672230     75.344460
     -4.859860     43.728868     43.728868     87.457737
     -4.849850     50.028652     50.028652    100.057304
     -4.839840     55.164663     55.164663    110.329326
     -4.829830     57.915326     57.915326    115.830652
     -4.819820     57.634880     57.634880    115.269759
     -4.809810     54.443976     54.443976    108.887953
     -4.799800     49.135795     49.135795     98.271591
     -4.789790     42.854778     42.854778     85.709556
     -4.779780     36.708602     36.708602     73.417205
     -4.769770     31.479740     31.479740     62.959479
     -4.759760     27.521209     27.521209     55.042419
     -4.749750     24.816674     24.816674     49.633349
     -4.739740     23.122285     23.122285     46.244570
     -4.729730     22.107012     22.107012     44.214024
     -4.719720     21.445896     21.445896     42.891792
     -4.709710     20.861571     20.861571     41.723142
     -4.699700     20.134385     20.134385     40.268769
     -4.689690     19.108850     19.108850     38.217700
     -4.679680     17.717392     17.717392     35.434784
     -4.669670     16.024390     16.024390     32.048781
     -4.659660     14.271618     14.271618     28.543237
     -4.649650     12.892511     12.892511     25.785023
     -4.639640     12.466081     12.466081     24.932162
     -4.629630     13.599752     13.599752     27.199503
     -4.619620     16.755326     16.755326     33.510653
     -4.609610     22.057627     22.057627     44.115253
     -4.599600     29.148143     29.148143     58.296286
     -4.589590     37.157143     37.157143     74.314285
     -4.579580     44.849319     44.849319     89.698638
     -4.569570     50.938776     50.938776    101.877553
     -4.559560     54.485357     54.485357    108.970713
     -4.549550     55.221574     55.221574    110.443148
     -4.539540     53.664181     53.664181    107.328363
     -4.529530     50.946409     50.946409    101.892818
     -4.519520     48.426997     48.426997     96.853993
     -4.509510     47.226982     47.226982     94.453964
     -4.499499     47.868566     47.868566     95.737131
     -4.489489     50.138517     50.138517    100.277035
     -4.479479     53.204410     53.204410    106.408819
     -4.469469     55.920046     55.920046    111.840093
     -4.459459     57.200071     57.200071    114.400142
     -4.449449     56.335974     56.335974    112.671948
     -4.439439     53.162272     53.162272    106.324544
     -4.429429     48.045555     48.045555     96.091111
     -4.419419     41.734426     41.734426     83.468851
     -4.409409     35.147381     35.147381     70.294763
     -4.399399     29.173304     29.173304     58.346607
     -4.389389     24.524695     24.524695     49.049390
     -4.379379     21.646383     21.646383     43.292766
     -4.369369     20.668277     20.668277     41.336553
     -4.359359     21.401852     21.401852     42.803703
     -4.349349     23.394270     23.394270     46.788540
     -4.339339     26.047816     26.047816     52.095632
     -4.329329     28.783576     28.783576     57.567151
     -4.319319     31.198101     31.198101     62.396203
     -4.309309     33.155286     33.155286     66.310572
     -4.299299     34.779798     34.779798     69.559595
     -4.289289     36.357646     36.357646     72.715291
     -4.279279     38.181146     38.181146     76.362292
     -4.269269     40.389013     40.389013     80.778025
     -4.259259     42.852579     42.852579     85.705158
     -4.249249     45.153195     45.153195     90.306391
     -4.239239     46.678991     46.678991     93.357981
     -4.229229     46.830420     46.830420     93.660840
     -4.219219     45.267584     45.267584     90.535168
     -4.209209     42.089513     42.089513     84.179025
     -4.199199     37.846513     37.846513     75.693026
     -4.189189     33.361972     33.361972     66.723943
     -4.179179     29.441155     29.441155     58.882310
     -4.169169     26.606808     26.606808     53.213616
     -4.159159     24.983374     24.983374     49.966748
     -4.149149     24.367200     24.367200     48.734401
     -4.139139     24.423978     24.423978     48.847957
     -4.129129     24.900028     24.900028     49.800056
     -4.119119     25.740249     25.740249     51.480499
     -4.109109     27.058787     27.058787     54.117574
     -4.099099     28.981619     28.981619     57.963238
     -4.089089     31.446181     31.446181     62.892361
     -4.079079     34.075125     34.075125     68.150250
     -4.069069     36.216781     36.216781     72.433562
     -4.059059     37.162750     37.162750     74.325499
     -4.049049     36.450036     36.450036     72.900073
     -4.039039     34.093977     34.093977     68.187953
     -4.029029     30.625516     30.625516     61.251032
     -4.019019     26.911868     26.911868     53.823737
     -4.009009     23.857117     23.857117     47.714234
     -3.998999     22.133654     22.133654     44.267308
     -3.988989     22.056845     22.056845     44.113690
     -3.978979     23.618651     23.618651     47.237302
     -3.968969     26.610076     26.610076     53.220151
     -3.958959     30.739322     30.739322     61.478644
     -3.948949     35.693704     35.693704     71.387409
     -3.938939     41.155502     41.155502     82.311004
     -3.928929     46.814111     46.814111     93.628222
     -3.918919     52.399645     52.399645    104.799290
     -3.908909     57.719974     57.719974    115.439949
     -3.898899     62.657477     62.657477    125.314955
     -3.888889     67.099822     67.099822    134.199645
     -3.878879     70.829706     70.829706    141.659411
     -3.868869     73.443379     73.443379    146.886759
     -3.858859     74.371294     74.371294    148.742587
     -3.848849     73.028039     73.028039    146.056078
     -3.838839     69.047010     69.047010    138.094020
     -3.828829     62.499028     62.499028    124.998056
     -3.818819     53.987566     53.987566    107.975133
     -3.808809     44.562660     44.562660     89.125319
     -3.798799     35.475418     35.475418     70.950836
     -3.788789     27.862668     27.862668     55.725335
     -3.778779     22.473649     22.473649     44.947299
     -3.768769     19.523350     19.523350     39.046699
     -3.758759     18.702161     18.702161     37.404322
     -3.748749     19.319286     19.319286     38.638571
     -3.738739     20.526231     20.526231     41.052463
     -3.728729     21.558179     21.558179     43.116359
     -3.718719     21.936463     21.936463     43.872926
     -3.708709     21.587097     21.587097     43.174195
     -3.698699     20.846150     20.846150     41.692300
     -3.688689     20.344622     20.344622     40.689244
     -3.678679     20.794856     20.794856     41.589712
     -3.668669     22.733569     22.733569     45.467138
     -3.658659     26.302359     26.302359     52.604717
     -3.648649     31.148437     31.148437     62.296874
     -3.638639     36.494232     36.494232     72.988463
     -3.628629     41.359353     41.359353     82.718706
     -3.618619     44.850799     44.850799     89.701597
     -3.608609     46.406262     46.406262     92.812523
     -3.598599     45.903096     45.903096     91.806192
     -3.588589     43.615744     43.615744     87.231487
     -3.578579     40.071694     40.071694     80.143389
     -3.568569     35.880773     35.880773     71.761546
     -3.558559     31.592079     31.592079     63.184157
     -3.548549     27.598144     27.598144     55.196288
     -3.538539     24.087882     24.087882     48.175765
     -3.528529     21.051622     21.051622     42.103244
     -3.518519     18.342075     18.342075     36.684150
     -3.508509     15.778465     15.778465     31.556929
     -3.498498     13.255989     13.255989     26.511979
     -3.488488     10.813324     10.813324     21.626647
     -3.478478      8.629680      8.629680     17.259359
     -3.468468      6.958167      6.958167     13.916334
     -3.458458      6.029071      6.029071     12.058141
     -3.448448      5.961225      5.961225     11.922450
     -3.438438      6.707862      6.707862     13.415724
     -3.428428      8.050186      8.050186     16.100372
     -3.418418      9.643901      9.643901     19.287802
     -3.408408     11.114759     11.114759     22.229517
     -3.398398     12.181757     12.181757     24.363513
     -3.388388     12.766290     12.766290     25.532581
     -3.378378     13.039276     13.039276     26.078552
     -3.368368     13.378520     13.378520     26.757039
     -3.358358     14.248340     14.248340     28.496681
     -3.348348     16.047994     16.047994     32.095989
     -3.338338     18.982193     18.982193     37.964386
     -3.328328     22.985082     22.985082     45.970164
     -3.318318     27.700738     27.700738     55.401476
     -3.308308     32.513162     32.513162     65.026324
     -3.298298     36.629502     36.629502     73.259003
     -3.288288     39.228053     39.228053     78.456106
     -3.278278     39.661692     39.661692     79.323384
     -3.268268     37.661320     37.661320     75.322639
     -3.258258     33.450503     33.450503     66.901006
     -3.248248     27.701711     27.701711     55.403422
     -3.238238     21.337231     21.337231     42.674463
     -3.228228     15.258398     15.258398     30.516796
     -3.218218     10.119545     10.119545     20.239090
     -3.208208      6.228891      6.228891     12.457783
     -3.198198      3.586726      3.586726      7.173451
     -3.188188      2.011154      2.011154      4.022308
     -3.178178      1.283175      1.283175      2.566351
     -3.168168      1.260865      1.260865      2.521730
     -3.158158      1.941332      1.941332      3.882664
     -3.148148      3.467145      3.467145      6.934290
     -3.138138      6.077471      6.077471     12.154943
     -3.128128     10.005182     10.005182     20.010363
     -3.118118     15.333681     15.333681     30.667362
     -3.108108     21.853682     21.853682     43.707364
     -3.098098     28.985386     28.985386     57.970772
     -3.088088     35.830345     35.830345     71.660689
     -3.078078     41.373529     41.373529     82.747058
     -3.068068     44.781521     44.781521     89.563042
     -3.058058     45.677732     45.677732     91.355465
     -3.048048     44.266006     44.266006     88.532013
     -3.038038     41.236769     41.236769     82.473538
     -3.028028     37.495234     37.495234     74.990467
     -3.018018     33.838530     33.838530     67.677060
     -3.008008     30.727272     30.727272     61.454544
     -2.997998     28.239909     28.239909     56.479819
     -2.987988     26.203134     26.203134     52.406268
     -2.977978     24.412544     24.412544     48.825089
     -2.967968     22.829734     22.829734     45.659468
     -2.957958     21.667052     21.667052     43.334105
     -2.947948     21.327995     21.327995     42.655991
     -2.937938     22.232815     22.232815     44.465631
     -2.927928     24.604630     24.604630     49.209260
     -2.917918     28.307921     28.307921     56.615843
     -2.907908     32.813254     32.813254     65.626507
     -2.897898     37.313712     37.313712     74.627425
     -2.887888     40.956480     40.956480     81.912959
     -2.877878     43.102274     43.102274     86.204548
     -2.867868     43.509660     43.509660     87.019320
     -2.857858     42.370420     42.370420     84.740840
     -2.847848     40.185664     40.185664     80.371329
     -2.837838     37.541929     37.541929     75.083858
     -2.827828     34.889234     34.889234     69.778469
     -2.817818     32.417425     32.417425     64.834851
     -2.807808     30.075210     30.075210     60.150421
     -2.797798     27.704061     27.704061     55.408121
     -2.787788     25.203729     25.203729     50.407457
     -2.777778     22.636552     22.636552     45.273103
     -2.767768     20.218407     20.218407     40.436815
     -2.757758     18.212041     18.212041     36.424082
     -2.747748     16.794786     16.794786     33.589572
     -2.737738     15.984739     15.984739     31.969477
     -2.727728     15.669778     15.669778     31.339555
     -2.717718     15.716099     15.716099     31.432198
     -2.707708     16.079633     16.079633     32.159266
     -2.697698     16.840187     16.840187     33.680375
     -2.687688     18.129199     18.129199     36.258399
     -2.677678     19.995945     19.995945     39.991891
     -2.667668     22.304375     22.304375     44.608750
     -2.657658     24.738861     24.738861     49.477721
     -2.647648     26.927654     26.927654     53.855307
     -2.637638     28.613084     28.613084     57.226167
     -2.627628     29.763215     29.763215     59.526430
     -2.617618     30.556777     30.556777     61.113553
     -2.607608     31.256427     31.256427     62.512855
     -2.597598     32.054643     32.054643     64.109285
     -2.587588     32.982508     32.982508     65.965015
     -2.577578     33.915429     33.915429     67.830858
     -2.567568     34.640948     34.640948     69.281895
     -2.557558     34.927729     34.927729     69.855459
     -2.547548     34.564733     34.564733     69.129466
     -2.537538     33.388236     33.388236     66.776472
     -2.527528     31.331221     31.331221     62.662441
     -2.517518     28.498694     28.498694     56.997387
     -2.507508     25.225273     25.225273     50.450545
     -2.497497     22.055158     22.055158     44.110317
     -2.487487     19.618830     19.618830     39.237660
     -2.477477     18.442300     18.442300     36.884601
     -2.467467     18.770467     18.770467     37.540935
     -2.457457     20.487086     20.487086     40.974172
     -2.447447     23.171325     23.171325     46.342651
     -2.437437     26.268513     26.268513     52.537027
     -2.427427     29.300241     29.300241     58.600482
     -2.417417     32.019690     32.019690     64.039380
     -2.407407     34.441353     34.441353     68.882706
     -2.397397     36.731849     36.731849     73.463698
     -2.387387     39.015597     39.015597     78.031194
     -2.377377     41.194277     41.194277     82.388554
     -2.367367     42.878926     42.878926     85.757852
     -2.357357     43.484367     43.484367     86.968735
     -2.347347     42.457208     42.457208     84.914416
     -2.337337     39.538073     39.538073     79.076145
     -2.327327     34.934727     34.934727     69.869455
     -2.317317     29.322341     29.322341     58.644682
     -2.307307     23.670549     23.670549     47.341099
     -2.297297     18.976256     18.976256     37.952512
     -2.287287     16.012059     16.012059     32.024119
     -2.277277     15.173177     15.173177     30.346354
     -2.267267     16.448121     16.448121     32.896242
     -2.257257     19.488527     19.488527     38.977055
     -2.247247     23.731877     23.731877     47.463754
     -2.237237     28.533086     28.533086     57.066173
     -2.227227     33.272785     33.272785     66.545571
     -2.217217     37.423835     37.423835     74.847669
     -2.207207     40.574111     40.574111     81.148223
     -2.197197     42.422641     42.422641     84.845283
     -2.187187     42.778779     42.778779     85.557558
     -2.177177     41.587659     41.587659     83.175318
     -2.167167     38.976898     38.976898     77.953795
     -2.157157     35.286219     35.286219     70.572438
     -2.147147     31.031517     31.031517     62.063034
     -2.137137     26.784534     26.784534     53.569067
     -2.127127     23.005062     23.005062     46.010124
     -2.117117     19.904947     19.904947     39.809895
     -2.107107     17.416808     17.416808     34.833616
     -2.097097     15.284407     15.284407     30.568814
     -2.087087     13.222815     13.222815     26.445629
     -2.077077     11.061545     11.061545     22.123091
     -2.067067      8.803533      8.803533     17.607065
     -2.057057      6.588618      6.588618     13.177235
     -2.047047      4.602083      4.602083      9.204165
     -2.037037      2.986401      2.986401      5.972802
     -2.027027      1.795935      1.795935      3.591871
     -2.017017      1.000735      1.000735      2.001469
     -2.007007      0.520679      0.520679      1.041358
     -1.996997      0.265425      0.265425      0.530850
     -1.986987      0.164384      0.164384      0.328767
     -1.976977      0.183199      0.183199      0.366397
     -1.966967      0.330464      0.330464      0.660928
     -1.956957      0.658584      0.658584      1.317169
     -1.946947      1.258385      1.258385      2.516770
     -1.936937      2.242976      2.242976      4.485951
     -1.926927      3.716691      3.716691      7.433382
     -1.916917      5.731423      5.731423     11.462845
     -1.906907      8.242817      8.242817     16.485634
     -1.896897     11.085906     11.085906     22.171811
     -1.886887     13.987046     13.987046     27.974093
     -1.876877     16.615503     16.615503     33.231005
     -1.866867     18.660830     18.660830     37.321661
     -1.856857     19.911625     19.911625     39.823249
     -1.846847     20.311716     20.311716     40.623432
     -1.836837     19.977701     19.977701     39.955402
     -1.826827     19.170778     19.170778     38.341557
     -1.816817     18.225801     18.225801     36.451601
     -1.806807     17.454465     17.454465     34.908931
     -1.796797     17.054797     17.054797     34.109594
     -1.786787     17.063255     17.063255     34.126510
     -1.776777     17.368327     17.368327     34.736654
     -1.766767     17.771879     17.771879     35.543758
     -1.756757     18.060248     18.060248     36.120496
     -1.746747     18.051165     18.051165     36.102330
     -1.736737     17.610973     17.610973     35.221947
     -1.726727     16.662934     16.662934     33.325868
     -1.716717     15.207865     15.207865     30.415729
     -1.706707     13.354555     13.354555     26.709109
     -1.696697     11.333714     11.333714     22.667429
     -1.686687      9.468341      9.468341     18.936682
     -1.676677      8.096060      8.096060     16.192120
     -1.666667      7.466866      7.466866     14.933732
     -1.656657      7.654407      7.654407     15.308815
     -1.646647      8.515794      8.515794     17.031588
     -1.636637      9.719589      9.719589     19.439177
     -1.626627     10.840484     10.840484     21.680968
