# EIG2DOS: Utility for SIESTA to obtain the electronic density of states
#  E. Artacho, Apr 1999, A. Garcia, Apr 2012
#  Nick R. Papior, Feb 2017
# ------------------------------------------
# Eigenvalues calculated from a non-polarized calculation
# Eigenvalues read from siesta.EIG
# Kpoint weights read from siesta.KP
# Using smearing parameter:   0.0500
# Using 1000 points in the energy range
# Selected bands: 1 to: 2981
# Emin, Emax in file for selected band(s):    -27.2807452    218.3769000
# Nbands, Nspin, Nk   =   2981     1     1
# E_F                 =    -4.2284 eV --> (shifted to ZERO)
# Broadening          =     0.0500 eV
#
#        E            N(up)  (=)   N(down)         Ntot
     -5.000000     32.704982     32.704982     65.409965
     -4.989990     37.388555     37.388555     74.777110
     -4.979980     41.629477     41.629477     83.258954
     -4.969970     44.718624     44.718624     89.437248
     -4.959960     46.094245     46.094245     92.188491
     -4.949950     45.527247     45.527247     91.054493
     -4.939940     43.202333     43.202333     86.404665
     -4.929930     39.678191     39.678191     79.356382
     -4.919920     35.763683     35.763683     71.527366
     -4.909910     32.364703     32.364703     64.729406
     -4.899900     30.334131     30.334131     60.668262
     -4.889890     30.323991     30.323991     60.647982
     -4.879880     32.631882     32.631882     65.263764
     -4.869870     37.065087     37.065087     74.130174
     -4.859860     42.888005     42.888005     85.776011
     -4.849850     48.925274     48.925274     97.850548
     -4.839840     53.839044     53.839044    107.678087
     -4.829830     56.507017     56.507017    113.014033
     -4.819820     56.356602     56.356602    112.713205
     -4.809810     53.512778     53.512778    107.025556
     -4.799800     48.699656     48.699656     97.399313
     -4.789790     42.951711     42.951711     85.903421
     -4.779780     37.271683     37.271683     74.543365
     -4.769770     32.375238     32.375238     64.750477
     -4.759760     28.596455     28.596455     57.192910
     -4.749750     25.942101     25.942101     51.884202
     -4.739740     24.226107     24.226107     48.452214
     -4.729730     23.207368     23.207368     46.414736
     -4.719720     22.680168     22.680168     45.360335
     -4.709710     22.502188     22.502188     45.004376
     -4.699700     22.574066     22.574066     45.148133
     -4.689690     22.801540     22.801540     45.603080
     -4.679680     23.074880     23.074880     46.149760
     -4.669670     23.289401     23.289401     46.578802
     -4.659660     23.407876     23.407876     46.815752
     -4.649650     23.538582     23.538582     47.077164
     -4.639640     23.982308     23.982308     47.964617
     -4.629630     25.198958     25.198958     50.397916
     -4.619620     27.668128     27.668128     55.336256
     -4.609610     31.668674     31.668674     63.337348
     -4.599600     37.061916     37.061916     74.123833
     -4.589590     43.195810     43.195810     86.391621
     -4.579580     49.018387     49.018387     98.036773
     -4.569570     53.395928     53.395928    106.791855
     -4.559560     55.518914     55.518914    111.037828
     -4.549550     55.215004     55.215004    110.430009
     -4.539540     53.018606     53.018606    106.037212
     -4.529530     49.959022     49.959022     99.918044
     -4.519520     47.161412     47.161412     94.322825
     -4.509510     45.435729     45.435729     90.871459
     -4.499499     45.021541     45.021541     90.043082
     -4.489489     45.574301     45.574301     91.148601
     -4.479479     46.368629     46.368629     92.737258
     -4.469469     46.609449     46.609449     93.218898
     -4.459459     45.715596     45.715596     91.431193
     -4.449449     43.475607     43.475607     86.951215
     -4.439439     40.047276     40.047276     80.094551
     -4.429429     35.843521     35.843521     71.687042
     -4.419419     31.383814     31.383814     62.767628
     -4.409409     27.179553     27.179553     54.359105
     -4.399399     23.676739     23.676739     47.353477
     -4.389389     21.232845     21.232845     42.465691
     -4.379379     20.088797     20.088797     40.177593
     -4.369369     20.319930     20.319930     40.639860
     -4.359359     21.789896     21.789896     43.579792
     -4.349349     24.153370     24.153370     48.306740
     -4.339339     26.936633     26.936633     53.873266
     -4.329329     29.679951     29.679951     59.359902
     -4.319319     32.084424     32.084424     64.168848
     -4.309309     34.096710     34.096710     68.193419
     -4.299299     35.891830     35.891830     71.783659
     -4.289289     37.758425     37.758425     75.516850
     -4.279279     39.928986     39.928986     79.857972
     -4.269269     42.417925     42.417925     84.835849
     -4.259259     44.932622     44.932622     89.865245
     -4.249249     46.906990     46.906990     93.813981
     -4.239239     47.669361     47.669361     95.338722
     -4.229229     46.698723     46.698723     93.397446
     -4.219219     43.867707     43.867707     87.735415
     -4.209209     39.554791     39.554791     79.109582
     -4.199199     34.556416     34.556416     69.112831
     -4.189189     29.825751     29.825751     59.651501
     -4.179179     26.154403     26.154403     52.308806
     -4.169169     23.941278     23.941278     47.882556
     -4.159159     23.143135     23.143135     46.286269
     -4.149149     23.407184     23.407184     46.814367
     -4.139139     24.301892     24.301892     48.603784
     -4.129129     25.527315     25.527315     51.054630
     -4.119119     27.007735     27.007735     54.015469
     -4.109109     28.830100     28.830100     57.660200
     -4.099099     31.066283     31.066283     62.132565
     -4.089089     33.578294     33.578294     67.156588
     -4.079079     35.925185     35.925185     71.850369
     -4.069069     37.448729     37.448729     74.897458
     -4.059059     37.521362     37.521362     75.042724
     -4.049049     35.841461     35.841461     71.682922
     -4.039039     32.621036     32.621036     65.242072
     -4.029029     28.561872     28.561872     57.123743
     -4.019019     24.630219     24.630219     49.260437
     -4.009009     21.744974     21.744974     43.489947
     -3.998999     20.525734     20.525734     41.051467
     -3.988989     21.194096     21.194096     42.388193
     -3.978979     23.628016     23.628016     47.256032
     -3.968969     27.497240     27.497240     54.994480
     -3.958959     32.395118     32.395118     64.790235
     -3.948949     37.920951     37.920951     75.841902
     -3.938939     43.717893     43.717893     87.435785
     -3.928929     49.494541     49.494541     98.989082
     -3.918919     55.043320     55.043320    110.086640
     -3.908909     60.239021     60.239021    120.478041
     -3.898899     64.991812     64.991812    129.983624
     -3.888889     69.155398     69.155398    138.310796
     -3.878879     72.433955     72.433955    144.867909
     -3.868869     74.354386     74.354386    148.708772
     -3.858859     74.349617     74.349617    148.699234
     -3.848849     71.942382     71.942382    143.884763
     -3.838839     66.960454     66.960454    133.920908
     -3.828829     59.688380     59.688380    119.376759
     -3.818819     50.882009     50.882009    101.764017
     -3.808809     41.628335     41.628335     83.256669
     -3.798799     33.095260     33.095260     66.190521
     -3.788789     26.255278     26.255278     52.510557
     -3.778779     21.670009     21.670009     43.340019
     -3.768769     19.394248     19.394248     38.788495
     -3.758759     19.015807     19.015807     38.031615
     -3.748749     19.808797     19.808797     39.617595
     -3.738739     20.953014     20.953014     41.906028
     -3.728729     21.762402     21.762402     43.524803
     -3.718719     21.867756     21.867756     43.735512
     -3.708709     21.309666     21.309666     42.619331
     -3.698699     20.515559     20.515559     41.031118
     -3.688689     20.159541     20.159541     40.319082
     -3.678679     20.934578     20.934578     41.869156
     -3.668669     23.298445     23.298445     46.596891
     -3.658659     27.276045     27.276045     54.552089
     -3.648649     32.395633     32.395633     64.791267
     -3.638639     37.795686     37.795686     75.591371
     -3.628629     42.471689     42.471689     84.943378
     -3.618619     45.569362     45.569362     91.138724
     -3.608609     46.609989     46.609989     93.219977
     -3.598599     45.570680     45.570680     91.141361
     -3.588589     42.815226     42.815226     85.630452
     -3.578579     38.933392     38.933392     77.866784
     -3.568569     34.563799     34.563799     69.127598
     -3.558559     30.251283     30.251283     60.502566
     -3.548549     26.356204     26.356204     52.712408
     -3.538539     23.017575     23.017575     46.035151
     -3.528529     20.172957     20.172957     40.345913
     -3.518519     17.634999     17.634999     35.269997
     -3.508509     15.205442     15.205442     30.410884
     -3.498498     12.784351     12.784351     25.568701
     -3.488488     10.428348     10.428348     20.856696
     -3.478478      8.335166      8.335166     16.670331
     -3.468468      6.767564      6.767564     13.535127
     -3.458458      5.953445      5.953445     11.906891
     -3.448448      5.999871      5.999871     11.999742
     -3.438438      6.845428      6.845428     13.690857
     -3.428428      8.262885      8.262885     16.525769
     -3.418418      9.916629      9.916629     19.833259
     -3.408408     11.469329     11.469329     22.938658
     -3.398398     12.712551     12.712551     25.425102
     -3.388388     13.674073     13.674073     27.348147
     -3.378378     14.648544     14.648544     29.297088
     -3.368368     16.121285     16.121285     32.242570
     -3.358358     18.600521     18.600521     37.201041
     -3.348348     22.416271     22.416271     44.832541
     -3.338338     27.559659     27.559659     55.119318
     -3.328328     33.617802     33.617802     67.235605
     -3.318318     39.821933     39.821933     79.643867
     -3.308308     45.192778     45.192778     90.385556
     -3.298298     48.749020     48.749020     97.498040
     -3.288288     49.736147     49.736147     99.472293
     -3.278278     47.823572     47.823572     95.647144
     -3.268268     43.210363     43.210363     86.420726
     -3.258258     36.591790     36.591790     73.183579
     -3.248248     28.982757     28.982757     57.965515
     -3.238238     21.455543     21.455543     42.911086
     -3.228228     14.890635     14.890635     29.781271
     -3.218218      9.830056      9.830056     19.660112
     -3.208208      6.466162      6.466162     12.932324
     -3.198198      4.732249      4.732249      9.464498
     -3.188188      4.424790      4.424790      8.849580
     -3.178178      5.296512      5.296512     10.593024
     -3.168168      7.099279      7.099279     14.198558
     -3.158158      9.594904      9.594904     19.189808
     -3.148148     12.565394     12.565394     25.130788
     -3.138138     15.836912     15.836912     31.673824
     -3.128128     19.301087     19.301087     38.602175
     -3.118118     22.901315     22.901315     45.802629
     -3.108108     26.568818     26.568818     53.137637
     -3.098098     30.135488     30.135488     60.270976
     -3.088088     33.284583     33.284583     66.569166
     -3.078078     35.592763     35.592763     71.185526
     -3.068068     36.663375     36.663375     73.326751
     -3.058058     36.286002     36.286002     72.572005
     -3.048048     34.530155     34.530155     69.060309
     -3.038038     31.716337     31.716337     63.432673
     -3.028028     28.283628     28.283628     56.567255
     -3.018018     24.635860     24.635860     49.271720
     -3.008008     21.054590     21.054590     42.109181
     -2.997998     17.715399     17.715399     35.430798
     -2.987988     14.775029     14.775029     29.550058
     -2.977978     12.458167     12.458167     24.916334
     -2.967968     11.083243     11.083243     22.166485
     -2.957958     11.008770     11.008770     22.017541
     -2.947948     12.522961     12.522961     25.045921
     -2.937938     15.719765     15.719765     31.439531
     -2.927928     20.405641     20.405641     40.811283
     -2.917918     26.073127     26.073127     52.146253
     -2.907908     31.963633     31.963633     63.927266
     -2.897898     37.218822     37.218822     74.437644
     -2.887888     41.086948     41.086948     82.173896
     -2.877878     43.119027     43.119027     86.238055
     -2.867868     43.279314     43.279314     86.558628
     -2.857858     41.919214     41.919214     83.838427
     -2.847848     39.618785     39.618785     79.237570
     -2.837838     36.960658     36.960658     73.921316
     -2.827828     34.335030     34.335030     68.670059
     -2.817818     31.859954     31.859954     63.719908
     -2.807808     29.442779     29.442779     58.885557
     -2.797798     26.936354     26.936354     53.872708
     -2.787788     24.297286     24.297286     48.594571
     -2.777778     21.658990     21.658990     43.317980
     -2.767768     19.286119     19.286119     38.572239
     -2.757758     17.447425     17.447425     34.894850
     -2.747748     16.290091     16.290091     32.580182
     -2.737738     15.793028     15.793028     31.586055
     -2.727728     15.823135     15.823135     31.646271
     -2.717718     16.250228     16.250228     32.500456
     -2.707708     17.037073     17.037073     34.074145
     -2.697698     18.238267     18.238267     36.476534
     -2.687688     19.906410     19.906410     39.812819
     -2.677678     21.973575     21.973575     43.947151
     -2.667668     24.200751     24.200751     48.401503
     -2.657658     26.246249     26.246249     52.492498
     -2.647648     27.821751     27.821751     55.643501
     -2.637638     28.839206     28.839206     57.678412
     -2.627628     29.452076     29.452076     58.904152
     -2.617618     29.962442     29.962442     59.924883
     -2.607608     30.652503     30.652503     61.305005
     -2.597598     31.641927     31.641927     63.283854
     -2.587588     32.843324     32.843324     65.686648
     -2.577578     34.015369     34.015369     68.030737
     -2.567568     34.856360     34.856360     69.712720
     -2.557558     35.080200     35.080200     70.160401
     -2.547548     34.460431     34.460431     68.920862
     -2.537538     32.868243     32.868243     65.736485
     -2.527528     30.328857     30.328857     60.657714
     -2.517518     27.082467     27.082467     54.164935
     -2.507508     23.601083     23.601083     47.202165
     -2.497497     20.517317     20.517317     41.034634
     -2.487487     18.466036     18.466036     36.932071
     -2.477477     17.893037     17.893037     35.786074
     -2.467467     18.911078     18.911078     37.822157
     -2.457457     21.268148     21.268148     42.536295
     -2.447447     24.445961     24.445961     48.891921
     -2.437437     27.850979     27.850979     55.701959
     -2.427427     31.019139     31.019139     62.038279
     -2.417417     33.746420     33.746420     67.492841
     -2.407407     36.086900     36.086900     72.173800
     -2.397397     38.218832     38.218832     76.437665
     -2.387387     40.243328     40.243328     80.486656
     -2.377377     42.018962     42.018962     84.037925
     -2.367367     43.126662     43.126662     86.253323
     -2.357357     43.000476     43.000476     86.000953
     -2.347347     41.175524     41.175524     82.351048
     -2.337337     37.537818     37.537818     75.075635
     -2.327327     32.452418     32.452418     64.904835
     -2.317317     26.705650     26.705650     53.411300
     -2.307307     21.290343     21.290343     42.580685
     -2.297297     17.133874     17.133874     34.267747
     -2.287287     14.878681     14.878681     29.757361
     -2.277277     14.778990     14.778990     29.557981
     -2.267267     16.714537     16.714537     33.429073
     -2.257257     20.280232     20.280232     40.560463
     -2.247247     24.902603     24.902603     49.805207
     -2.237237     29.947461     29.947461     59.894922
     -2.227227     34.801347     34.801347     69.602694
     -2.217217     38.923326     38.923326     77.846653
     -2.207207     41.874054     41.874054     83.748107
     -2.197197     43.336780     43.336780     86.673560
     -2.187187     43.145842     43.145842     86.291683
     -2.177177     41.326500     41.326500     82.653000
     -2.167167     38.127681     38.127681     76.255362
     -2.157157     34.011138     34.011138     68.022275
     -2.147147     29.566897     29.566897     59.133795
     -2.137137     25.361942     25.361942     50.723885
     -2.127127     21.777163     21.777163     43.554326
     -2.117117     18.910488     18.910488     37.820976
     -2.107107     16.598130     16.598130     33.196261
     -2.097097     14.542956     14.542956     29.085912
     -2.087087     12.480521     12.480521     24.961042
     -2.077077     10.298640     10.298640     20.597279
     -2.067067      8.062442      8.062442     16.124885
     -2.057057      5.955323      5.955323     11.910646
     -2.047047      4.187305      4.187305      8.374611
     -2.037037      2.924576      2.924576      5.849151
     -2.027027      2.264763      2.264763      4.529527
     -2.017017      2.247234      2.247234      4.494469
     -2.007007      2.868943      2.868943      5.737887
     -1.996997      4.082089      4.082089      8.164177
     -1.986987      5.772319      5.772319     11.544638
     -1.976977      7.739742      7.739742     15.479485
     -1.966967      9.713403      9.713403     19.426806
     -1.956957     11.415003     11.415003     22.830007
     -1.946947     12.655193     12.655193     25.310386
     -1.936937     13.415691     13.415691     26.831381
     -1.926927     13.865884     13.865884     27.731768
     -1.916917     14.292283     14.292283     28.584567
     -1.906907     14.967768     14.967768     29.935537
     -1.896897     16.023696     16.023696     32.047392
     -1.886887     17.387295     17.387295     34.774591
     -1.876877     18.810755     18.810755     37.621509
     -1.866867     19.971954     19.971954     39.943908
     -1.856857     20.597925     20.597925     41.195849
     -1.846847     20.561353     20.561353     41.122705
     -1.836837     19.918495     19.918495     39.836990
     -1.826827     18.879067     18.879067     37.758135
     -1.816817     17.718951     17.718951     35.437902
     -1.806807     16.666156     16.666156     33.332312
     -1.796797     15.806103     15.806103     31.612207
     -1.786787     15.051642     15.051642     30.103284
     -1.776777     14.196772     14.196772     28.393545
     -1.766767     13.029535     13.029535     26.059070
     -1.756757     11.445653     11.445653     22.891307
     -1.746747      9.504961      9.504961     19.009922
     -1.736737      7.408266      7.408266     14.816532
     -1.726727      5.418322      5.418322     10.836644
     -1.716717      3.774289      3.774289      7.548579
     -1.706707      2.641185      2.641185      5.282369
     -1.696697      2.105183      2.105183      4.210367
     -1.686687      2.195523      2.195523      4.391047
     -1.676677      2.902080      2.902080      5.804161
     -1.666667      4.168222      4.168222      8.336445
     -1.656657      5.862337      5.862337     11.724674
     -1.646647      7.753660      7.753660     15.507320
     -1.636637      9.524814      9.524814     19.049627
     -1.626627     10.838425     10.838425     21.676850
