# EIG2DOS: Utility for SIESTA to obtain the electronic density of states
#  E. Artacho, Apr 1999, A. Garcia, Apr 2012
#  Nick R. Papior, Feb 2017
# ------------------------------------------
# Eigenvalues calculated from a non-polarized calculation
# Eigenvalues read from siesta.EIG
# Kpoint weights read from siesta.KP
# Using smearing parameter:   0.0500
# Using 1000 points in the energy range
# Selected bands: 1 to: 2981
# Emin, Emax in file for selected band(s):    -27.2788437    218.3774620
# Nbands, Nspin, Nk   =   2981     1     1
# E_F                 =    -4.2330 eV --> (shifted to ZERO)
# Broadening          =     0.0500 eV
#
#        E            N(up)  (=)   N(down)         Ntot
     -5.000000     33.886716     33.886716     67.773431
     -4.989990     38.140744     38.140744     76.281488
     -4.979980     41.785179     41.785179     83.570358
     -4.969970     44.235958     44.235958     88.471917
     -4.959960     45.071502     45.071502     90.143003
     -4.949950     44.170847     44.170847     88.341694
     -4.939940     41.762428     41.762428     83.524856
     -4.929930     38.379728     38.379728     76.759455
     -4.919920     34.758976     34.758976     69.517951
     -4.909910     31.719925     31.719925     63.439849
     -4.899900     30.045683     30.045683     60.091366
     -4.889890     30.349682     30.349682     60.699365
     -4.879880     32.919509     32.919509     65.839018
     -4.869870     37.566238     37.566238     75.132475
     -4.859860     43.554537     43.554537     87.109074
     -4.849850     49.695929     49.695929     99.391858
     -4.839840     54.629474     54.629474    109.258949
     -4.829830     57.214384     57.214384    114.428768
     -4.819820     56.880294     56.880294    113.760589
     -4.809810     53.781571     53.781571    107.563143
     -4.799800     48.690796     48.690796     97.381592
     -4.789790     42.692600     42.692600     85.385199
     -4.779780     36.825898     36.825898     73.651795
     -4.769770     31.822859     31.822859     63.645717
     -4.759760     28.018798     28.018798     56.037597
     -4.749750     25.414668     25.414668     50.829337
     -4.739740     23.817074     23.817074     47.634148
     -4.729730     22.976690     22.976690     45.953380
     -4.719720     22.675914     22.675914     45.351829
     -4.709710     22.753176     22.753176     45.506353
     -4.699700     23.079688     23.079688     46.159376
     -4.689690     23.521611     23.521611     47.043221
     -4.679680     23.924970     23.924970     47.849940
     -4.669670     24.148421     24.148421     48.296842
     -4.659660     24.141221     24.141221     48.282443
     -4.649650     24.031181     24.031181     48.062363
     -4.639640     24.166737     24.166737     48.333474
     -4.629630     25.062851     25.062851     50.125702
     -4.619620     27.236626     27.236626     54.473253
     -4.609610     30.975172     30.975172     61.950344
     -4.599600     36.130118     36.130118     72.260235
     -4.589590     42.047935     42.047935     84.095869
     -4.579580     47.702641     47.702641     95.405281
     -4.569570     52.008135     52.008135    104.016270
     -4.559560     54.194506     54.194506    108.389012
     -4.549550     54.088916     54.088916    108.177832
     -4.539540     52.175579     52.175579    104.351158
     -4.529530     49.405767     49.405767     98.811534
     -4.519520     46.838350     46.838350     93.676701
     -4.509510     45.260535     45.260535     90.521071
     -4.499499     44.937942     44.937942     89.875884
     -4.489489     45.578977     45.578977     91.157954
     -4.479479     46.504356     46.504356     93.008713
     -4.469469     46.932060     46.932060     93.864119
     -4.459459     46.254466     46.254466     92.508931
     -4.449449     44.207565     44.207565     88.415129
     -4.439439     40.894810     40.894810     81.789619
     -4.429429     36.696044     36.696044     73.392088
     -4.419419     32.131269     32.131269     64.262538
     -4.409409     27.743989     27.743989     55.487978
     -4.399399     24.030029     24.030029     48.060059
     -4.389389     21.395609     21.395609     42.791218
     -4.379379     20.113566     20.113566     40.227133
     -4.369369     20.267239     20.267239     40.534478
     -4.359359     21.707240     21.707240     43.414479
     -4.349349     24.064051     24.064051     48.128102
     -4.339339     26.840238     26.840238     53.680476
     -4.329329     29.561195     29.561195     59.122390
     -4.319319     31.924394     31.924394     63.848788
     -4.309309     33.881094     33.881094     67.762188
     -4.299299     35.614080     35.614080     71.228161
     -4.289289     37.419894     37.419894     74.839789
     -4.279279     39.540109     39.540109     79.080218
     -4.269269     42.002676     42.002676     84.005353
     -4.259259     44.533860     44.533860     89.067721
     -4.249249     46.586666     46.586666     93.173332
     -4.239239     47.498594     47.498594     94.997188
     -4.229229     46.738564     46.738564     93.477129
     -4.219219     44.147990     44.147990     88.295979
     -4.209209     40.060747     40.060747     80.121495
     -4.199199     35.228972     35.228972     70.457945
     -4.189189     30.574539     30.574539     61.149079
     -4.179179     26.877476     26.877476     53.754952
     -4.169169     24.544684     24.544684     49.089368
     -4.159159     23.555730     23.555730     47.111461
     -4.149149     23.588640     23.588640     47.177279
     -4.139139     24.243611     24.243611     48.487222
     -4.129129     25.247565     25.247565     50.495130
     -4.119119     26.544160     26.544160     53.088320
     -4.109109     28.233718     28.233718     56.467435
     -4.099099     30.399485     30.399485     60.798971
     -4.089089     32.915418     32.915418     65.830836
     -4.079079     35.350693     35.350693     70.701386
     -4.069069     37.048281     37.048281     74.096561
     -4.059059     37.365580     37.365580     74.731160
     -4.049049     35.967931     35.967931     71.935863
     -4.039039     33.022422     33.022422     66.044844
     -4.029029     29.185109     29.185109     58.370217
     -4.019019     25.386056     25.386056     50.772112
     -4.009009     22.523228     22.523228     45.046455
     -3.998999     21.211892     21.211892     42.423783
     -3.988989     21.685559     21.685559     43.371119
     -3.978979     23.849596     23.849596     47.699191
     -3.968969     27.414012     27.414012     54.828024
     -3.958959     32.018470     32.018470     64.036940
     -3.948949     37.303917     37.303917     74.607835
     -3.938939     42.939688     42.939688     85.879376
     -3.928929     48.639536     48.639536     97.279073
     -3.918919     54.183102     54.183102    108.366205
     -3.908909     59.425451     59.425451    118.850903
     -3.898899     64.263802     64.263802    128.527604
     -3.888889     68.554282     68.554282    137.108564
     -3.878879     72.015682     72.015682    144.031364
     -3.868869     74.186129     74.186129    148.372258
     -3.858859     74.486628     74.486628    148.973256
     -3.848849     72.394718     72.394718    144.789436
     -3.838839     67.669427     67.669427    135.338855
     -3.828829     60.530397     60.530397    121.060793
     -3.818819     51.702401     51.702401    103.404802
     -3.808809     42.289771     42.289771     84.579542
     -3.798799     33.517167     33.517167     67.034335
     -3.788789     26.427606     26.427606     52.855213
     -3.778779     21.640341     21.640341     43.280682
     -3.768769     19.240139     19.240139     38.480278
     -3.758759     18.817161     18.817161     37.634321
     -3.748749     19.629392     19.629392     39.258785
     -3.738739     20.832608     20.832608     41.665216
     -3.728729     21.716282     21.716282     43.432564
     -3.718719     21.890206     21.890206     43.780411
     -3.708709     21.379326     21.379326     42.758652
     -3.698699     20.601897     20.601897     41.203793
     -3.688689     20.229868     20.229868     40.459736
     -3.678679     20.960853     20.960853     41.921705
     -3.668669     23.262972     23.262972     46.525945
     -3.658659     27.175381     27.175381     54.350761
     -3.648649     32.242182     32.242182     64.484364
     -3.638639     37.616464     37.616464     75.232928
     -3.628629     42.303749     42.303749     84.607498
     -3.618619     45.451828     45.451828     90.903656
     -3.608609     46.573943     46.573943     93.147886
     -3.598599     45.629788     45.629788     91.259575
     -3.588589     42.960849     42.960849     85.921697
     -3.578579     39.136915     39.136915     78.273831
     -3.568569     34.785934     34.785934     69.571869
     -3.558559     30.454744     30.454744     60.909488
     -3.548549     26.516430     26.516430     53.032860
     -3.538539     23.127316     23.127316     46.254632
     -3.528529     20.239773     20.239773     40.479546
     -3.518519     17.674075     17.674075     35.348151
     -3.508509     15.231684     15.231684     30.463367
     -3.498498     12.807058     12.807058     25.614117
     -3.488488     10.449727     10.449727     20.899455
     -3.478478      8.351953      8.351953     16.703906
     -3.468468      6.774092      6.774092     13.548184
     -3.458458      5.944532      5.944532     11.889063
     -3.448448      5.972386      5.972386     11.944773
     -3.438438      6.797613      6.797613     13.595227
     -3.428428      8.190186      8.190186     16.380371
     -3.418418      9.802507      9.802507     19.605015
     -3.408408     11.269978     11.269978     22.539956
     -3.398398     12.336801     12.336801     24.673603
     -3.388388     12.964475     12.964475     25.928951
     -3.378378     13.375984     13.375984     26.751968
     -3.368368     14.010236     14.010236     28.020472
     -3.358358     15.399344     15.399344     30.798688
     -3.348348     18.011231     18.011231     36.022462
     -3.338338     22.103101     22.103101     44.206202
     -3.328328     27.612618     27.612618     55.225235
     -3.318318     34.097695     34.097695     68.195391
     -3.308308     40.741086     40.741086     81.482173
     -3.298298     46.451504     46.451504     92.903008
     -3.288288     50.084966     50.084966    100.169933
     -3.278278     50.757062     50.757062    101.514125
     -3.268268     48.143134     48.143134     96.286267
     -3.258258     42.629060     42.629060     85.258121
     -3.248248     35.224486     35.224486     70.448971
     -3.238238     27.263986     27.263986     54.527972
     -3.228228     20.025769     20.025769     40.051537
     -3.218218     14.423029     14.423029     28.846057
     -3.208208     10.862409     10.862409     21.724819
     -3.198198      9.270838      9.270838     18.541677
     -3.188188      9.230446      9.230446     18.460893
     -3.178178     10.155051     10.155051     20.310102
     -3.168168     11.466903     11.466903     22.933806
     -3.158158     12.750993     12.750993     25.501985
     -3.148148     13.860879     13.860879     27.721758
     -3.138138     14.940676     14.940676     29.881352
     -3.128128     16.338453     16.338453     32.676906
     -3.118118     18.425457     18.425457     36.850914
     -3.108108     21.385043     21.385043     42.770087
     -3.098098     25.063111     25.063111     50.126222
     -3.088088     28.955583     28.955583     57.911165
     -3.078078     32.350183     32.350183     64.700366
     -3.068068     34.566207     34.566207     69.132413
     -3.058058     35.185588     35.185588     70.371176
     -3.048048     34.171149     34.171149     68.342299
     -3.038038     31.825997     31.825997     63.651994
     -3.028028     28.631267     28.631267     57.262535
     -3.018018     25.059113     25.059113     50.118225
     -3.008008     21.458256     21.458256     42.916511
     -2.997998     18.053468     18.053468     36.106937
     -2.987988     15.027823     15.027823     30.055646
     -2.977978     12.614394     12.614394     25.228789
     -2.967968     11.132009     11.132009     22.264018
     -2.957958     10.941234     10.941234     21.882468
     -2.947948     12.339526     12.339526     24.679052
     -2.937938     15.437375     15.437375     30.874749
     -2.927928     20.060542     20.060542     40.121084
     -2.917918     25.716773     25.716773     51.433547
     -2.907908     31.652350     31.652350     63.304699
     -2.897898     37.000530     37.000530     74.001060
     -2.887888     40.989559     40.989559     81.979119
     -2.877878     43.144419     43.144419     86.288837
     -2.867868     43.404630     43.404630     86.809259
     -2.857858     42.104835     42.104835     84.209670
     -2.847848     39.820519     39.820519     79.641037
     -2.837838     37.142693     37.142693     74.285386
     -2.827828     34.479755     34.479755     68.959509
     -2.817818     31.971154     31.971154     63.942309
     -2.807808     29.540685     29.540685     59.081371
     -2.797798     27.046359     27.046359     54.092718
     -2.787788     24.437301     24.437301     48.874602
     -2.777778     21.831267     21.831267     43.662534
     -2.767768     19.476896     19.476896     38.953792
     -2.757758     17.633425     17.633425     35.266851
     -2.747748     16.447467     16.447467     32.894935
     -2.737738     15.903970     15.903970     31.807941
     -2.727728     15.877935     15.877935     31.755869
     -2.717718     16.245926     16.245926     32.491852
     -2.707708     16.975591     16.975591     33.951183
     -2.697698     18.126023     18.126023     36.252046
     -2.687688     19.755011     19.755011     39.510022
     -2.677678     21.799309     21.799309     43.598617
     -2.667668     24.020905     24.020905     48.041811
     -2.657658     26.072834     26.072834     52.145669
     -2.647648     27.655952     27.655952     55.311904
     -2.637638     28.670560     28.670560     57.341119
     -2.627628     29.263911     29.263911     58.527822
     -2.617618     29.741100     29.741100     59.482200
     -2.607608     30.395335     30.395335     60.790670
     -2.597598     31.360150     31.360150     62.720301
     -2.587588     32.559665     32.559665     65.119330
     -2.577578     33.759625     33.759625     67.519250
     -2.567568     34.661876     34.661876     69.323752
     -2.557558     34.981158     34.981158     69.962315
     -2.547548     34.487242     34.487242     68.974484
     -2.537538     33.039264     33.039264     66.078528
     -2.527528     30.640666     30.640666     61.281331
     -2.517518     27.504292     27.504292     55.008584
     -2.507508     24.078135     24.078135     48.156269
     -2.497497     20.982855     20.982855     41.965709
     -2.487487     18.856757     18.856757     37.713514
     -2.477477     18.160824     18.160824     36.321649
     -2.467467     19.027111     19.027111     38.054223
     -2.457457     21.220357     21.220357     42.440714
     -2.447447     24.234107     24.234107     48.468215
     -2.437437     27.483462     27.483462     54.966924
     -2.427427     30.512909     30.512909     61.025818
     -2.417417     33.128669     33.128669     66.257338
     -2.407407     35.396518     35.396518     70.793037
     -2.397397     37.506883     37.506883     75.013766
     -2.387387     39.572821     39.572821     79.145643
     -2.377377     41.463203     41.463203     82.926406
     -2.367367     42.763127     42.763127     85.526254
     -2.357357     42.896942     42.896942     85.793883
     -2.347347     41.369419     41.369419     82.738838
     -2.337337     38.016659     38.016659     76.033318
     -2.327327     33.146785     33.146785     66.293570
     -2.317317     27.502078     27.502078     55.004156
     -2.307307     22.061273     22.061273     44.122545
     -2.297297     17.772294     17.772294     35.544589
     -2.287287     15.322794     15.322794     30.645589
     -2.277277     15.018043     15.018043     30.036087
     -2.267267     16.776521     16.776521     33.553041
     -2.257257     20.209883     20.209883     40.419766
     -2.247247     24.740874     24.740874     49.481748
     -2.237237     29.721244     29.721244     59.442488
     -2.227227     34.526322     34.526322     69.052645
     -2.217217     38.615898     38.615898     77.231797
     -2.207207     41.563556     41.563556     83.127112
     -2.197197     43.069009     43.069009     86.138017
     -2.187187     42.973986     42.973986     85.947972
     -2.177177     41.293105     41.293105     82.586210
     -2.167167     38.247022     38.247022     76.494044
     -2.157157     34.261863     34.261863     68.523726
     -2.147147     29.899483     29.899483     59.798967
     -2.137137     25.717519     25.717519     51.435037
     -2.127127     22.108248     22.108248     44.216496
     -2.117117     19.193716     19.193716     38.387431
     -2.107107     16.834153     16.834153     33.668307
     -2.097097     14.745909     14.745909     29.491817
     -2.087087     12.664083     12.664083     25.328166
     -2.077077     10.465281     10.465281     20.930563
     -2.067067      8.197797      8.197797     16.395593
     -2.057057      6.024275      6.024275     12.048549
     -2.047047      4.125789      4.125789      8.251578
     -2.037037      2.623012      2.623012      5.246024
     -2.027027      1.545280      1.545280      3.090560
     -2.017017      0.845416      0.845416      1.690833
     -2.007007      0.438357      0.438357      0.876714
     -1.996997      0.240889      0.240889      0.481778
     -1.986987      0.200798      0.200798      0.401595
     -1.976977      0.315059      0.315059      0.630118
     -1.966967      0.641191      0.641191      1.282382
     -1.956957      1.302467      1.302467      2.604935
     -1.946947      2.480179      2.480179      4.960358
     -1.936937      4.380959      4.380959      8.761918
     -1.926927      7.171127      7.171127     14.342253
     -1.916917     10.886213     10.886213     21.772426
     -1.906907     15.346768     15.346768     30.693536
     -1.896897     20.126368     20.126368     40.252737
     -1.886887     24.608326     24.608326     49.216652
     -1.876877     28.130851     28.130851     56.261702
     -1.866867     30.174098     30.174098     60.348195
     -1.856857     30.515635     30.515635     61.031271
     -1.846847     29.291747     29.291747     58.583495
     -1.836837     26.943245     26.943245     53.886491
     -1.826827     24.070621     24.070621     48.141242
     -1.816817     21.252076     21.252076     42.504152
     -1.806807     18.884025     18.884025     37.768051
     -1.796797     17.093110     17.093110     34.186220
     -1.786787     15.746238     15.746238     31.492476
     -1.776777     14.551984     14.551984     29.103969
     -1.766767     13.210354     13.210354     26.420708
     -1.756757     11.546240     11.546240     23.092481
     -1.746747      9.571404      9.571404     19.142808
     -1.736737      7.458640      7.458640     14.917280
     -1.726727      5.456946      5.456946     10.913892
     -1.716717      3.800146      3.800146      7.600293
     -1.706707      2.651866      2.651866      5.303732
     -1.696697      2.098216      2.098216      4.196433
     -1.686687      2.168832      2.168832      4.337665
     -1.676677      2.854802      2.854802      5.709604
     -1.666667      4.102206      4.102206      8.204412
     -1.656657      5.783717      5.783717     11.567433
     -1.646647      7.673260      7.673260     15.346520
     -1.636637      9.456309      9.456309     18.912617
     -1.626627     10.794123     10.794123     21.588246
