# EIG2DOS: Utility for SIESTA to obtain the electronic density of states
#  E. Artacho, Apr 1999, A. Garcia, Apr 2012
#  Nick R. Papior, Feb 2017
# ------------------------------------------
# Eigenvalues calculated from a non-polarized calculation
# Eigenvalues read from siesta.EIG
# Kpoint weights read from siesta.KP
# Using smearing parameter:   0.0500
# Using 1000 points in the energy range
# Selected bands: 1 to: 2981
# Emin, Emax in file for selected band(s):    -27.2459811    218.4022460
# Nbands, Nspin, Nk   =   2981     1     1
# E_F                 =    -4.1912 eV --> (shifted to ZERO)
# Broadening          =     0.0500 eV
#
#        E            N(up)  (=)   N(down)         Ntot
     -5.000000     31.910174     31.910174     63.820347
     -4.989990     37.098384     37.098384     74.196768
     -4.979980     41.959476     41.959476     83.918953
     -4.969970     45.635896     45.635896     91.271792
     -4.959960     47.422257     47.422257     94.844514
     -4.949950     47.002072     47.002072     94.004143
     -4.939940     44.557413     44.557413     89.114826
     -4.929930     40.723043     40.723043     81.446086
     -4.919920     36.427206     36.427206     72.854412
     -4.909910     32.691035     32.691035     65.382069
     -4.899900     30.438198     30.438198     60.876396
     -4.889890     30.327427     30.327427     60.654855
     -4.879880     32.605431     32.605431     65.210862
     -4.869870     37.000786     37.000786     74.001573
     -4.859860     42.713057     42.713057     85.426114
     -4.849850     48.551242     48.551242     97.102483
     -4.839840     53.222090     53.222090    106.444179
     -4.829830     55.687954     55.687954    111.375908
     -4.819820     55.459890     55.459890    110.919779
     -4.809810     52.706143     52.706143    105.412286
     -4.799800     48.136575     48.136575     96.273150
     -4.789790     42.724684     42.724684     85.449369
     -4.779780     37.393648     37.393648     74.787296
     -4.769770     32.789442     32.789442     65.578885
     -4.759760     29.203711     29.203711     58.407421
     -4.749750     26.632942     26.632942     53.265885
     -4.739740     24.909580     24.909580     49.819161
     -4.729730     23.831466     23.831466     47.662932
     -4.719720     23.239300     23.239300     46.478601
     -4.709710     23.027976     23.027976     46.055952
     -4.699700     23.110635     23.110635     46.221269
     -4.689690     23.374580     23.374580     46.749161
     -4.679680     23.669801     23.669801     47.339603
     -4.669670     23.852533     23.852533     47.705067
     -4.659660     23.874309     23.874309     47.748619
     -4.649650     23.874737     23.874737     47.749475
     -4.639640     24.219039     24.219039     48.438077
     -4.629630     25.430764     25.430764     50.861527
     -4.619620     28.009812     28.009812     56.019624
     -4.609610     32.186453     32.186453     64.372906
     -4.599600     37.716738     37.716738     75.433477
     -4.589590     43.836933     43.836933     87.673866
     -4.579580     49.440908     49.440908     98.881816
     -4.569570     53.439203     53.439203    106.878406
     -4.559560     55.156125     55.156125    110.312251
     -4.549550     54.585125     54.585125    109.170250
     -4.539540     52.380864     52.380864    104.761729
     -4.529530     49.589493     49.589493     99.178986
     -4.519520     47.238927     47.238927     94.477854
     -4.509510     45.966589     45.966589     91.933178
     -4.499499     45.831874     45.831874     91.663748
     -4.489489     46.368767     46.368767     92.737534
     -4.479479     46.829209     46.829209     93.658418
     -4.469469     46.496861     46.496861     92.993722
     -4.459459     44.939555     44.939555     89.879111
     -4.449449     42.114542     42.114542     84.229083
     -4.439439     38.317018     38.317018     76.634035
     -4.429429     34.031250     34.031250     68.062501
     -4.419419     29.772619     29.772619     59.545237
     -4.409409     25.987613     25.987613     51.975227
     -4.399399     23.024890     23.024890     46.049781
     -4.389389     21.140929     21.140929     42.281858
     -4.379379     20.491771     20.491771     40.983542
     -4.369369     21.093019     21.093019     42.186039
     -4.359359     22.776536     22.776536     45.553071
     -4.349349     25.194882     25.194882     50.389764
     -4.339339     27.903698     27.903698     55.807397
     -4.329329     30.502406     30.502406     61.004812
     -4.319319     32.771078     32.771078     65.542155
     -4.309309     34.734918     34.734918     69.469836
     -4.299299     36.619570     36.619570     73.239140
     -4.289289     38.709569     38.709569     77.419137
     -4.279279     41.164015     41.164015     82.328031
     -4.269269     43.864357     43.864357     87.728714
     -4.259259     46.365289     46.365289     92.730579
     -4.249249     47.989944     47.989944     95.979889
     -4.239239     48.055976     48.055976     96.111952
     -4.229229     46.154628     46.154628     92.309255
     -4.219219     42.362633     42.362633     84.725267
     -4.209209     37.280086     37.280086     74.560173
     -4.199199     31.861685     31.861685     63.723370
     -4.189189     27.108301     27.108301     54.216601
     -4.179179     23.753691     23.753691     47.507381
     -4.169169     22.078568     22.078568     44.157135
     -4.159159     21.916451     21.916451     43.832903
     -4.149149     22.824341     22.824341     45.648682
     -4.139139     24.323219     24.323219     48.646438
     -4.129129     26.094431     26.094431     52.188862
     -4.119119     28.047590     28.047590     56.095181
     -4.109109     30.237676     30.237676     60.475352
     -4.099099     32.681118     32.681118     65.362237
     -4.089089     35.176035     35.176035     70.352070
     -4.079079     37.241112     37.241112     74.482224
     -4.069069     38.234448     38.234448     76.468896
     -4.059059     37.615179     37.615179     75.230358
     -4.049049     35.220753     35.220753     70.441506
     -4.039039     31.411199     31.411199     62.822399
     -4.029029     26.998786     26.998786     53.997573
     -4.019019     22.996566     22.996566     45.993133
     -4.009009     20.309347     20.309347     40.618694
     -3.998999     19.503361     19.503361     39.006722
     -3.988989     20.729695     20.729695     41.459390
     -3.978979     23.789979     23.789979     47.579959
     -3.968969     28.274993     28.274993     56.549987
     -3.958959     33.702144     33.702144     67.404289
     -3.948949     39.612452     39.612452     79.224903
     -3.938939     45.626756     45.626756     91.253511
     -3.928929     51.475557     51.475557    102.951114
     -3.918919     57.004572     57.004572    114.009144
     -3.908909     62.141393     62.141393    124.282786
     -3.898899     66.813786     66.813786    133.627572
     -3.888889     70.841598     70.841598    141.683197
     -3.878879     73.858597     73.858597    147.717193
     -3.868869     75.325821     75.325821    150.651643
     -3.858859     74.661390     74.661390    149.322780
     -3.848849     71.451062     71.451062    142.902124
     -3.838839     65.655196     65.655196    131.310391
     -3.828829     57.719779     57.719779    115.439559
     -3.818819     48.536250     48.536250     97.072500
     -3.808809     39.256386     39.256386     78.512772
     -3.798799     31.024083     31.024083     62.048165
     -3.788789     24.711722     24.711722     49.423444
     -3.778779     20.739340     20.739340     41.478680
     -3.768769     19.020503     19.020503     38.041006
     -3.758759     19.037734     19.037734     38.075468
     -3.748749     20.017118     20.017118     40.034236
     -3.738739     21.152544     21.152544     42.305088
     -3.728729     21.824224     21.824224     43.648448
     -3.718719     21.760327     21.760327     43.520655
     -3.708709     21.102320     21.102320     42.204640
     -3.698699     20.353236     20.353236     40.706472
     -3.688689     20.213871     20.213871     40.427742
     -3.678679     21.343345     21.343345     42.686690
     -3.668669     24.111190     24.111190     48.222381
     -3.658659     28.424931     28.424931     56.849861
     -3.648649     33.704526     33.704526     67.409051
     -3.638639     39.026745     39.026745     78.053491
     -3.628629     43.392881     43.392881     86.785761
     -3.618619     46.016893     46.016893     92.033786
     -3.608609     46.523110     46.523110     93.046221
     -3.598599     44.990818     44.990818     89.981636
     -3.588589     41.857777     41.857777     83.715555
     -3.578579     37.748893     37.748893     75.497786
     -3.568569     33.302658     33.302658     66.605316
     -3.558559     29.038370     29.038370     58.076740
     -3.548549     25.275723     25.275723     50.551447
     -3.538539     22.107757     22.107757     44.215514
     -3.528529     19.431062     19.431062     38.862124
     -3.518519     17.031913     17.031913     34.063826
     -3.508509     14.705291     14.705291     29.410582
     -3.498498     12.361598     12.361598     24.723196
     -3.488488     10.075936     10.075936     20.151873
     -3.478478      8.062067      8.062067     16.124133
     -3.468468      6.589183      6.589183     13.178367
     -3.458458      5.880552      5.880552     11.761105
     -3.448448      6.030837      6.030837     12.061674
     -3.438438      6.964512      6.964512     13.929024
     -3.428428      8.445727      8.445727     16.891454
     -3.418418     10.142881     10.142881     20.285763
     -3.408408     11.740038     11.740038     23.480076
     -3.398398     13.066327     13.066327     26.132654
     -3.388388     14.192931     14.192931     28.385861
     -3.378378     15.444786     15.444786     30.889572
     -3.368368     17.302783     17.302783     34.605566
     -3.358358     20.221922     20.221922     40.443844
     -3.348348     24.433324     24.433324     48.866648
     -3.338338     29.807035     29.807035     59.614071
     -3.328328     35.824290     35.824290     71.648579
     -3.318318     41.662857     41.662857     83.325715
     -3.308308     46.364864     46.364864     92.729729
     -3.298298     49.044722     49.044722     98.089444
     -3.288288     49.095472     49.095472     98.190943
     -3.278278     46.349411     46.349411     92.698822
     -3.268268     41.144442     41.144442     82.288884
     -3.258258     34.259912     34.259912     68.519824
     -3.248248     26.727663     26.727663     53.455326
     -3.238238     19.579578     19.579578     39.159155
     -3.228228     13.624480     13.624480     27.248960
     -3.218218      9.328566      9.328566     18.657131
     -3.208208      6.815784      6.815784     13.631568
     -3.198198      5.948108      5.948108     11.896215
     -3.188188      6.426398      6.426398     12.852795
     -3.178178      7.874684      7.874684     15.749368
     -3.168168      9.907320      9.907320     19.814640
     -3.158158     12.196255     12.196255     24.392511
     -3.148148     14.541239     14.541239     29.082479
     -3.138138     16.915204     16.915204     33.830407
     -3.128128     19.442622     19.442622     38.885245
     -3.118118     22.292415     22.292415     44.584830
     -3.108108     25.520357     25.520357     51.040715
     -3.098098     28.942316     28.942316     57.884632
     -3.088088     32.120133     32.120133     64.240266
     -3.078078     34.486786     34.486786     68.973573
     -3.068068     35.556880     35.556880     71.113760
     -3.058058     35.114586     35.114586     70.229173
     -3.048048     33.281356     33.281356     66.562711
     -3.038038     30.435659     30.435659     60.871319
     -3.028028     27.042068     27.042068     54.084136
     -3.018018     23.492348     23.492348     46.984697
     -3.008008     20.040503     20.040503     40.081005
     -2.997998     16.845893     16.845893     33.691786
     -2.987988     14.072327     14.072327     28.144655
     -2.977978     11.967029     11.967029     23.934058
     -2.967968     10.867617     10.867617     21.735233
     -2.957958     11.131372     11.131372     22.262744
     -2.947948     13.017766     13.017766     26.035533
     -2.937938     16.568899     16.568899     33.137799
     -2.927928     21.529417     21.529417     43.058833
     -2.917918     27.337869     27.337869     54.675737
     -2.907908     33.207067     33.207067     66.414135
     -2.897898     38.287129     38.287129     76.574258
     -2.887888     41.872225     41.872225     83.744449
     -2.877878     43.583564     43.583564     87.167129
     -2.867868     43.456183     43.456183     86.912366
     -2.857858     41.887367     41.887367     83.774734
     -2.847848     39.462181     39.462181     78.924362
     -2.837838     36.729560     36.729560     73.459121
     -2.827828     34.028216     34.028216     68.056432
     -2.817818     31.437169     31.437169     62.874338
     -2.807808     28.861070     28.861070     57.722141
     -2.797798     26.190462     26.190462     52.380925
     -2.787788     23.441428     23.441428     46.882856
     -2.777778     20.797767     20.797767     41.595534
     -2.767768     18.540188     18.540188     37.080376
     -2.757758     16.914268     16.914268     33.828536
     -2.747748     16.022423     16.022423     32.044845
     -2.737738     15.805223     15.805223     31.610446
     -2.727728     16.116692     16.116692     32.233384
     -2.717718     16.835116     16.835116     33.670232
     -2.707708     17.927313     17.927313     35.854625
     -2.697698     19.418309     19.418309     38.836618
     -2.687688     21.289161     21.289161     42.578321
     -2.677678     23.384086     23.384086     46.768172
     -2.667668     25.409456     25.409456     50.818912
     -2.657658     27.045617     27.045617     54.091234
     -2.647648     28.109356     28.109356     56.218711
     -2.637638     28.661102     28.661102     57.322204
     -2.627628     28.981474     28.981474     57.962949
     -2.617618     29.426225     29.426225     58.852449
     -2.607608     30.245810     30.245810     60.491619
     -2.597598     31.470677     31.470677     62.941354
     -2.587588     32.910291     32.910291     65.820582
     -2.577578     34.238789     34.238789     68.477578
     -2.567568     35.100591     35.100591     70.201182
     -2.557558     35.187189     35.187189     70.374379
     -2.547548     34.283831     34.283831     68.567662
     -2.537538     32.313606     32.313606     64.627212
     -2.527528     29.392471     29.392471     58.784942
     -2.517518     25.870646     25.870646     51.741292
     -2.507508     22.314073     22.314073     44.628147
     -2.497497     19.398108     19.398108     38.796217
     -2.487487     17.732797     17.732797     35.465594
     -2.477477     17.681913     17.681913     35.363827
     -2.467467     19.249629     19.249629     38.499258
     -2.457457     22.084648     22.084648     44.169296
     -2.447447     25.605326     25.605326     51.210652
     -2.437437     29.200147     29.200147     58.400294
     -2.427427     32.424456     32.424456     64.848912
     -2.417417     35.110979     35.110979     70.221957
     -2.407407     37.344263     37.344263     74.688525
     -2.397397     39.309043     39.309043     78.618086
     -2.387387     41.085375     41.085375     82.170750
     -2.377377     42.497914     42.497914     84.995829
     -2.367367     43.109675     43.109675     86.219350
     -2.357357     42.382237     42.382237     84.764474
     -2.347347     39.935273     39.935273     79.870546
     -2.337337     35.778254     35.778254     71.556509
     -2.327327     30.395762     30.395762     60.791524
     -2.317317     24.643504     24.643504     49.287009
     -2.307307     19.508550     19.508550     39.017101
     -2.297297     15.845193     15.845193     31.690386
     -2.287287     14.188423     14.188423     28.376846
     -2.277277     14.689166     14.689166     29.378333
     -2.267267     17.154013     17.154013     34.308027
     -2.257257     21.140968     21.140968     42.281936
     -2.247247     26.065566     26.065566     52.131131
     -2.237237     31.291347     31.291347     62.582694
     -2.227227     36.197446     36.197446     72.394892
     -2.217217     40.227165     40.227165     80.454330
     -2.207207     42.926676     42.926676     85.853351
     -2.197197     43.984206     43.984206     87.968411
     -2.187187     43.275237     43.275237     86.550474
     -2.177177     40.905723     40.905723     81.811446
     -2.167167     37.227768     37.227768     74.455536
     -2.157157     32.794896     32.794896     65.589793
     -2.147147     28.241794     28.241794     56.483589
     -2.137137     24.114818     24.114818     48.229635
     -2.127127     20.720090     20.720090     41.440179
     -2.117117     18.062721     18.062721     36.125442
     -2.107107     15.910358     15.910358     31.820716
     -2.097097     13.948858     13.948858     27.897717
     -2.087087     11.950278     11.950278     23.900556
     -2.077077      9.874418      9.874418     19.748836
     -2.067067      7.870140      7.870140     15.740280
     -2.057057      6.197462      6.197462     12.394923
     -2.047047      5.120906      5.120906     10.241812
     -2.037037      4.818410      4.818410      9.636820
     -2.027027      5.325024      5.325024     10.650048
     -2.017017      6.511683      6.511683     13.023365
     -2.007007      8.097516      8.097516     16.195033
     -1.996997      9.700353      9.700353     19.400707
     -1.986987     10.927284     10.927284     21.854569
     -1.976977     11.488957     11.488957     22.977915
     -1.966967     11.299421     11.299421     22.598842
     -1.956957     10.517535     10.517535     21.035069
     -1.946947      9.505798      9.505798     19.011597
     -1.936937      8.718104      8.718104     17.436208
     -1.926927      8.557999      8.557999     17.115998
     -1.916917      9.257778      9.257778     18.515556
     -1.906907     10.815586     10.815586     21.631171
     -1.896897     13.003636     13.003636     26.007271
     -1.886887     15.437513     15.437513     30.875025
     -1.876877     17.681099     17.681099     35.362199
     -1.866867     19.356275     19.356275     38.712550
     -1.856857     20.230243     20.230243     40.460485
     -1.846847     20.262195     20.262195     40.524389
     -1.836837     19.599871     19.599871     39.199743
     -1.826827     18.524280     18.524280     37.048560
     -1.816817     17.351862     17.351862     34.703724
     -1.806807     16.320857     16.320857     32.641713
     -1.796797     15.504990     15.504990     31.009980
     -1.786787     14.796667     14.796667     29.593335
     -1.776777     13.973727     13.973727     27.947455
     -1.766767     12.820000     12.820000     25.639999
     -1.756757     11.238775     11.238775     22.477549
     -1.746747      9.303133      9.303133     18.606265
     -1.736737      7.225669      7.225669     14.451338
     -1.726727      5.275666      5.275666     10.551332
     -1.716717      3.694230      3.694230      7.388460
     -1.706707      2.646608      2.646608      5.293216
     -1.696697      2.218910      2.218910      4.437820
     -1.686687      2.437656      2.437656      4.875312
     -1.676677      3.282010      3.282010      6.564020
     -1.666667      4.672172      4.672172      9.344345
     -1.656657      6.442387      6.442387     12.884773
     -1.646647      8.327032      8.327032     16.654064
     -1.636637      9.989858      9.989858     19.979717
     -1.626627     11.105919     11.105919     22.211838
