# EIG2DOS: Utility for SIESTA to obtain the electronic density of states
#  E. Artacho, Apr 1999, A. Garcia, Apr 2012
#  Nick R. Papior, Feb 2017
# ------------------------------------------
# Eigenvalues calculated from a non-polarized calculation
# Eigenvalues read from siesta.EIG
# Kpoint weights read from siesta.KP
# Using smearing parameter:   0.0500
# Using 1000 points in the energy range
# Selected bands: 1 to: 2981
# Emin, Emax in file for selected band(s):    -27.0440406    218.3303140
# Nbands, Nspin, Nk   =   2981     1     1
# E_F                 =    -4.2763 eV --> (shifted to ZERO)
# Broadening          =     0.0500 eV
#
#        E            N(up)  (=)   N(down)         Ntot
     -5.000000     41.114573     41.114573     82.229145
     -4.989990     42.934354     42.934354     85.868707
     -4.979980     44.349574     44.349574     88.699149
     -4.969970     45.079006     45.079006     90.158012
     -4.959960     44.841891     44.841891     89.683783
     -4.949950     43.491500     43.491500     86.983001
     -4.939940     41.104725     41.104725     82.209451
     -4.929930     38.003058     38.003058     76.006116
     -4.919920     34.716560     34.716560     69.433120
     -4.909910     31.914638     31.914638     63.829275
     -4.899900     30.312579     30.312579     60.625159
     -4.889890     30.541927     30.541927     61.083854
     -4.879880     32.975651     32.975651     65.951302
     -4.869870     37.538468     37.538468     75.076937
     -4.859860     43.585500     43.585500     87.171000
     -4.849850     49.950289     49.950289     99.900579
     -4.839840     55.209719     55.209719    110.419437
     -4.829830     58.102489     58.102489    116.204978
     -4.819820     57.935676     57.935676    115.871352
     -4.809810     54.795086     54.795086    109.590172
     -4.799800     49.464315     49.464315     98.928629
     -4.789790     43.103758     43.103758     86.207516
     -4.779780     36.852298     36.852298     73.704595
     -4.769770     31.525370     31.525370     63.050741
     -4.759760     27.500838     27.500838     55.001675
     -4.749750     24.775022     24.775022     49.550044
     -4.739740     23.104521     23.104521     46.209042
     -4.729730     22.148083     22.148083     44.296167
     -4.719720     21.562365     21.562365     43.124730
     -4.709710     21.047733     21.047733     42.095465
     -4.699700     20.364433     20.364433     40.728867
     -4.689690     19.344807     19.344807     38.689614
     -4.679680     17.919449     17.919449     35.838899
     -4.669670     16.158771     16.158771     32.317542
     -4.659660     14.312463     14.312463     28.624926
     -4.649650     12.818095     12.818095     25.636190
     -4.639640     12.253630     12.253630     24.507259
     -4.629630     13.224897     13.224897     26.449793
     -4.619620     16.200478     16.200478     32.400957
     -4.609610     21.328409     21.328409     42.656818
     -4.599600     28.290470     28.290470     56.580939
     -4.589590     36.263114     36.263114     72.526229
     -4.579580     44.041535     44.041535     88.083069
     -4.569570     50.331160     50.331160    100.662319
     -4.559560     54.130694     54.130694    108.261387
     -4.549550     55.064817     55.064817    110.129633
     -4.539540     53.520569     53.520569    107.041139
     -4.529530     50.515124     50.515124    101.030247
     -4.519520     47.340759     47.340759     94.681518
     -4.509510     45.131952     45.131952     90.263904
     -4.499499     44.526607     44.526607     89.053215
     -4.489489     45.538124     45.538124     91.076249
     -4.479479     47.652128     47.652128     95.304255
     -4.469469     50.067837     50.067837    100.135674
     -4.459459     51.964310     51.964310    103.928620
     -4.449449     52.696470     52.696470    105.392941
     -4.439439     51.888824     51.888824    103.777648
     -4.429429     49.452484     49.452484     98.904967
     -4.419419     45.570691     45.570691     91.141382
     -4.409409     40.676442     40.676442     81.352884
     -4.399399     35.409282     35.409282     70.818564
     -4.389389     30.521438     30.521438     61.042876
     -4.379379     26.723664     26.723664     53.447328
     -4.369369     24.505526     24.505526     49.011053
     -4.359359     23.999826     23.999826     47.999651
     -4.349349     24.957387     24.957387     49.914774
     -4.339339     26.853415     26.853415     53.706829
     -4.329329     29.085252     29.085252     58.170504
     -4.319319     31.179477     31.179477     62.358954
     -4.309309     32.926438     32.926438     65.852875
     -4.299299     34.398333     34.398333     68.796665
     -4.289289     35.857459     35.857459     71.714918
     -4.279279     37.597814     37.597814     75.195627
     -4.269269     39.776267     39.776267     79.552534
     -4.259259     42.287292     42.287292     84.574583
     -4.249249     44.727709     44.727709     89.455419
     -4.239239     46.481831     46.481831     92.963663
     -4.229229     46.920532     46.920532     93.841065
     -4.219219     45.651709     45.651709     91.303418
     -4.209209     42.713454     42.713454     85.426908
     -4.199199     38.606321     38.606321     77.212641
     -4.189189     34.132048     34.132048     68.264096
     -4.179179     30.108178     30.108178     60.216357
     -4.169169     27.096074     27.096074     54.192148
     -4.159159     25.268654     25.268654     50.537308
     -4.149149     24.463157     24.463157     48.926314
     -4.139139     24.367152     24.367152     48.734305
     -4.129129     24.727938     24.727938     49.455877
     -4.119119     25.477913     25.477913     50.955826
     -4.109109     26.718494     26.718494     53.436988
     -4.099099     28.575590     28.575590     57.151180
     -4.089089     31.004526     31.004526     62.009052
     -4.079079     33.656952     33.656952     67.313905
     -4.069069     35.904316     35.904316     71.808633
     -4.059059     37.037436     37.037436     74.074872
     -4.049049     36.560958     36.560958     73.121916
     -4.039039     34.434970     34.434970     68.869941
     -4.029029     31.133273     31.133273     62.266547
     -4.019019     27.485653     27.485653     54.971305
     -4.009009     24.389342     24.389342     48.778683
     -3.998999     22.536770     22.536770     45.073540
     -3.988989     22.277071     22.277071     44.554142
     -3.978979     23.636044     23.636044     47.272089
     -3.968969     26.430817     26.430817     52.861635
     -3.958959     30.386646     30.386646     60.773291
     -3.948949     35.200394     35.200394     70.400788
     -3.938939     40.557455     40.557455     81.114910
     -3.928929     46.144184     46.144184     92.288369
     -3.918919     51.683556     51.683556    103.367113
     -3.908909     56.978231     56.978231    113.956462
     -3.898899     61.915742     61.915742    123.831483
     -3.888889     66.404245     66.404245    132.808489
     -3.878879     70.257165     70.257165    140.514330
     -3.868869     73.095140     73.095140    146.190281
     -3.858859     74.345806     74.345806    148.691612
     -3.848849     73.381621     73.381621    146.763242
     -3.838839     69.761461     69.761461    139.522922
     -3.828829     63.474611     63.474611    126.949221
     -3.818819     55.067304     55.067304    110.134608
     -3.808809     45.577451     45.577451     91.154902
     -3.798799     36.289808     36.289808     72.579615
     -3.788789     28.403659     28.403659     56.807318
     -3.778779     22.736049     22.736049     45.472099
     -3.768769     19.556322     19.556322     39.112645
     -3.758759     18.586677     18.586677     37.173354
     -3.748749     19.144730     19.144730     38.289460
     -3.738739     20.370492     20.370492     40.740985
     -3.728729     21.472812     21.472812     42.945624
     -3.718719     21.937990     21.937990     43.875980
     -3.708709     21.655825     21.655825     43.311651
     -3.698699     20.933472     20.933472     41.866944
     -3.688689     20.388075     20.388075     40.776149
     -3.678679     20.737697     20.737697     41.475394
     -3.668669     22.543484     22.543484     45.086967
     -3.658659     25.983250     25.983250     51.966499
     -3.648649     30.741018     30.741018     61.482035
     -3.638639     36.065077     36.065077     72.130154
     -3.628629     40.982633     40.982633     81.965267
     -3.618619     44.589636     44.589636     89.179272
     -3.608609     46.299897     46.299897     92.599794
     -3.598599     45.962425     45.962425     91.924850
     -3.588589     43.825866     43.825866     87.651733
     -3.578579     40.398402     40.398402     80.796803
     -3.568569     36.278678     36.278678     72.557355
     -3.558559     32.013537     32.013537     64.027075
     -3.548549     28.002257     28.002257     56.004514
     -3.538539     24.447694     24.447694     48.895388
     -3.528529     21.356888     21.356888     42.713776
     -3.518519     18.596172     18.596172     37.192344
     -3.508509     15.990784     15.990784     31.981568
     -3.498498     13.433511     13.433511     26.867021
     -3.488488     10.955233     10.955233     21.910465
     -3.478478      8.726994      8.726994     17.453987
     -3.468468      6.997847      6.997847     13.995693
     -3.458458      6.000616      6.000616     12.001232
     -3.448448      5.863456      5.863456     11.726911
     -3.438438      6.553748      6.553748     13.107496
     -3.428428      7.867707      7.867707     15.735415
     -3.418418      9.471376      9.471376     18.942753
     -3.408408     10.990730     10.990730     21.981460
     -3.398398     12.132131     12.132131     24.264261
     -3.388388     12.793520     12.793520     25.587040
     -3.378378     13.118165     13.118165     26.236331
     -3.368368     13.460511     13.460511     26.921021
     -3.358358     14.272679     14.272679     28.545359
     -3.348348     15.956366     15.956366     31.912731
     -3.338338     18.733873     18.733873     37.467747
     -3.328328     22.570802     22.570802     45.141604
     -3.318318     27.153003     27.153003     54.306006
     -3.308308     31.908702     31.908702     63.817405
     -3.298298     36.078579     36.078579     72.157158
     -3.288288     38.848784     38.848784     77.697567
     -3.278278     39.545358     39.545358     79.090715
     -3.268268     37.842053     37.842053     75.684106
     -3.258258     33.893564     33.893564     67.787128
     -3.248248     28.316571     28.316571     56.633142
     -3.238238     22.009278     22.009278     44.018556
     -3.228228     15.884218     15.884218     31.768435
     -3.218218     10.630761     10.630761     21.261522
     -3.208208      6.597112      6.597112     13.194224
     -3.198198      3.811253      3.811253      7.622506
     -3.188188      2.096074      2.096074      4.192148
     -3.178178      1.209986      1.209986      2.419973
     -3.168168      0.960075      0.960075      1.920150
     -3.158158      1.265969      1.265969      2.531938
     -3.148148      2.175453      2.175453      4.350906
     -3.138138      3.839491      3.839491      7.678983
     -3.128128      6.452238      6.452238     12.904475
     -3.118118     10.162803     10.162803     20.325605
     -3.108108     14.976106     14.976106     29.952212
     -3.098098     20.674909     20.674909     41.349818
     -3.088088     26.800893     26.800893     53.601785
     -3.078078     32.717831     32.717831     65.435661
     -3.068068     37.745731     37.745731     75.491462
     -3.058058     41.318653     41.318653     82.637306
     -3.048048     43.104831     43.104831     86.209663
     -3.038038     43.048282     43.048282     86.096565
     -3.028028     41.334624     41.334624     82.669249
     -3.018018     38.320689     38.320689     76.641379
     -3.008008     34.472130     34.472130     68.944261
     -2.997998     30.325582     30.325582     60.651164
     -2.987988     26.457811     26.457811     52.915622
     -2.977978     23.433358     23.433358     46.866717
     -2.967968     21.722397     21.722397     43.444795
     -2.957958     21.612175     21.612175     43.224351
     -2.947948     23.149576     23.149576     46.299153
     -2.937938     26.137072     26.137072     52.274145
     -2.927928     30.174527     30.174527     60.349055
     -2.917918     34.721816     34.721816     69.443632
     -2.907908     39.165332     39.165332     78.330664
     -2.897898     42.892567     42.892567     85.785133
     -2.887888     45.387001     45.387001     90.774002
     -2.877878     46.337072     46.337072     92.674145
     -2.867868     45.721657     45.721657     91.443315
     -2.857858     43.820563     43.820563     87.641127
     -2.847848     41.122038     41.122038     82.244075
     -2.837838     38.151487     38.151487     76.302974
     -2.827828     35.293603     35.293603     70.587206
     -2.817818     32.690827     32.690827     65.381653
     -2.807808     30.264437     30.264437     60.528874
     -2.797798     27.840237     27.840237     55.680473
     -2.787788     25.305728     25.305728     50.611456
     -2.777778     22.711485     22.711485     45.422970
     -2.767768     20.264270     20.264270     40.528540
     -2.757758     18.223415     18.223415     36.446829
     -2.747748     16.768206     16.768206     33.536413
     -2.737738     15.919411     15.919411     31.838822
     -2.727728     15.562575     15.562575     31.125150
     -2.717718     15.554931     15.554931     31.109863
     -2.707708     15.842215     15.842215     31.684429
     -2.697698     16.503021     16.503021     33.006042
     -2.687688     17.684739     17.684739     35.369477
     -2.677678     19.468585     19.468585     38.937171
     -2.667668     21.753676     21.753676     43.507351
     -2.657658     24.244065     24.244065     48.488130
     -2.647648     26.558651     26.558651     53.117302
     -2.637638     28.402392     28.402392     56.804785
     -2.627628     29.694325     29.694325     59.388649
     -2.617618     30.574943     30.574943     61.149886
     -2.607608     31.294851     31.294851     62.589703
     -2.597598     32.061194     32.061194     64.122387
     -2.587588     32.934837     32.934837     65.869675
     -2.577578     33.822093     33.822093     67.644186
     -2.567568     34.534403     34.534403     69.068807
     -2.557558     34.855698     34.855698     69.711397
     -2.547548     34.581104     34.581104     69.162207
     -2.537538     33.540462     33.540462     67.080925
     -2.527528     31.643254     31.643254     63.286509
     -2.517518     28.954948     28.954948     57.909896
     -2.507508     25.765231     25.765231     51.530462
     -2.497497     22.585065     22.585065     45.170131
     -2.487487     20.038007     20.038007     40.076014
     -2.477477     18.673350     18.673350     37.346700
     -2.467467     18.780558     18.780558     37.561116
     -2.457457     20.292355     20.292355     40.584709
     -2.447447     22.824643     22.824643     45.649285
     -2.437437     25.837774     25.837774     51.675548
     -2.427427     28.847024     28.847024     57.694048
     -2.417417     31.586268     31.586268     63.172537
     -2.407407     34.049271     34.049271     68.098542
     -2.397397     36.390211     36.390211     72.780422
     -2.387387     38.733845     38.733845     77.467690
     -2.377377     40.993174     40.993174     81.986347
     -2.367367     42.794222     42.794222     85.588443
     -2.357357     43.559966     43.559966     87.119933
     -2.347347     42.728782     42.728782     85.457564
     -2.337337     40.013299     40.013299     80.026597
     -2.327327     35.579880     35.579880     71.159760
     -2.317317     30.063462     30.063462     60.126924
     -2.307307     24.410443     24.410443     48.820887
     -2.297297     19.620078     19.620078     39.240155
     -2.287287     16.490004     16.490004     32.980008
     -2.277277     15.451434     15.451434     30.902868
     -2.267267     16.526462     16.526462     33.052925
     -2.257257     19.389656     19.389656     38.779313
     -2.247247     23.490150     23.490150     46.980300
     -2.237237     28.188065     28.188065     56.376131
     -2.227227     32.868500     32.868500     65.737000
     -2.217217     37.010508     37.010508     74.021015
     -2.207207     40.207533     40.207533     80.415066
     -2.197197     42.157854     42.157854     84.315708
     -2.187187     42.658440     42.658440     85.316880
     -2.177177     41.629338     41.629338     83.258676
     -2.167167     39.165569     39.165569     78.331137
     -2.157157     35.576980     35.576980     71.153960
     -2.147147     31.363311     31.363311     62.726621
     -2.137137     27.100230     27.100230     54.200459
     -2.127127     23.269533     23.269533     46.539066
     -2.117117     20.113140     20.113140     40.226281
     -2.107107     17.588569     17.588569     35.177137
     -2.097097     15.449504     15.449504     30.899009
     -2.087087     13.404316     13.404316     26.808632
     -2.077077     11.265624     11.265624     22.531247
     -2.067067      9.019313      9.019313     18.038626
     -2.057057      6.795922      6.795922     13.591843
     -2.047047      4.781476      4.781476      9.562953
     -2.037037      3.126304      3.126304      6.252607
     -2.027027      1.894536      1.894536      3.789072
     -2.017017      1.063654      1.063654      2.127308
     -2.007007      0.556868      0.556868      1.113736
     -1.996997      0.283504      0.283504      0.567007
     -1.986987      0.170416      0.170416      0.340831
     -1.976977      0.179797      0.179797      0.359593
     -1.966967      0.316710      0.316710      0.633421
     -1.956957      0.630431      0.630431      1.260863
     -1.946947      1.209611      1.209611      2.419223
     -1.936937      2.167013      2.167013      4.334027
     -1.926927      3.609407      3.609407      7.218814
     -1.916917      5.594280      5.594280     11.188560
     -1.906907      8.085088      8.085088     16.170175
     -1.896897     10.924407     10.924407     21.848815
     -1.886887     13.842619     13.842619     27.685237
     -1.876877     16.506896     16.506896     33.013792
     -1.866867     18.597992     18.597992     37.195985
     -1.856857     19.890550     19.890550     39.781100
     -1.846847     20.311830     20.311830     40.623661
     -1.836837     19.960700     19.960700     39.921400
     -1.826827     19.077945     19.077945     38.155891
     -1.816817     17.970091     17.970091     35.940183
     -1.806807     16.905231     16.905231     33.810462
     -1.796797     16.018158     16.018158     32.036315
     -1.786787     15.269741     15.269741     30.539481
     -1.776777     14.487867     14.487867     28.975735
     -1.766767     13.476984     13.476984     26.953968
     -1.756757     12.143708     12.143708     24.287415
     -1.746747     10.574823     10.574823     21.149647
     -1.736737      9.029753      9.029753     18.059506
     -1.726727      7.854475      7.854475     15.708951
     -1.716717      7.359371      7.359371     14.718742
     -1.706707      7.712544      7.712544     15.425088
     -1.696697      8.885871      8.885871     17.771741
     -1.686687     10.666813     10.666813     21.333626
     -1.676677     12.725391     12.725391     25.450781
     -1.666667     14.707321     14.707321     29.414642
     -1.656657     16.316025     16.316025     32.632050
     -1.646647     17.354436     17.354436     34.708871
     -1.636637     17.722392     17.722392     35.444783
     -1.626627     17.393078     17.393078     34.786156
