# EIG2DOS: Utility for SIESTA to obtain the electronic density of states
#  E. Artacho, Apr 1999, A. Garcia, Apr 2012
#  Nick R. Papior, Feb 2017
# ------------------------------------------
# Eigenvalues calculated from a non-polarized calculation
# Eigenvalues read from siesta.EIG
# Kpoint weights read from siesta.KP
# Using smearing parameter:   0.0500
# Using 1000 points in the energy range
# Selected bands: 1 to: 2981
# Emin, Emax in file for selected band(s):    -27.1237521    218.3692040
# Nbands, Nspin, Nk   =   2981     1     1
# E_F                 =    -4.2402 eV --> (shifted to ZERO)
# Broadening          =     0.0500 eV
#
#        E            N(up)  (=)   N(down)         Ntot
     -5.000000     32.826281     32.826281     65.652563
     -4.989990     37.064755     37.064755     74.129509
     -4.979980     40.866451     40.866451     81.732903
     -4.969970     43.639014     43.639014     87.278028
     -4.959960     44.901535     44.901535     89.803070
     -4.949950     44.439687     44.439687     88.879374
     -4.939940     42.385537     42.385537     84.771073
     -4.929930     39.201766     39.201766     78.403531
     -4.919920     35.593624     35.593624     71.187249
     -4.909910     32.389076     32.389076     64.778152
     -4.899900     30.411189     30.411189     60.822378
     -4.889890     30.338533     30.338533     60.677067
     -4.879880     32.543212     32.543212     65.086424
     -4.869870     36.928354     36.928354     73.856707
     -4.859860     42.835398     42.835398     85.670797
     -4.849850     49.108746     49.108746     98.217492
     -4.839840     54.357026     54.357026    108.714052
     -4.829830     57.350263     57.350263    114.700525
     -4.819820     57.401251     57.401251    114.802501
     -4.809810     54.563843     54.563843    109.127685
     -4.799800     49.561350     49.561350     99.122700
     -4.789790     43.489969     43.489969     86.979937
     -4.779780     37.444163     37.444163     74.888326
     -4.769770     32.224630     32.224630     64.449261
     -4.759760     28.218470     28.218470     56.436940
     -4.749750     25.442227     25.442227     50.884454
     -4.739740     23.673320     23.673320     47.346640
     -4.729730     22.588300     22.588300     45.176600
     -4.719720     21.859459     21.859459     43.718919
     -4.709710     21.201776     21.201776     42.403552
     -4.699700     20.388941     20.388941     40.777883
     -4.689690     19.265488     19.265488     38.530976
     -4.679680     17.774402     17.774402     35.548804
     -4.669670     16.000775     16.000775     32.001550
     -4.659660     14.211138     14.211138     28.422276
     -4.649650     12.857385     12.857385     25.714770
     -4.639640     12.520689     12.520689     25.041377
     -4.629630     13.790905     13.790905     27.581809
     -4.619620     17.101047     17.101047     34.202094
     -4.609610     22.557936     22.557936     45.115872
     -4.599600     29.825586     29.825586     59.651172
     -4.589590     38.119855     38.119855     76.239710
     -4.579580     46.349059     46.349059     92.698119
     -4.569570     53.381801     53.381801    106.763603
     -4.559560     58.359487     58.359487    116.718974
     -4.549550     60.934473     60.934473    121.868946
     -4.539540     61.335129     61.335129    122.670259
     -4.529530     60.231709     60.231709    120.463418
     -4.519520     58.463069     58.463069    116.926138
     -4.509510     56.738023     56.738023    113.476045
     -4.499499     55.423572     55.423572    110.847143
     -4.489489     54.484771     54.484771    108.969541
     -4.479479     53.575770     53.575770    107.151540
     -4.469469     52.226873     52.226873    104.453747
     -4.459459     50.045916     50.045916    100.091832
     -4.449449     46.859730     46.859730     93.719460
     -4.439439     42.757164     42.757164     85.514328
     -4.429429     38.042404     38.042404     76.084808
     -4.419419     33.142830     33.142830     66.285659
     -4.409409     28.520936     28.520936     57.041872
     -4.399399     24.614838     24.614838     49.229675
     -4.389389     21.797630     21.797630     43.595261
     -4.379379     20.330661     20.330661     40.661322
     -4.369369     20.302149     20.302149     40.604298
     -4.359359     21.575747     21.575747     43.151494
     -4.349349     23.792586     23.792586     47.585172
     -4.339339     26.454345     26.454345     52.908690
     -4.329329     29.071345     29.071345     58.142690
     -4.319319     31.318443     31.318443     62.636887
     -4.309309     33.130662     33.130662     66.261325
     -4.299299     34.695670     34.695670     69.391340
     -4.289289     36.343750     36.343750     72.687500
     -4.279279     38.374383     38.374383     76.748766
     -4.269269     40.880041     40.880041     81.760082
     -4.259259     43.632902     43.632902     87.265804
     -4.249249     46.089697     46.089697     92.179394
     -4.239239     47.537880     47.537880     95.075760
     -4.229229     47.350113     47.350113     94.700226
     -4.219219     45.251896     45.251896     90.503793
     -4.209209     41.478025     41.478025     82.956049
     -4.199199     36.729872     36.729872     73.459744
     -4.189189     31.939886     31.939886     63.879772
     -4.179179     27.949783     27.949783     55.899566
     -4.169169     25.252128     25.252128     50.504257
     -4.159159     23.905101     23.905101     47.810202
     -4.149149     23.635717     23.635717     47.271434
     -4.139139     24.056047     24.056047     48.112094
     -4.129129     24.875650     24.875650     49.751300
     -4.119119     26.010819     26.010819     52.021638
     -4.109109     27.547753     27.547753     55.095506
     -4.099099     29.585891     29.585891     59.171782
     -4.089089     32.046144     32.046144     64.092287
     -4.079079     34.554713     34.554713     69.109425
     -4.069069     36.487266     36.487266     72.974533
     -4.059059     37.180086     37.180086     74.360173
     -4.049049     36.218526     36.218526     72.437051
     -4.039039     33.656880     33.656880     67.313760
     -4.029029     30.050321     30.050321     60.100642
     -4.019019     26.278928     26.278928     52.557857
     -4.009009     23.254643     23.254643     46.509287
     -3.998999     21.654436     21.654436     43.308872
     -3.988989     21.789249     21.789249     43.578498
     -3.978979     23.629174     23.629174     47.258348
     -3.968969     26.923397     26.923397     53.846794
     -3.958959     31.327239     31.327239     62.654479
     -3.948949     36.481779     36.481779     72.963559
     -3.938939     42.046921     42.046921     84.093841
     -3.928929     47.720459     47.720459     95.440919
     -3.918919     53.264257     53.264257    106.528514
     -3.908909     58.523439     58.523439    117.046878
     -3.898899     63.404137     63.404137    126.808273
     -3.888889     67.793463     67.793463    135.586925
     -3.878879     71.451556     71.451556    142.903112
     -3.868869     73.943897     73.943897    147.887794
     -3.858859     74.680280     74.680280    149.360560
     -3.848849     73.078865     73.078865    146.157730
     -3.838839     68.804324     68.804324    137.608649
     -3.828829     61.977918     61.977918    123.955835
     -3.818819     53.256029     53.256029    106.512058
     -3.808809     43.726359     43.726359     87.452719
     -3.798799     34.650774     34.650774     69.301548
     -3.788789     27.148407     27.148407     54.296814
     -3.778779     21.930469     21.930469     43.860939
     -3.768769     19.167004     19.167004     38.334007
     -3.758759     18.509586     18.509586     37.019172
     -3.748749     19.243191     19.243191     38.486381
     -3.738739     20.512275     20.512275     41.024550
     -3.728729     21.560056     21.560056     43.120111
     -3.718719     21.926292     21.926292     43.852584
     -3.708709     21.560151     21.560151     43.120302
     -3.698699     20.819738     20.819738     41.639475
     -3.688689     20.351421     20.351421     40.702842
     -3.678679     20.871681     20.871681     41.743361
     -3.668669     22.907862     22.907862     45.815724
     -3.658659     26.580079     26.580079     53.160157
     -3.648649     31.507623     31.507623     63.015246
     -3.638639     36.887295     36.887295     73.774591
     -3.628629     41.724017     41.724017     83.448034
     -3.618619     45.125879     45.125879     90.251758
     -3.608609     46.546396     46.546396     93.092792
     -3.598599     45.887468     45.887468     91.774935
     -3.588589     43.449203     43.449203     86.898405
     -3.578579     39.780054     39.780054     79.560108
     -3.568569     35.503428     35.503428     71.006857
     -3.558559     31.174308     31.174308     62.348615
     -3.548549     27.184014     27.184014     54.368028
     -3.538539     23.714053     23.714053     47.428105
     -3.528529     20.742633     20.742633     41.485265
     -3.518519     18.108046     18.108046     36.216093
     -3.508509     15.615736     15.615736     31.231471
     -3.498498     13.150259     13.150259     26.300519
     -3.488488     10.744061     10.744061     21.488122
     -3.478478      8.574545      8.574545     17.149089
     -3.468468      6.896854      6.896854     13.793708
     -3.458458      5.946708      5.946708     11.893416
     -3.448448      5.851606      5.851606     11.703212
     -3.438438      6.576144      6.576144     13.152289
     -3.428428      7.913805      7.913805     15.827610
     -3.418418      9.530184      9.530184     19.060367
     -3.408408     11.054737     11.054737     22.109473
     -3.398398     12.201541     12.201541     24.403082
     -3.388388     12.878916     12.878916     25.757832
     -3.378378     13.239983     13.239983     26.479967
     -3.368368     13.644991     13.644991     27.289982
     -3.358358     14.545501     14.545501     29.091002
     -3.348348     16.335796     16.335796     32.671593
     -3.338338     19.224455     19.224455     38.448911
     -3.328328     23.157341     23.157341     46.314682
     -3.318318     27.794860     27.794860     55.589719
     -3.308308     32.536875     32.536875     65.073749
     -3.298298     36.600781     36.600781     73.201562
     -3.288288     39.166999     39.166999     78.333997
     -3.278278     39.584319     39.584319     79.168638
     -3.268268     37.579018     37.579018     75.158036
     -3.258258     33.376316     33.376316     66.752632
     -3.248248     27.662230     27.662230     55.324460
     -3.238238     21.388551     21.388551     42.777101
     -3.228228     15.505336     15.505336     31.010673
     -3.218218     10.736358     10.736358     21.472715
     -3.208208      7.474652      7.474652     14.949304
     -3.198198      5.800946      5.800946     11.601891
     -3.188188      5.570989      5.570989     11.141979
     -3.178178      6.510309      6.510309     13.020619
     -3.168168      8.287179      8.287179     16.574357
     -3.158158     10.571516     10.571516     21.143032
     -3.148148     13.097800     13.097800     26.195601
     -3.138138     15.729268     15.729268     31.458535
     -3.128128     18.491396     18.491396     36.982791
     -3.118118     21.536368     21.536368     43.072735
     -3.108108     25.030910     25.030910     50.061819
     -3.098098     29.010491     29.010491     58.020982
     -3.088088     33.275784     33.275784     66.551567
     -3.078078     37.393542     37.393542     74.787084
     -3.068068     40.808051     40.808051     81.616102
     -3.058058     43.007545     43.007545     86.015090
     -3.048048     43.664099     43.664099     87.328197
     -3.038038     42.690749     42.690749     85.381498
     -3.028028     40.214648     40.214648     80.429295
     -3.018018     36.509863     36.509863     73.019727
     -3.008008     31.940331     31.940331     63.880662
     -2.997998     26.935591     26.935591     53.871182
     -2.987988     21.986532     21.986532     43.973063
     -2.977978     17.631927     17.631927     35.263853
     -2.967968     14.415342     14.415342     28.830684
     -2.957958     12.812239     12.812239     25.624478
     -2.947948     13.141950     13.141950     26.283899
     -2.937938     15.483740     15.483740     30.967481
     -2.927928     19.617130     19.617130     39.234261
     -2.917918     25.009660     25.009660     50.019319
     -2.907908     30.875556     30.875556     61.751113
     -2.897898     36.315108     36.315108     72.630216
     -2.887888     40.513196     40.513196     81.026392
     -2.877878     42.939129     42.939129     85.878258
     -2.867868     43.472142     43.472142     86.944284
     -2.857858     42.395592     42.395592     84.791184
     -2.847848     40.255389     40.255389     80.510778
     -2.837838     37.640027     37.640027     75.280054
     -2.827828     34.977466     34.977466     69.954932
     -2.817818     32.435658     32.435658     64.871317
     -2.807808     29.960955     29.960955     59.921909
     -2.797798     27.418904     27.418904     54.837809
     -2.787788     24.752311     24.752311     49.504623
     -2.777778     22.068594     22.068594     44.137187
     -2.767768     19.613611     19.613611     39.227222
     -2.757758     17.656431     17.656431     35.312862
     -2.747748     16.360527     16.360527     32.721053
     -2.737738     15.721936     15.721936     31.443871
     -2.727728     15.610436     15.610436     31.220872
     -2.717718     15.882383     15.882383     31.764767
     -2.707708     16.485759     16.485759     32.971518
     -2.697698     17.481893     17.481893     34.963785
     -2.687688     18.964646     18.964646     37.929291
     -2.677678     20.931108     20.931108     41.862216
     -2.667668     23.197799     23.197799     46.395597
     -2.657658     25.432008     25.432008     50.864017
     -2.647648     27.291912     27.291912     54.583825
     -2.637638     28.592415     28.592415     57.184831
     -2.627628     29.391498     29.391498     58.782995
     -2.617618     29.942038     29.942038     59.884076
     -2.607608     30.541691     30.541691     61.083381
     -2.597598     31.375035     31.375035     62.750070
     -2.587588     32.435080     32.435080     64.870161
     -2.577578     33.546733     33.546733     67.093465
     -2.567568     34.447901     34.447901     68.895802
     -2.557558     34.865758     34.865758     69.731515
     -2.547548     34.561125     34.561125     69.122251
     -2.537538     33.361328     33.361328     66.722656
     -2.527528     31.213598     31.213598     62.427196
     -2.517518     28.257778     28.257778     56.515556
     -2.507508     24.873042     24.873042     49.746085
     -2.497497     21.643005     21.643005     43.286011
     -2.487487     19.220785     19.220785     38.441569
     -2.477477     18.134764     18.134764     36.269528
     -2.467467     18.616177     18.616177     37.232354
     -2.457457     20.526691     20.526691     41.053382
     -2.447447     23.421470     23.421470     46.842940
     -2.437437     26.723276     26.723276     53.446552
     -2.427427     29.933134     29.933134     59.866269
     -2.417417     32.784787     32.784787     65.569575
     -2.407407     35.273504     35.273504     70.547007
     -2.397397     37.547475     37.547475     75.094950
     -2.387387     39.717079     39.717079     79.434157
     -2.377377     41.681304     41.681304     83.362608
     -2.367367     43.067821     43.067821     86.135641
     -2.357357     43.331428     43.331428     86.662856
     -2.347347     41.977224     41.977224     83.954448
     -2.337337     38.808333     38.808333     77.616667
     -2.327327     34.080003     34.080003     68.160005
     -2.317317     28.485080     28.485080     56.970160
     -2.307307     22.977519     22.977519     45.955039
     -2.297297     18.513662     18.513662     37.027325
     -2.287287     15.815929     15.815929     31.631858
     -2.277277     15.234426     15.234426     30.468852
     -2.267267     16.726602     16.726602     33.453204
     -2.257257     19.929018     19.929018     39.858036
     -2.247247     24.276391     24.276391     48.552782
     -2.237237     29.126479     29.126479     58.252958
     -2.227227     33.861751     33.861751     67.723501
     -2.217217     37.952652     37.952652     75.905305
     -2.207207     40.982692     40.982692     81.965384
     -2.197197     42.651737     42.651737     85.303474
     -2.187187     42.783170     42.783170     85.566340
     -2.177177     41.352507     41.352507     82.705013
     -2.167167     38.528761     38.528761     77.057522
     -2.157157     34.691213     34.691213     69.382425
     -2.147147     30.378818     30.378818     60.757636
     -2.137137     26.160950     26.160950     52.321900
     -2.127127     22.471333     22.471333     44.942665
     -2.117117     19.483740     19.483740     38.967479
     -2.107107     17.096355     17.096355     34.192710
     -2.097097     15.033904     15.033904     30.067808
     -2.087087     13.010697     13.010697     26.021393
     -2.077077     10.868092     10.868092     21.736184
     -2.067067      8.623948      8.623948     17.247895
     -2.057057      6.428298      6.428298     12.856595
     -2.047047      4.468994      4.468994      8.937989
     -2.037037      2.885171      2.885171      5.770341
     -2.027027      1.725714      1.725714      3.451428
     -2.017017      0.956281      0.956281      1.912561
     -2.007007      0.494799      0.494799      0.989599
     -1.996997      0.251101      0.251101      0.502202
     -1.986987      0.155798      0.155798      0.311595
     -1.976977      0.175728      0.175728      0.351456
     -1.966967      0.320157      0.320157      0.640313
     -1.956957      0.641751      0.641751      1.283502
     -1.946947      1.231866      1.231866      2.463733
     -1.936937      2.205443      2.205443      4.410887
     -1.926927      3.670928      3.670928      7.341857
     -1.916917      5.686990      5.686990     11.373979
     -1.906907      8.218177      8.218177     16.436354
     -1.896897     11.109660     11.109660     22.219320
     -1.886887     14.099657     14.099657     28.199315
     -1.876877     16.875073     16.875073     33.750145
     -1.866867     19.156992     19.156992     38.313984
     -1.856857     20.787813     20.787813     41.575627
     -1.846847     21.787292     21.787292     43.574584
     -1.836837     22.350836     22.350836     44.701671
     -1.826827     22.778295     22.778295     45.556590
     -1.816817     23.345451     23.345451     46.690901
     -1.806807     24.160971     24.160971     48.321941
     -1.796797     25.074832     25.074832     50.149664
     -1.786787     25.697780     25.697780     51.395561
     -1.776777     25.544138     25.544138     51.088277
     -1.766767     24.241713     24.241713     48.483425
     -1.756757     21.706953     21.706953     43.413907
     -1.746747     18.196969     18.196969     36.393937
     -1.736737     14.217839     14.217839     28.435679
     -1.726727     10.346196     10.346196     20.692391
     -1.716717      7.057988      7.057988     14.115976
     -1.706707      4.636906      4.636906      9.273812
     -1.696697      3.177890      3.177890      6.355780
     -1.686687      2.649177      2.649177      5.298354
     -1.676677      2.957314      2.957314      5.914628
     -1.666667      3.975639      3.975639      7.951277
     -1.656657      5.531294      5.531294     11.062587
     -1.646647      7.377538      7.377538     14.755076
     -1.636637      9.190864      9.190864     18.381729
     -1.626627     10.620035     10.620035     21.240069
