# EIG2DOS: Utility for SIESTA to obtain the electronic density of states
#  E. Artacho, Apr 1999, A. Garcia, Apr 2012
#  Nick R. Papior, Feb 2017
# ------------------------------------------
# Eigenvalues calculated from a non-polarized calculation
# Eigenvalues read from siesta.EIG
# Kpoint weights read from siesta.KP
# Using smearing parameter:   0.0500
# Using 1000 points in the energy range
# Selected bands: 1 to: 2981
# Emin, Emax in file for selected band(s):    -27.0341668    218.3127350
# Nbands, Nspin, Nk   =   2981     1     1
# E_F                 =    -4.2974 eV --> (shifted to ZERO)
# Broadening          =     0.0500 eV
#
#        E            N(up)  (=)   N(down)         Ntot
     -5.000000     42.204291     42.204291     84.408582
     -4.989990     47.202202     47.202202     94.404405
     -4.979980     51.018385     51.018385    102.036770
     -4.969970     53.088384     53.088384    106.176767
     -4.959960     53.108332     53.108332    106.216664
     -4.949950     51.131048     51.131048    102.262097
     -4.939940     47.559732     47.559732     95.119464
     -4.929930     43.055978     43.055978     86.111956
     -4.919920     38.415044     38.415044     76.830087
     -4.909910     34.457277     34.457277     68.914553
     -4.899900     31.945978     31.945978     63.891956
     -4.889890     31.500520     31.500520     63.001039
     -4.879880     33.467278     33.467278     66.934556
     -4.869870     37.755136     37.755136     75.510271
     -4.859860     43.710867     43.710867     87.421735
     -4.849850     50.145965     50.145965    100.291929
     -4.839840     55.583614     55.583614    111.167228
     -4.829830     58.679798     58.679798    117.359596
     -4.819820     58.654494     58.654494    117.308988
     -4.809810     55.533945     55.533945    111.067891
     -4.799800     50.089433     50.089433    100.178865
     -4.789790     43.513820     43.513820     87.027639
     -4.779780     37.003569     37.003569     74.007137
     -4.769770     31.433568     31.433568     62.867136
     -4.759760     27.227282     27.227282     54.454565
     -4.749750     24.406956     24.406956     48.813911
     -4.739740     22.735445     22.735445     45.470889
     -4.729730     21.859946     21.859946     43.719892
     -4.719720     21.411036     21.411036     42.822071
     -4.709710     21.054614     21.054614     42.109228
     -4.699700     20.516641     20.516641     41.033283
     -4.689690     19.602833     19.602833     39.205665
     -4.679680     18.227384     18.227384     36.454768
     -4.669670     16.451485     16.451485     32.902970
     -4.659660     14.517508     14.517508     29.035017
     -4.649650     12.855258     12.855258     25.710517
     -4.639640     12.038630     12.038630     24.077260
     -4.629630     12.683509     12.683509     25.367018
     -4.619620     15.294692     15.294692     30.589385
     -4.609610     20.088151     20.088151     40.176302
     -4.599600     26.835995     26.835995     53.671989
     -4.589590     34.799935     34.799935     69.599869
     -4.579580     42.816980     42.816980     85.633960
     -4.569570     49.559387     49.559387     99.118775
     -4.559560     53.912904     53.912904    107.825808
     -4.549550     55.340459     55.340459    110.680919
     -4.539540     54.074828     54.074828    108.149655
     -4.529530     51.041455     51.041455    102.082910
     -4.519520     47.529451     47.529451     95.058902
     -4.509510     44.742801     44.742801     89.485602
     -4.499499     43.413486     43.413486     86.826972
     -4.489489     43.620273     43.620273     87.240545
     -4.479479     44.857845     44.857845     89.715691
     -4.469469     46.295494     46.295494     92.590987
     -4.459459     47.102240     47.102240     94.204479
     -4.449449     46.715225     46.715225     93.430449
     -4.439439     44.975970     44.975970     89.951939
     -4.429429     42.122309     42.122309     84.244617
     -4.419419     38.672515     38.672515     77.345030
     -4.409409     35.258515     35.258515     70.517030
     -4.399399     32.460491     32.460491     64.920983
     -4.389389     30.678577     30.678577     61.357154
     -4.379379     30.060840     30.060840     60.121681
     -4.369369     30.494965     30.494965     60.989930
     -4.359359     31.661210     31.661210     63.322421
     -4.349349     33.132886     33.132886     66.265771
     -4.339339     34.498558     34.498558     68.997116
     -4.329329     35.473054     35.473054     70.946108
     -4.319319     35.967076     35.967076     71.934151
     -4.309309     36.098205     36.098205     72.196410
     -4.299299     36.143818     36.143818     72.287636
     -4.289289     36.450913     36.450913     72.901826
     -4.279279     37.324008     37.324008     74.648015
     -4.269269     38.912383     38.912383     77.824767
     -4.259259     41.120163     41.120163     82.240326
     -4.249249     43.570655     43.570655     87.141310
     -4.239239     45.660136     45.660136     91.320272
     -4.229229     46.716721     46.716721     93.433441
     -4.219219     46.230442     46.230442     92.460884
     -4.209209     44.064598     44.064598     88.129197
     -4.199199     40.540533     40.540533     81.081065
     -4.189189     36.337181     36.337181     72.674362
     -4.179179     32.243167     32.243167     64.486335
     -4.169169     28.881678     28.881678     57.763356
     -4.159159     26.540502     26.540502     53.081005
     -4.149149     25.175071     25.175071     50.350142
     -4.139139     24.556549     24.556549     49.113099
     -4.129129     24.468550     24.468550     48.937101
     -4.119119     24.845000     24.845000     49.689999
     -4.109109     25.781240     25.781240     51.562480
     -4.099099     27.415580     27.415580     54.831159
     -4.089089     29.743905     29.743905     59.487811
     -4.079079     32.472183     32.472183     64.944367
     -4.069069     35.006982     35.006982     70.013963
     -4.059059     36.621808     36.621808     73.243616
     -4.049049     36.739336     36.739336     73.478672
     -4.039039     35.192234     35.192234     70.384469
     -4.029029     32.323753     32.323753     64.647506
     -4.019019     28.873314     28.873314     57.746629
     -4.009009     25.711243     25.711243     51.422486
     -3.998999     23.562812     23.562812     47.125624
     -3.988989     22.847904     22.847904     45.695808
     -3.978979     23.676160     23.676160     47.352321
     -3.968969     25.944034     25.944034     51.888067
     -3.958959     29.441918     29.441918     58.883837
     -3.948949     33.911290     33.911290     67.822581
     -3.938939     39.055763     39.055763     78.111526
     -3.928929     44.550734     44.550734     89.101467
     -3.918919     50.084985     50.084985    100.169969
     -3.908909     55.421154     55.421154    110.842308
     -3.898899     60.424761     60.424761    120.849522
     -3.888889     65.017923     65.017923    130.035847
     -3.878879     69.063008     69.063008    138.126017
     -3.868869     72.239909     72.239909    144.479817
     -3.858859     74.006758     74.006758    148.013516
     -3.848849     73.704721     73.704721    147.409441
     -3.838839     70.792924     70.792924    141.585847
     -3.828829     65.119459     65.119459    130.238918
     -3.818819     57.097249     57.097249    114.194497
     -3.808809     47.686734     47.686734     95.373468
     -3.798799     38.175812     38.175812     76.351624
     -3.788789     29.841026     29.841026     59.682051
     -3.778779     23.620705     23.620705     47.241411
     -3.768769     19.911611     19.911611     39.823222
     -3.758759     18.537644     18.537644     37.075288
     -3.748749     18.873229     18.873229     37.746457
     -3.738739     20.064033     20.064033     40.128066
     -3.728729     21.277881     21.277881     42.555763
     -3.718719     21.926450     21.926450     43.852899
     -3.708709     21.811096     21.811096     43.622192
     -3.698699     21.160206     21.160206     42.320413
     -3.688689     20.544183     20.544183     41.088367
     -3.678679     20.681382     20.681382     41.362763
     -3.668669     22.182154     22.182154     44.364308
     -3.658659     25.308515     25.308515     50.617030
     -3.648649     29.836860     29.836860     59.673720
     -3.638639     35.085434     35.085434     70.170867
     -3.628629     40.106877     40.106877     80.213754
     -3.618619     43.973597     43.973597     87.947194
     -3.608609     46.040548     46.040548     92.081095
     -3.598599     46.085676     46.085676     92.171351
     -3.588589     44.295031     44.295031     88.590061
     -3.578579     41.133608     41.133608     82.267216
     -3.568569     37.178195     37.178195     74.356390
     -3.558559     32.973157     32.973157     65.946314
     -3.548549     28.932357     28.932357     57.864713
     -3.538539     25.286704     25.286704     50.573408
     -3.528529     22.077426     22.077426     44.154853
     -3.518519     19.200606     19.200606     38.401213
     -3.508509     16.497506     16.497506     32.995011
     -3.498498     13.860315     13.860315     27.720630
     -3.488488     11.307616     11.307616     22.615231
     -3.478478      8.995841      8.995841     17.991683
     -3.468468      7.165786      7.165786     14.331572
     -3.458458      6.052787      6.052787     12.105573
     -3.448448      5.797976      5.797976     11.595953
     -3.438438      6.388358      6.388358     12.776715
     -3.428428      7.640186      7.640186     15.280373
     -3.418418      9.232344      9.232344     18.464687
     -3.408408     10.789316     10.789316     21.578632
     -3.398398     11.998273     11.998273     23.996546
     -3.388388     12.723508     12.723508     25.447017
     -3.378378     13.070011     13.070011     26.140023
     -3.368368     13.361877     13.361877     26.723755
     -3.358358     14.038722     14.038722     28.077445
     -3.348348     15.511695     15.511695     31.023389
     -3.338338     18.033755     18.033755     36.067510
     -3.328328     21.619595     21.619595     43.239190
     -3.318318     26.018328     26.018328     52.036656
     -3.308308     30.726272     30.726272     61.452544
     -3.298298     35.038663     35.038663     70.077326
     -3.288288     38.157860     38.157860     76.315720
     -3.278278     39.368445     39.368445     78.736890
     -3.268268     38.246343     38.246343     76.492686
     -3.258258     34.820186     34.820186     69.640372
     -3.248248     29.596922     29.596922     59.193844
     -3.238238     23.420058     23.420058     46.840117
     -3.228228     17.215706     17.215706     34.431412
     -3.218218     11.738710     11.738710     23.477420
     -3.208208      7.421018      7.421018     14.842036
     -3.198198      4.360527      4.360527      8.721053
     -3.188188      2.418626      2.418626      4.837251
     -3.178178      1.359619      1.359619      2.719239
     -3.168168      0.972892      0.972892      1.945783
     -3.158158      1.148453      1.148453      2.296907
     -3.148148      1.902651      1.902651      3.805302
     -3.138138      3.361261      3.361261      6.722521
     -3.128128      5.706434      5.706434     11.412869
     -3.118118      9.093962      9.093962     18.187923
     -3.108108     13.556073     13.556073     27.112145
     -3.098098     18.919815     18.919815     37.839630
     -3.088088     24.779394     24.779394     49.558789
     -3.078078     30.549349     30.549349     61.098698
     -3.068068     35.591759     35.591759     71.183519
     -3.058058     39.370641     39.370641     78.741282
     -3.048048     41.567203     41.567203     83.134406
     -3.038038     42.109556     42.109556     84.219112
     -3.028028     41.121501     41.121501     82.243002
     -3.018018     38.842833     38.842833     77.685667
     -3.008008     35.581998     35.581998     71.163996
     -2.997998     31.723712     31.723712     63.447425
     -2.987988     27.759657     27.759657     55.519314
     -2.977978     24.283417     24.283417     48.566833
     -2.967968     21.912504     21.912504     43.825008
     -2.957958     21.152015     21.152015     42.304029
     -2.947948     22.256142     22.256142     44.512284
     -2.937938     25.147268     25.147268     50.294536
     -2.927928     29.421179     29.421179     58.842358
     -2.917918     34.428142     34.428142     68.856285
     -2.907908     39.398475     39.398475     78.796950
     -2.897898     43.582856     43.582856     87.165711
     -2.887888     46.387572     46.387572     92.775143
     -2.877878     47.486678     47.486678     94.973355
     -2.867868     46.884941     46.884941     93.769882
     -2.857858     44.902021     44.902021     89.804041
     -2.847848     42.065438     42.065438     84.130876
     -2.837838     38.937399     38.937399     77.874799
     -2.827828     35.938240     35.938240     71.876480
     -2.817818     33.240548     33.240548     66.481096
     -2.807808     30.779846     30.779846     61.559692
     -2.797798     28.371517     28.371517     56.743034
     -2.787788     25.869689     25.869689     51.739378
     -2.777778     23.283064     23.283064     46.566128
     -2.767768     20.788249     20.788249     41.576498
     -2.757758     18.639984     18.639984     37.279968
     -2.747748     17.036830     17.036830     34.073659
     -2.737738     16.025955     16.025955     32.051910
     -2.727728     15.505553     15.505553     31.011107
     -2.717718     15.321673     15.321673     30.643347
     -2.707708     15.394964     15.394964     30.789928
     -2.697698     15.791145     15.791145     31.582291
     -2.687688     16.682872     16.682872     33.365744
     -2.677678     18.220853     18.220853     36.441705
     -2.667668     20.394310     20.394310     40.788619
     -2.657658     22.973536     22.973536     45.947072
     -2.647648     25.579175     25.579175     51.158350
     -2.637638     27.842727     27.842727     55.685453
     -2.627628     29.563157     29.563157     59.126313
     -2.617618     30.766912     30.766912     61.533824
     -2.607608     31.642775     31.642775     63.285550
     -2.597598     32.403605     32.403605     64.807210
     -2.587588     33.165835     33.165835     66.331669
     -2.577578     33.909109     33.909109     67.818219
     -2.567568     34.511261     34.511261     69.022522
     -2.557558     34.805937     34.805937     69.611874
     -2.547548     34.618253     34.618253     69.236506
     -2.537538     33.781042     33.781042     67.562084
     -2.527528     32.168826     32.168826     64.337653
     -2.517518     29.771980     29.771980     59.543961
     -2.507508     26.782965     26.782965     53.565929
     -2.497497     23.628991     23.628991     47.257982
     -2.487487     20.899346     20.899346     41.798692
     -2.477477     19.174996     19.174996     38.349991
     -2.467467     18.830859     18.830859     37.661718
     -2.457457     19.904798     19.904798     39.809595
     -2.447447     22.098528     22.098528     44.197055
     -2.437437     24.912450     24.912450     49.824899
     -2.427427     27.852172     27.852172     55.704343
     -2.417417     30.609811     30.609811     61.219622
     -2.407407     33.134225     33.134225     66.268450
     -2.397397     35.557330     35.557330     71.114660
     -2.387387     38.014911     38.014911     76.029822
     -2.377377     40.455472     40.455472     80.910943
     -2.367367     42.541323     42.541323     85.082646
     -2.357357     43.705067     43.705067     87.410133
     -2.347347     43.349903     43.349903     86.699807
     -2.337337     41.109599     41.109599     82.219199
     -2.327327     37.050177     37.050177     74.100354
     -2.317317     31.719580     31.719580     63.439160
     -2.307307     26.022125     26.022125     52.044251
     -2.297297     20.973279     20.973279     41.946557
     -2.287287     17.435030     17.435030     34.870060
     -2.277277     15.924285     15.924285     31.848569
     -2.267267     16.540856     16.540856     33.081712
     -2.257257     19.010165     19.010165     38.020329
     -2.247247     22.802646     22.802646     45.605292
     -2.237237     27.281187     27.281187     54.562374
     -2.227227     31.831511     31.831511     63.663023
     -2.217217     35.942847     35.942847     71.885695
     -2.207207     39.227886     39.227886     78.455772
     -2.197197     41.399723     41.399723     82.799447
     -2.187187     42.246305     42.246305     84.492610
     -2.177177     41.641748     41.641748     83.283496
     -2.167167     39.602271     39.602271     79.204542
     -2.157157     36.349386     36.349386     72.698772
     -2.147147     32.318335     32.318335     64.636670
     -2.137137     28.070709     28.070709     56.141418
     -2.127127     24.129457     24.129457     48.258914
     -2.117117     20.812228     20.812228     41.624455
     -2.107107     18.151362     18.151362     36.302724
     -2.097097     15.943069     15.943069     31.886138
     -2.087087     13.894277     13.894277     27.788553
     -2.077077     11.783505     11.783505     23.567010
     -2.067067      9.554323      9.554323     19.108646
     -2.057057      7.309089      7.309089     14.618178
     -2.047047      5.229314      5.229314     10.458628
     -2.037037      3.480041      3.480041      6.960082
     -2.027027      2.147507      2.147507      4.295014
     -2.017017      1.227630      1.227630      2.455260
     -2.007007      0.652909      0.652909      1.305818
     -1.996997      0.332990      0.332990      0.665981
     -1.986987      0.189220      0.189220      0.378441
     -1.976977      0.175755      0.175755      0.351509
     -1.966967      0.289214      0.289214      0.578428
     -1.956957      0.571163      0.571163      1.142327
     -1.946947      1.104364      1.104364      2.208727
     -1.936937      1.999216      1.999216      3.998432
     -1.926927      3.365775      3.365775      6.731551
     -1.916917      5.271773      5.271773     10.543545
     -1.906907      7.696843      7.696843     15.393686
     -1.896897     10.501646     10.501646     21.003292
     -1.886887     13.430507     13.430507     26.861014
     -1.876877     16.154846     16.154846     32.309692
     -1.866867     18.347336     18.347336     36.694672
     -1.856857     19.763635     19.763635     39.527270
     -1.846847     20.305984     20.305984     40.611969
     -1.836837     20.049094     20.049094     40.098187
     -1.826827     19.217793     19.217793     38.435587
     -1.816817     18.116626     18.116626     36.233251
     -1.806807     17.027086     17.027086     34.054172
     -1.796797     16.107279     16.107279     32.214557
     -1.786787     15.338955     15.338955     30.677909
     -1.776777     14.553224     14.553224     29.106448
     -1.766767     13.528333     13.528333     27.056665
     -1.756757     12.112245     12.112245     24.224491
     -1.746747     10.308321     10.308321     20.616641
     -1.736737      8.285990      8.285990     16.571981
     -1.726727      6.323565      6.323565     12.647130
     -1.716717      4.725176      4.725176      9.450352
     -1.706707      3.756443      3.756443      7.512887
     -1.696697      3.616865      3.616865      7.233730
     -1.686687      4.434064      4.434064      8.868128
     -1.676677      6.250066      6.250066     12.500132
     -1.666667      8.982340      8.982340     17.964679
     -1.656657     12.373091     12.373091     24.746181
     -1.646647     15.967527     15.967527     31.935053
     -1.636637     19.164007     19.164007     38.328015
     -1.626627     21.348709     21.348709     42.697418
