# EIG2DOS: Utility for SIESTA to obtain the electronic density of states
#  E. Artacho, Apr 1999, A. Garcia, Apr 2012
#  Nick R. Papior, Feb 2017
# ------------------------------------------
# Eigenvalues calculated from a non-polarized calculation
# Eigenvalues read from siesta.EIG
# Kpoint weights read from siesta.KP
# Using smearing parameter:   0.0500
# Using 1000 points in the energy range
# Selected bands: 1 to: 2981
# Emin, Emax in file for selected band(s):    -27.0715587    218.3280750
# Nbands, Nspin, Nk   =   2981     1     1
# E_F                 =    -4.2770 eV --> (shifted to ZERO)
# Broadening          =     0.0500 eV
#
#        E            N(up)  (=)   N(down)         Ntot
     -5.000000     46.248026     46.248026     92.496052
     -4.989990     48.109030     48.109030     96.218060
     -4.979980     48.689682     48.689682     97.379364
     -4.969970     48.045136     48.045136     96.090272
     -4.959960     46.315080     46.315080     92.630159
     -4.949950     43.704610     43.704610     87.409220
     -4.939940     40.485158     40.485158     80.970315
     -4.929930     37.010067     37.010067     74.020134
     -4.919920     33.731612     33.731612     67.463225
     -4.909910     31.199931     31.199931     62.399862
     -4.899900     30.018020     30.018020     60.036040
     -4.889890     30.728160     30.728160     61.456320
     -4.879880     33.628794     33.628794     67.257587
     -4.869870     38.570983     38.570983     77.141965
     -4.859860     44.835164     44.835164     89.670328
     -4.849850     51.195802     51.195802    102.391604
     -4.839840     56.213271     56.213271    112.426542
     -4.829830     58.671278     58.671278    117.342557
     -4.819820     57.977743     57.977743    115.955485
     -4.809810     54.342385     54.342385    108.684769
     -4.799800     48.650970     48.650970     97.301940
     -4.789790     42.110737     42.110737     84.221474
     -4.779780     35.845678     35.845678     71.691356
     -4.769770     30.614283     30.614283     61.228566
     -4.759760     26.726254     26.726254     53.452508
     -4.749750     24.123945     24.123945     48.247890
     -4.739740     22.535963     22.535963     45.071926
     -4.729730     21.618713     21.618713     43.237426
     -4.719720     21.045197     21.045197     42.090393
     -4.709710     20.541358     20.541358     41.082715
     -4.699700     19.892268     19.892268     39.784536
     -4.689690     18.945820     18.945820     37.891640
     -4.679680     17.634809     17.634809     35.269619
     -4.669670     16.021017     16.021017     32.042034
     -4.659660     14.342604     14.342604     28.685208
     -4.649650     13.031115     13.031115     26.062231
     -4.639640     12.666761     12.666761     25.333522
     -4.629630     13.859677     13.859677     27.719353
     -4.619620     17.071777     17.071777     34.143555
     -4.609610     22.421216     22.421216     44.842432
     -4.599600     29.534817     29.534817     59.069635
     -4.589590     37.523404     37.523404     75.046808
     -4.579580     45.133522     45.133522     90.267045
     -4.569570     51.067117     51.067117    102.134234
     -4.559560     54.376714     54.376714    108.753427
     -4.549550     54.784149     54.784149    109.568298
     -4.539540     52.781240     52.781240    105.562481
     -4.529530     49.457812     49.457812     98.915624
     -4.519520     46.123480     46.123480     92.246960
     -4.509510     43.878752     43.878752     87.757504
     -4.499499     43.302392     43.302392     86.604785
     -4.489489     44.355713     44.355713     88.711426
     -4.479479     46.501543     46.501543     93.003087
     -4.469469     48.950238     48.950238     97.900477
     -4.459459     50.915031     50.915031    101.830063
     -4.449449     51.788902     51.788902    103.577804
     -4.439439     51.218557     51.218557    102.437114
     -4.429429     49.107570     49.107570     98.215141
     -4.419419     45.599010     45.599010     91.198021
     -4.409409     41.063650     41.063650     82.127300
     -4.399399     36.077813     36.077813     72.155627
     -4.389389     31.351948     31.351948     62.703895
     -4.379379     27.589482     27.589482     55.178964
     -4.369369     25.305054     25.305054     50.610107
     -4.359359     24.675044     24.675044     49.350088
     -4.349349     25.495782     25.495782     50.991564
     -4.339339     27.278646     27.278646     54.557292
     -4.329329     29.443749     29.443749     58.887498
     -4.319319     31.526507     31.526507     63.053014
     -4.309309     33.311137     33.311137     66.622274
     -4.299299     34.847202     34.847202     69.694403
     -4.289289     36.360007     36.360007     72.720013
     -4.279279     38.102035     38.102035     76.204069
     -4.269269     40.200474     40.200474     80.400948
     -4.259259     42.547526     42.547526     85.095051
     -4.249249     44.770783     44.770783     89.541566
     -4.239239     46.309481     46.309481     92.618963
     -4.229229     46.593661     46.593661     93.187322
     -4.219219     45.273057     45.273057     90.546115
     -4.209209     42.396424     42.396424     84.792849
     -4.199199     38.442116     38.442116     76.884233
     -4.189189     34.165870     34.165870     68.331741
     -4.179179     30.330264     30.330264     60.660529
     -4.169169     27.448030     27.448030     54.896059
     -4.159159     25.661724     25.661724     51.323448
     -4.149149     24.803151     24.803151     49.606302
     -4.139139     24.580102     24.580102     49.160205
     -4.129129     24.780358     24.780358     49.560716
     -4.119119     25.385638     25.385638     50.771275
     -4.109109     26.539610     26.539610     53.079221
     -4.099099     28.387528     28.387528     56.775057
     -4.089089     30.872679     30.872679     61.745357
     -4.079079     33.608572     33.608572     67.217145
     -4.069069     35.921419     35.921419     71.842838
     -4.059059     37.073469     37.073469     74.146938
     -4.049049     36.572120     36.572120     73.144240
     -4.039039     34.407339     34.407339     68.814679
     -4.029029     31.088967     31.088967     62.177934
     -4.019019     27.464673     27.464673     54.929346
     -4.009009     24.419701     24.419701     48.839402
     -3.998999     22.612826     22.612826     45.225651
     -3.988989     22.359802     22.359802     44.719604
     -3.978979     23.674091     23.674091     47.348182
     -3.968969     26.388245     26.388245     52.776491
     -3.958959     30.261028     30.261028     60.522056
     -3.948949     35.023158     35.023158     70.046317
     -3.938939     40.380123     40.380123     80.760246
     -3.928929     46.020626     46.020626     92.041252
     -3.918919     51.656485     51.656485    103.312971
     -3.908909     57.071615     57.071615    114.143230
     -3.898899     62.130093     62.130093    124.260185
     -3.888889     66.712432     66.712432    133.424865
     -3.878879     70.602746     70.602746    141.205492
     -3.868869     73.398255     73.398255    146.796510
     -3.858859     74.519864     74.519864    149.039728
     -3.848849     73.357879     73.357879    146.715759
     -3.838839     69.512474     69.512474    139.024948
     -3.828829     63.026054     63.026054    126.052107
     -3.818819     54.492281     54.492281    108.984563
     -3.808809     44.975327     44.975327     89.950653
     -3.798799     35.758089     35.758089     71.516179
     -3.788789     28.013178     28.013178     56.026356
     -3.778779     22.516706     22.516706     45.033411
     -3.768769     19.495699     19.495699     38.991398
     -3.758759     18.639662     18.639662     37.279323
     -3.748749     19.250125     19.250125     38.500249
     -3.738739     20.469988     20.469988     40.939975
     -3.728729     21.527841     21.527841     43.055682
     -3.718719     21.940505     21.940505     43.881009
     -3.708709     21.630115     21.630115     43.260230
     -3.698699     20.927963     20.927963     41.855925
     -3.688689     20.458542     20.458542     40.917084
     -3.678679     20.926209     20.926209     41.852419
     -3.668669     22.859822     22.859822     45.719643
     -3.658659     26.396174     26.396174     52.792349
     -3.648649     31.184179     31.184179     62.368359
     -3.638639     36.456570     36.456570     72.913140
     -3.628629     41.250637     41.250637     82.501273
     -3.618619     44.693220     44.693220     89.386440
     -3.608609     46.236593     46.236593     92.473186
     -3.598599     45.761367     45.761367     91.522734
     -3.588589     43.532511     43.532511     87.065022
     -3.578579     40.059365     40.059365     80.118729
     -3.568569     35.932223     35.932223     71.864447
     -3.558559     31.686067     31.686067     63.372134
     -3.548549     27.708074     27.708074     55.416148
     -3.538539     24.189911     24.189911     48.379822
     -3.528529     21.129615     21.129615     42.259230
     -3.518519     18.389047     18.389047     36.778094
     -3.508509     15.795533     15.795533     31.591067
     -3.498498     13.250116     13.250116     26.500231
     -3.488488     10.794706     10.794706     21.589412
     -3.478478      8.609249      8.609249     17.218499
     -3.468468      6.945404      6.945404     13.890808
     -3.458458      6.030286      6.030286     12.060572
     -3.448448      5.978386      5.978386     11.956772
     -3.438438      6.738057      6.738057     13.476113
     -3.428428      8.085913      8.085913     16.171826
     -3.418418      9.674415      9.674415     19.348831
     -3.408408     11.128521     11.128521     22.257043
     -3.398398     12.169629     12.169629     24.339257
     -3.388388     12.724736     12.724736     25.449472
     -3.378378     12.972735     12.972735     25.945470
     -3.368368     13.300238     13.300238     26.600476
     -3.358358     14.179068     14.179068     28.358136
     -3.348348     16.012040     16.012040     32.024080
     -3.338338     19.000800     19.000800     38.001600
     -3.328328     23.068370     23.068370     46.136740
     -3.318318     27.841171     27.841171     55.682341
     -3.308308     32.684324     32.684324     65.368648
     -3.298298     36.792461     36.792461     73.584922
     -3.288288     39.343876     39.343876     78.687752
     -3.278278     39.704897     39.704897     79.409794
     -3.268268     37.627949     37.627949     75.255898
     -3.258258     33.357202     33.357202     66.714405
     -3.248248     27.577044     27.577044     55.154088
     -3.238238     21.210189     21.210189     42.420378
     -3.228228     15.149468     15.149468     30.298935
     -3.218218     10.037036     10.037036     20.074073
     -3.208208      6.169669      6.169669     12.339338
     -3.198198      3.538239      3.538239      7.076477
     -3.188188      1.951519      1.951519      3.903039
     -3.178178      1.177634      1.177634      2.355268
     -3.168168      1.055509      1.055509      2.111018
     -3.158158      1.558121      1.558121      3.116243
     -3.148148      2.807075      2.807075      5.614149
     -3.138138      5.039444      5.039444     10.078888
     -3.128128      8.523930      8.523930     17.047860
     -3.118118     13.429780     13.429780     26.859560
     -3.108108     19.675740     19.675740     39.351481
     -3.098098     26.817568     26.817568     53.635135
     -3.088088     34.046544     34.046544     68.093089
     -3.078078     40.343849     40.343849     80.687697
     -3.068068     44.765047     44.765047     89.530095
     -3.058058     46.748487     46.748487     93.496973
     -3.048048     46.304001     46.304001     92.608001
     -3.038038     43.980612     43.980612     87.961223
     -3.028028     40.620592     40.620592     81.241184
     -3.018018     37.020691     37.020691     74.041383
     -3.008008     33.668827     33.668827     67.337653
     -2.997998     30.676305     30.676305     61.352610
     -2.987988     27.913652     27.913652     55.827303
     -2.977978     25.251703     25.251703     50.503406
     -2.967968     22.767456     22.767456     45.534911
     -2.957958     20.809291     20.809291     41.618583
     -2.947948     19.897000     19.897000     39.793999
     -2.937938     20.510568     20.510568     41.021137
     -2.927928     22.864237     22.864237     45.728473
     -2.917918     26.760758     26.760758     53.521516
     -2.907908     31.585924     31.585924     63.171849
     -2.897898     36.451396     36.451396     72.902792
     -2.887888     40.440265     40.440265     80.880529
     -2.877878     42.869812     42.869812     85.739625
     -2.867868     43.474993     43.474993     86.949986
     -2.857858     42.443182     42.443182     84.886364
     -2.847848     40.289600     40.289600     80.579200
     -2.837838     37.629931     37.629931     75.259861
     -2.827828     34.950350     34.950350     69.900699
     -2.817818     32.472605     32.472605     64.945210
     -2.807808     30.162588     30.162588     60.325175
     -2.797798     27.859137     27.859137     55.718273
     -2.787788     25.442367     25.442367     50.884734
     -2.777778     22.947509     22.947509     45.895017
     -2.767768     20.567576     20.567576     41.135151
     -2.757758     18.555034     18.555034     37.110067
     -2.747748     17.090989     17.090989     34.181977
     -2.737738     16.206395     16.206395     32.412789
     -2.727728     15.803495     15.803495     31.606991
     -2.717718     15.758886     15.758886     31.517771
     -2.707708     16.034242     16.034242     32.068484
     -2.697698     16.713824     16.713824     33.427648
     -2.687688     17.936236     17.936236     35.872471
     -2.677678     19.761605     19.761605     39.523211
     -2.667668     22.064963     22.064963     44.129926
     -2.657658     24.535993     24.535993     49.071986
     -2.647648     26.797965     26.797965     53.595930
     -2.637638     28.578155     28.578155     57.156309
     -2.627628     29.824567     29.824567     59.649133
     -2.617618     30.697641     30.697641     61.395281
     -2.607608     31.448151     31.448151     62.896303
     -2.597598     32.264007     32.264007     64.528014
     -2.587588     33.177709     33.177709     66.355417
     -2.577578     34.070969     34.070969     68.141939
     -2.567568     34.742402     34.742402     69.484804
     -2.557558     34.975735     34.975735     69.951470
     -2.547548     34.575702     34.575702     69.151404
     -2.537538     33.389653     33.389653     66.779306
     -2.527528     31.352281     31.352281     62.704563
     -2.517518     28.560064     28.560064     57.120129
     -2.507508     25.332383     25.332383     50.664766
     -2.497497     22.197183     22.197183     44.394366
     -2.487487     19.772326     19.772326     39.544651
     -2.477477     18.576723     18.576723     37.153446
     -2.467467     18.853270     18.853270     37.706541
     -2.457457     20.487689     20.487689     40.975377
     -2.447447     23.064301     23.064301     46.128603
     -2.437437     26.036359     26.036359     52.072718
     -2.427427     28.935759     28.935759     57.871518
     -2.417417     31.528233     31.528233     63.056466
     -2.407407     33.843650     33.843650     67.687300
     -2.397397     36.067687     36.067687     72.135375
     -2.387387     38.346611     38.346611     76.693222
     -2.377377     40.601709     40.601709     81.203418
     -2.367367     42.452082     42.452082     84.904165
     -2.357357     43.299381     43.299381     86.598763
     -2.347347     42.552199     42.552199     85.104397
     -2.337337     39.895509     39.895509     79.791019
     -2.327327     35.480570     35.480570     70.961140
     -2.317317     29.944082     29.944082     59.888165
     -2.307307     24.247100     24.247100     48.494200
     -2.297297     19.407528     19.407528     38.815057
     -2.287287     16.237870     16.237870     32.475740
     -2.277277     15.177594     15.177594     30.355187
     -2.267267     16.252054     16.252054     32.504107
     -2.257257     19.136804     19.136804     38.273609
     -2.247247     23.280826     23.280826     46.561652
     -2.237237     28.042162     28.042162     56.084324
     -2.227227     32.800678     32.800678     65.601355
     -2.217217     37.026871     37.026871     74.053743
     -2.207207     40.303629     40.303629     80.607259
     -2.197197     42.318988     42.318988     84.637977
     -2.187187     42.862476     42.862476     85.724953
     -2.177177     41.851366     41.851366     83.702732
     -2.167167     39.383104     39.383104     78.766209
     -2.157157     35.773939     35.773939     71.547878
     -2.147147     31.531275     31.531275     63.062550
     -2.137137     27.236724     27.236724     54.473448
     -2.127127     23.374598     23.374598     46.749196
     -2.117117     20.186420     20.186420     40.372839
     -2.107107     17.628637     17.628637     35.257273
     -2.097097     15.455556     15.455556     30.911112
     -2.087087     13.378702     13.378702     26.757404
     -2.077077     11.215231     11.215231     22.430462
     -2.067067      8.954698      8.954698     17.909397
     -2.057057      6.728628      6.728628     13.457255
     -2.047047      4.721015      4.721015      9.442029
     -2.037037      3.078263      3.078263      6.156526
     -2.027027      1.860416      1.860416      3.720831
     -2.017017      1.042078      1.042078      2.084156
     -2.007007      0.545398      0.545398      1.090795
     -1.996997      0.280407      0.280407      0.560813
     -1.986987      0.176160      0.176160      0.352321
     -1.976977      0.198323      0.198323      0.396647
     -1.966967      0.356416      0.356416      0.712832
     -1.956957      0.704343      0.704343      1.408685
     -1.946947      1.333722      1.333722      2.667443
     -1.936937      2.355788      2.355788      4.711577
     -1.926927      3.868521      3.868521      7.737042
     -1.916917      5.912692      5.912692     11.825384
     -1.906907      8.430559      8.430559     16.861117
     -1.896897     11.246784     11.246784     22.493569
     -1.886887     14.086481     14.086481     28.172961
     -1.876877     16.630260     16.630260     33.260521
     -1.866867     18.589505     18.589505     37.179010
     -1.856857     19.776974     19.776974     39.553949
     -1.846847     20.151520     20.151520     40.303041
     -1.836837     19.824888     19.824888     39.649775
     -1.826827     19.026730     19.026730     38.053461
     -1.816817     18.031863     18.031863     36.063727
     -1.806807     17.067061     17.067061     34.134121
     -1.796797     16.231563     16.231563     32.463127
     -1.786787     15.471827     15.471827     30.943654
     -1.776777     14.632522     14.632522     29.265043
     -1.766767     13.565849     13.565849     27.131698
     -1.756757     12.244250     12.244250     24.488501
     -1.746747     10.814751     10.814751     21.629502
     -1.736737      9.563280      9.563280     19.126561
     -1.726727      8.805241      8.805241     17.610482
     -1.716717      8.755399      8.755399     17.510798
     -1.706707      9.437760      9.437760     18.875519
     -1.696697     10.674949     10.674949     21.349897
     -1.686687     12.159292     12.159292     24.318583
     -1.676677     13.570143     13.570143     27.140287
     -1.666667     14.680026     14.680026     29.360053
     -1.656657     15.398457     15.398457     30.796913
     -1.646647     15.738210     15.738210     31.476420
     -1.636637     15.736229     15.736229     31.472458
     -1.626627     15.389796     15.389796     30.779592
