# EIG2DOS: Utility for SIESTA to obtain the electronic density of states
#  E. Artacho, Apr 1999, A. Garcia, Apr 2012
#  Nick R. Papior, Feb 2017
# ------------------------------------------
# Eigenvalues calculated from a non-polarized calculation
# Eigenvalues read from siesta.EIG
# Kpoint weights read from siesta.KP
# Using smearing parameter:   0.0500
# Using 1000 points in the energy range
# Selected bands: 1 to: 2981
# Emin, Emax in file for selected band(s):    -27.4102203    218.4036440
# Nbands, Nspin, Nk   =   2981     1     1
# E_F                 =    -4.1934 eV --> (shifted to ZERO)
# Broadening          =     0.0500 eV
#
#        E            N(up)  (=)   N(down)         Ntot
     -5.000000     33.179178     33.179178     66.358356
     -4.989990     38.265279     38.265279     76.530557
     -4.979980     42.817737     42.817737     85.635475
     -4.969970     46.019230     46.019230     92.038459
     -4.959960     47.260681     47.260681     94.521362
     -4.949950     46.347195     46.347195     92.694391
     -4.939940     43.566806     43.566806     87.133613
     -4.929930     39.613537     39.613537     79.227075
     -4.919920     35.419624     35.419624     70.839247
     -4.909910     31.967606     31.967606     63.935213
     -4.899900     30.122778     30.122778     60.245556
     -4.889890     30.487582     30.487582     60.975165
     -4.879880     33.271620     33.271620     66.543239
     -4.869870     38.199401     38.199401     76.398801
     -4.859860     44.509360     44.509360     89.018720
     -4.849850     51.090031     51.090031    102.180063
     -4.839840     56.742653     56.742653    113.485305
     -4.829830     60.487671     60.487671    120.975342
     -4.819820     61.797842     61.797842    123.595683
     -4.809810     60.671180     60.671180    121.342361
     -4.799800     57.535031     57.535031    115.070062
     -4.789790     53.048090     53.048090    106.096180
     -4.779780     47.896325     47.896325     95.792650
     -4.769770     42.653397     42.653397     85.306795
     -4.759760     37.724337     37.724337     75.448674
     -4.749750     33.349998     33.349998     66.699995
     -4.739740     29.637497     29.637497     59.274995
     -4.729730     26.591638     26.591638     53.183277
     -4.719720     24.137673     24.137673     48.275346
     -4.709710     22.137787     22.137787     44.275575
     -4.699700     20.412036     20.412036     40.824072
     -4.689690     18.778080     18.778080     37.556159
     -4.679680     17.117141     17.117141     34.234281
     -4.669670     15.454276     15.454276     30.908553
     -4.659660     14.019507     14.019507     28.039014
     -4.649650     13.248938     13.248938     26.497877
     -4.639640     13.700254     13.700254     27.400507
     -4.629630     15.888684     15.888684     31.777367
     -4.619620     20.084229     20.084229     40.168458
     -4.609610     26.136956     26.136956     52.273912
     -4.599600     33.405634     33.405634     66.811268
     -4.589590     40.846010     40.846010     81.692021
     -4.579580     47.263092     47.263092     94.526183
     -4.569570     51.659216     51.659216    103.318432
     -4.559560     53.551035     53.551035    107.102069
     -4.549550     53.122644     53.122644    106.245288
     -4.539540     51.142548     51.142548    102.285095
     -4.529530     48.672394     48.672394     97.344787
     -4.519520     46.684428     46.684428     93.368857
     -4.509510     45.738762     45.738762     91.477524
     -4.499499     45.838620     45.838620     91.677240
     -4.489489     46.502056     46.502056     93.004112
     -4.479479     47.000166     47.000166     94.000331
     -4.469469     46.652002     46.652002     93.304003
     -4.459459     45.057525     45.057525     90.115050
     -4.449449     42.191644     42.191644     84.383287
     -4.439439     38.352337     38.352337     76.704675
     -4.429429     34.019275     34.019275     68.038550
     -4.419419     29.705574     29.705574     59.411148
     -4.409409     25.864071     25.864071     51.728141
     -4.399399     22.857956     22.857956     45.715913
     -4.389389     20.960004     20.960004     41.920008
     -4.379379     20.336078     20.336078     40.672157
     -4.369369     21.000461     21.000461     42.000923
     -4.359359     22.774447     22.774447     45.548894
     -4.349349     25.297900     25.297900     50.595799
     -4.339339     28.118944     28.118944     56.237887
     -4.329329     30.836834     30.836834     61.673669
     -4.319319     33.233697     33.233697     66.467393
     -4.309309     35.329267     35.329267     70.658534
     -4.299299     37.328158     37.328158     74.656316
     -4.289289     39.478398     39.478398     78.956796
     -4.279279     41.898017     41.898017     83.796034
     -4.269269     44.441229     44.441229     88.882459
     -4.259259     46.666790     46.666790     93.333580
     -4.249249     47.940197     47.940197     95.880394
     -4.239239     47.651071     47.651071     95.302142
     -4.229229     45.470115     45.470115     90.940231
     -4.219219     41.534633     41.534633     83.069267
     -4.209209     36.467023     36.467023     72.934046
     -4.199199     31.201270     31.201270     62.402540
     -4.189189     26.684992     26.684992     53.369985
     -4.179179     23.586114     23.586114     47.172228
     -4.169169     22.128021     22.128021     44.256043
     -4.159159     22.110621     22.110621     44.221243
     -4.149149     23.086696     23.086696     46.173391
     -4.139139     24.598134     24.598134     49.196269
     -4.129129     26.359934     26.359934     52.719868
     -4.119119     28.311359     28.311359     56.622719
     -4.109109     30.517764     30.517764     61.035529
     -4.099099     32.979973     32.979973     65.959947
     -4.089089     35.461579     35.461579     70.923158
     -4.079079     37.447589     37.447589     74.895178
     -4.069069     38.286523     38.286523     76.573045
     -4.059059     37.465212     37.465212     74.930424
     -4.049049     34.879656     34.879656     69.759311
     -4.039039     30.955003     30.955003     61.910005
     -4.029029     26.545795     26.545795     53.091590
     -4.019019     22.665903     22.665903     45.331807
     -4.009009     20.180837     20.180837     40.361674
     -3.998999     19.596276     19.596276     39.192552
     -3.988989     21.006698     21.006698     42.013396
     -3.978979     24.180158     24.180158     48.360316
     -3.968969     28.702898     28.702898     57.405796
     -3.958959     34.110578     34.110578     68.221157
     -3.948949     39.972850     39.972850     79.945701
     -3.938939     45.937484     45.937484     91.874968
     -3.928929     51.751785     51.751785    103.503569
     -3.918919     57.263548     57.263548    114.527096
     -3.908909     62.386695     62.386695    124.773389
     -3.898899     67.023342     67.023342    134.046685
     -3.888889     70.965634     70.965634    141.931268
     -3.878879     73.831705     73.831705    147.663409
     -3.868869     75.090950     75.090950    150.181900
     -3.858859     74.196028     74.196028    148.392056
     -3.848849     70.783062     70.783062    141.566124
     -3.838839     64.860357     64.860357    129.720714
     -3.828829     56.902673     56.902673    113.805346
     -3.818819     47.803413     47.803413     95.606825
     -3.808809     38.692484     38.692484     77.384967
     -3.798799     30.677393     30.677393     61.354787
     -3.788789     24.589619     24.589619     49.179238
     -3.778779     20.811286     20.811286     41.622572
     -3.768769     19.226196     19.226196     38.452391
     -3.758759     19.299476     19.299476     38.598952
     -3.748749     20.255822     20.255822     40.511645
     -3.738739     21.305385     21.305385     42.610771
     -3.728729     21.859975     21.859975     43.719949
     -3.718719     21.687566     21.687566     43.375132
     -3.708709     20.966915     20.966915     41.933831
     -3.698699     20.224543     20.224543     40.449087
     -3.688689     20.162945     20.162945     40.325890
     -3.678679     21.419797     21.419797     42.839595
     -3.668669     24.326696     24.326696     48.653391
     -3.658659     28.749619     28.749619     57.499239
     -3.648649     34.077652     34.077652     68.155304
     -3.638639     39.376886     39.376886     78.753772
     -3.628629     43.658868     43.658868     87.317736
     -3.618619     46.161333     46.161333     92.322666
     -3.608609     46.535475     46.535475     93.070950
     -3.598599     44.883446     44.883446     89.766891
     -3.588589     41.661499     41.661499     83.322997
     -3.578579     37.513913     37.513913     75.027825
     -3.568569     33.106692     33.106692     66.213383
     -3.558559     29.000928     29.000928     58.001856
     -3.548549     25.575707     25.575707     51.151413
     -3.538539     22.998958     22.998958     45.997915
     -3.528529     21.244896     21.244896     42.489791
     -3.518519     20.151386     20.151386     40.302772
     -3.508509     19.496422     19.496422     38.992843
     -3.498498     19.064676     19.064676     38.129353
     -3.488488     18.685783     18.685783     37.371566
     -3.478478     18.248324     18.248324     36.496649
     -3.468468     17.705501     17.705501     35.411003
     -3.458458     17.078492     17.078492     34.156984
     -3.448448     16.445144     16.445144     32.890288
     -3.438438     15.900078     15.900078     31.800155
     -3.428428     15.495785     15.495785     30.991570
     -3.418418     15.202290     15.202290     30.404581
     -3.408408     14.924586     14.924586     29.849171
     -3.398398     14.582849     14.582849     29.165698
     -3.388388     14.213891     14.213891     28.427783
     -3.378378     14.030468     14.030468     28.060935
     -3.368368     14.396174     14.396174     28.792347
     -3.358358     15.721573     15.721573     31.443146
     -3.348348     18.326447     18.326447     36.652895
     -3.338338     22.319289     22.319289     44.638578
     -3.328328     27.523676     27.523676     55.047353
     -3.318318     33.458214     33.458214     66.916427
     -3.308308     39.372322     39.372322     78.744645
     -3.298298     44.348284     44.348284     88.696569
     -3.288288     47.475763     47.475763     94.951525
     -3.278278     48.073388     48.073388     96.146775
     -3.268268     45.888905     45.888905     91.777809
     -3.258258     41.192327     41.192327     82.384655
     -3.248248     34.710304     34.710304     69.420609
     -3.238238     27.420677     27.420677     54.841354
     -3.228228     20.290214     20.290214     40.580428
     -3.218218     14.056801     14.056801     28.113602
     -3.208208      9.124243      9.124243     18.248486
     -3.198198      5.579955      5.579955     11.159910
     -3.188188      3.298027      3.298027      6.596053
     -3.178178      2.071797      2.071797      4.143594
     -3.168168      1.728422      1.728422      3.456845
     -3.158158      2.197534      2.197534      4.395068
     -3.148148      3.523237      3.523237      7.046473
     -3.138138      5.819539      5.819539     11.639078
     -3.128128      9.178983      9.178983     18.357965
     -3.118118     13.558749     13.558749     27.117497
     -3.108108     18.685971     18.685971     37.371942
     -3.098098     24.032283     24.032283     48.064566
     -3.088088     28.891929     28.891929     57.783857
     -3.078078     32.554819     32.554819     65.109638
     -3.068068     34.513269     34.513269     69.026537
     -3.058058     34.611347     34.611347     69.222694
     -3.048048     33.064758     33.064758     66.129516
     -3.038038     30.343438     30.343438     60.686875
     -3.028028     26.982185     26.982185     53.964369
     -3.018018     23.419644     23.419644     46.839287
     -3.008008     19.939951     19.939951     39.879901
     -2.997998     16.723490     16.723490     33.446979
     -2.987988     13.950100     13.950100     27.900199
     -2.977978     11.878094     11.878094     23.756188
     -2.967968     10.849172     10.849172     21.698345
     -2.957958     11.215872     11.215872     22.431743
     -2.947948     13.223829     13.223829     26.447658
     -2.937938     16.893809     16.893809     33.787617
     -2.927928     21.945057     21.945057     43.890114
     -2.917918     27.791915     27.791915     55.583830
     -2.907908     33.630699     33.630699     67.261398
     -2.897898     38.608861     38.608861     77.217722
     -2.887888     42.034881     42.034881     84.069762
     -2.877878     43.559211     43.559211     87.118421
     -2.867868     43.253546     43.253546     86.507092
     -2.857858     41.548595     41.548595     83.097189
     -2.847848     39.049964     39.049964     78.099927
     -2.837838     36.309633     36.309633     72.619267
     -2.827828     33.654002     33.654002     67.308005
     -2.817818     31.141794     31.141794     62.283588
     -2.807808     28.658045     28.658045     57.316091
     -2.797798     26.080142     26.080142     52.160285
     -2.787788     23.418213     23.418213     46.836426
     -2.777778     20.854075     20.854075     41.708149
     -2.767768     18.666651     18.666651     37.333301
     -2.757758     17.099056     17.099056     34.198112
     -2.747748     16.253471     16.253471     32.506942
     -2.737738     16.076380     16.076380     32.152760
     -2.727728     16.434012     16.434012     32.868025
     -2.717718     17.216472     17.216472     34.432944
     -2.707708     18.390712     18.390712     36.781423
     -2.697698     19.961848     19.961848     39.923697
     -2.687688     21.873899     21.873899     43.747798
     -2.677678     23.933470     23.933470     47.866940
     -2.667668     25.831520     25.831520     51.663040
     -2.657658     27.270203     27.270203     54.540407
     -2.647648     28.121247     28.121247     56.242494
     -2.637638     28.509985     28.509985     57.019971
     -2.627628     28.762192     28.762192     57.524383
     -2.617618     29.239734     29.239734     58.479468
     -2.607608     30.161199     30.161199     60.322399
     -2.597598     31.505362     31.505362     63.010724
     -2.587588     33.032889     33.032889     66.065779
     -2.577578     34.387040     34.387040     68.774081
     -2.567568     35.202819     35.202819     70.405639
     -2.557558     35.180313     35.180313     70.360627
     -2.547548     34.127407     34.127407     68.254815
     -2.537538     32.001571     32.001571     64.003141
     -2.527528     28.961234     28.961234     57.922467
     -2.517518     25.398438     25.398438     50.796877
     -2.507508     21.906780     21.906780     43.813559
     -2.497497     19.162073     19.162073     38.324147
     -2.487487     17.741977     17.741977     35.483955
     -2.477477     17.950900     17.950900     35.901799
     -2.467467     19.723257     19.723257     39.446514
     -2.457457     22.649578     22.649578     45.299157
     -2.447447     26.121049     26.121049     52.242098
     -2.437437     29.539271     29.539271     59.078541
     -2.427427     32.508026     32.508026     65.016052
     -2.417417     34.926300     34.926300     69.852600
     -2.407407     36.939940     36.939940     73.879880
     -2.397397     38.771308     38.771308     77.542616
     -2.387387     40.506625     40.506625     81.013250
     -2.377377     41.949848     41.949848     83.899697
     -2.367367     42.629666     42.629666     85.259333
     -2.357357     41.975058     41.975058     83.950116
     -2.347347     39.586015     39.586015     79.172030
     -2.337337     35.468670     35.468670     70.937340
     -2.327327     30.116512     30.116512     60.233023
     -2.317317     24.398391     24.398391     48.796782
     -2.307307     19.311541     19.311541     38.623083
     -2.297297     15.714092     15.714092     31.428184
     -2.287287     14.139041     14.139041     28.278081
     -2.277277     14.731540     14.731540     29.463081
     -2.267267     17.289949     17.289949     34.579897
     -2.257257     21.361684     21.361684     42.723368
     -2.247247     26.349652     26.349652     52.699305
     -2.237237     31.605078     31.605078     63.210155
     -2.227227     36.500113     36.500113     73.000226
     -2.217217     40.483038     40.483038     80.966077
     -2.207207     43.123252     43.123252     86.246504
     -2.197197     44.154908     44.154908     88.309815
     -2.187187     43.523749     43.523749     87.047499
     -2.177177     41.427460     41.427460     82.854921
     -2.167167     38.320323     38.320323     76.640647
     -2.157157     34.844815     34.844815     69.689630
     -2.147147     31.674125     31.674125     63.348250
     -2.137137     29.300262     29.300262     58.600524
     -2.127127     27.853813     27.853813     55.707625
     -2.117117     27.051959     27.051959     54.103917
     -2.107107     26.320097     26.320097     52.640194
     -2.097097     25.042317     25.042317     50.084634
     -2.087087     22.823202     22.823202     45.646405
     -2.077077     19.637056     19.637056     39.274113
     -2.067067     15.805454     15.805454     31.610907
     -2.057057     11.836656     11.836656     23.673312
     -2.047047      8.222622      8.222622     16.445244
     -2.037037      5.289545      5.289545     10.579091
     -2.027027      3.148744      3.148744      6.297487
     -2.017017      1.735949      1.735949      3.471898
     -2.007007      0.893264      0.893264      1.786528
     -1.996997      0.448438      0.448438      0.896876
     -1.986987      0.267251      0.267251      0.534502
     -1.976977      0.277022      0.277022      0.554043
     -1.966967      0.470539      0.470539      0.941077
     -1.956957      0.899068      0.899068      1.798135
     -1.946947      1.656595      1.656595      3.313191
     -1.936937      2.852426      2.852426      5.704851
     -1.926927      4.570608      4.570608      9.141217
     -1.916917      6.822655      6.822655     13.645309
     -1.906907      9.509564      9.509564     19.019127
     -1.896897     12.412496     12.412496     24.824991
     -1.886887     15.223443     15.223443     30.446887
     -1.876877     17.610863     17.610863     35.221727
     -1.866867     19.300093     19.300093     38.600185
     -1.856857     20.142994     20.142994     40.285987
     -1.846847     20.155956     20.155956     40.311911
     -1.836837     19.514012     19.514012     39.028024
     -1.826827     18.497747     18.497747     36.995494
     -1.816817     17.401802     17.401802     34.803603
     -1.806807     16.431592     16.431592     32.863183
     -1.796797     15.630289     15.630289     31.260578
     -1.786787     14.874913     14.874913     29.749826
     -1.776777     13.950555     13.950555     27.901111
     -1.766767     12.668903     12.668903     25.337807
     -1.756757     10.970453     10.970453     21.940907
     -1.746747      8.959814      8.959814     17.919627
     -1.736737      6.864269      6.864269     13.728539
     -1.726727      4.948689      4.948689      9.897378
     -1.716717      3.436839      3.436839      6.873678
     -1.706707      2.473425      2.473425      4.946850
     -1.696697      2.128474      2.128474      4.256948
     -1.686687      2.419485      2.419485      4.838970
     -1.676677      3.321786      3.321786      6.643572
     -1.666667      4.753406      4.753406      9.506812
     -1.656657      6.545848      6.545848     13.091695
     -1.646647      8.430671      8.430671     16.861343
     -1.636637     10.071324     10.071324     20.142648
     -1.626627     11.147735     11.147735     22.295470
