# EIG2DOS: Utility for SIESTA to obtain the electronic density of states
#  E. Artacho, Apr 1999, A. Garcia, Apr 2012
#  Nick R. Papior, Feb 2017
# ------------------------------------------
# Eigenvalues calculated from a non-polarized calculation
# Eigenvalues read from siesta.EIG
# Kpoint weights read from siesta.KP
# Using smearing parameter:   0.0500
# Using 1000 points in the energy range
# Selected bands: 1 to: 2981
# Emin, Emax in file for selected band(s):    -27.0718630    218.3290380
# Nbands, Nspin, Nk   =   2981     1     1
# E_F                 =    -4.2816 eV --> (shifted to ZERO)
# Broadening          =     0.0500 eV
#
#        E            N(up)  (=)   N(down)         Ntot
     -5.000000     39.214563     39.214563     78.429127
     -4.989990     40.921175     40.921175     81.842351
     -4.979980     42.243646     42.243646     84.487293
     -4.969970     42.876056     42.876056     85.752113
     -4.959960     42.584231     42.584231     85.168462
     -4.949950     41.289965     41.289965     82.579931
     -4.939940     39.110577     39.110577     78.221154
     -4.929930     36.358153     36.358153     72.716306
     -4.919920     33.513806     33.513806     67.027612
     -4.909910     31.184995     31.184995     62.369989
     -4.899900     30.035442     30.035442     60.070884
     -4.889890     30.664747     30.664747     61.329494
     -4.879880     33.428949     33.428949     66.857899
     -4.869870     38.240031     38.240031     76.480062
     -4.859860     44.436903     44.436903     88.873807
     -4.849850     50.835062     50.835062    101.670124
     -4.839840     56.002188     56.002188    112.004376
     -4.829830     58.689330     58.689330    117.378660
     -4.819820     58.242298     58.242298    116.484596
     -4.809810     54.803247     54.803247    109.606495
     -4.799800     49.210695     49.210695     98.421389
     -4.789790     42.660005     42.660005     85.320009
     -4.779780     36.297485     36.297485     72.594970
     -4.769770     30.924335     30.924335     61.848670
     -4.759760     26.895697     26.895697     53.791395
     -4.749750     24.188264     24.188264     48.376528
     -4.739740     22.547179     22.547179     45.094358
     -4.729730     21.627503     21.627503     43.255006
     -4.719720     21.087594     21.087594     42.175187
     -4.709710     20.632610     20.632610     41.265220
     -4.699700     20.028263     20.028263     40.056526
     -4.689690     19.110064     19.110064     38.220128
     -4.679680     17.807081     17.807081     35.614163
     -4.669670     16.183461     16.183461     32.366923
     -4.659660     14.480488     14.480488     28.960976
     -4.649650     13.127991     13.127991     26.255983
     -4.639640     12.696516     12.696516     25.393033
     -4.629630     13.780359     13.780359     27.560717
     -4.619620     16.827436     16.827436     33.654873
     -4.609610     21.956666     21.956666     43.913331
     -4.599600     28.822596     28.822596     57.645191
     -4.589590     36.593302     36.593302     73.186605
     -4.579580     44.088017     44.088017     88.176034
     -4.569570     50.067938     50.067938    100.135877
     -4.559560     53.601336     53.601336    107.202672
     -4.549550     54.370029     54.370029    108.740058
     -4.539540     52.787384     52.787384    105.574769
     -4.529530     49.867542     49.867542     99.735084
     -4.519520     46.890109     46.890109     93.780219
     -4.509510     44.989719     44.989719     89.979439
     -4.499499     44.822628     44.822628     89.645256
     -4.489489     46.416626     46.416626     92.833253
     -4.479479     49.226581     49.226581     98.453162
     -4.469469     52.341737     52.341737    104.683475
     -4.459459     54.755407     54.755407    109.510814
     -4.449449     55.616229     55.616229    111.232457
     -4.439439     54.411892     54.411892    108.823784
     -4.429429     51.065798     51.065798    102.131597
     -4.419419     45.943229     45.943229     91.886458
     -4.409409     39.771027     39.771027     79.542054
     -4.399399     33.483607     33.483607     66.967214
     -4.389389     28.022251     28.022251     56.044502
     -4.379379     24.129963     24.129963     48.259927
     -4.369369     22.192732     22.192732     44.385465
     -4.359359     22.172981     22.172981     44.345962
     -4.349349     23.658960     23.658960     47.317920
     -4.339339     26.017965     26.017965     52.035931
     -4.329329     28.603434     28.603434     57.206868
     -4.319319     30.944138     30.944138     61.888276
     -4.309309     32.851442     32.851442     65.702885
     -4.299299     34.415667     34.415667     68.831335
     -4.289289     35.905931     35.905931     71.811862
     -4.279279     37.617063     37.617063     75.234127
     -4.269269     39.713991     39.713991     79.427983
     -4.259259     42.117787     42.117787     84.235573
     -4.249249     44.470682     44.470682     88.941365
     -4.239239     46.207471     46.207471     92.414942
     -4.229229     46.732915     46.732915     93.465830
     -4.219219     45.654587     45.654587     91.309175
     -4.209209     42.972699     42.972699     85.945398
     -4.199199     39.125237     39.125237     78.250473
     -4.189189     34.848798     34.848798     69.697597
     -4.179179     30.913834     30.913834     61.827668
     -4.169169     27.863856     27.863856     55.727711
     -4.159159     25.883068     25.883068     51.766136
     -4.149149     24.840948     24.840948     49.681895
     -4.139139     24.467222     24.467222     48.934445
     -4.129129     24.551741     24.551741     49.103481
     -4.119119     25.063866     25.063866     50.127732
     -4.109109     26.133607     26.133607     52.267215
     -4.099099     27.905804     27.905804     55.811609
     -4.089089     30.343858     30.343858     60.687717
     -4.079079     33.095529     33.095529     66.191058
     -4.069069     35.516524     35.516524     71.033047
     -4.059059     36.872428     36.872428     73.744855
     -4.049049     36.637312     36.637312     73.274625
     -4.039039     34.739523     34.739523     69.479046
     -4.029029     31.622574     31.622574     63.245149
     -4.019019     28.088807     28.088807     56.177615
     -4.009009     25.013209     25.013209     50.026418
     -3.998999     23.076413     23.076413     46.152826
     -3.988989     22.633254     22.633254     45.266509
     -3.978979     23.737088     23.737088     47.474176
     -3.968969     26.251220     26.251220     52.502440
     -3.958959     29.953907     29.953907     59.907815
     -3.948949     34.586041     34.586041     69.172082
     -3.938939     39.855672     39.855672     79.711343
     -3.928929     45.446833     45.446833     90.893665
     -3.918919     51.060673     51.060673    102.121345
     -3.908909     56.469215     56.469215    112.938430
     -3.898899     61.531525     61.531525    123.063049
     -3.888889     66.137172     66.137172    132.274345
     -3.878879     70.093637     70.093637    140.187274
     -3.868869     73.025719     73.025719    146.051437
     -3.858859     74.368612     74.368612    148.737224
     -3.848849     73.497852     73.497852    146.995704
     -3.838839     69.966059     69.966059    139.932118
     -3.828829     63.748198     63.748198    127.496395
     -3.818819     55.375011     55.375011    110.750022
     -3.808809     45.876084     45.876084     91.752167
     -3.798799     36.539747     36.539747     73.079494
     -3.788789     28.579479     28.579479     57.158958
     -3.778779     22.831351     22.831351     45.662703
     -3.768769     19.582008     19.582008     39.164017
     -3.758759     18.564964     18.564964     37.129928
     -3.748749     19.102046     19.102046     38.204093
     -3.738739     20.331441     20.331441     40.662882
     -3.728729     21.456025     21.456025     42.912051
     -3.718719     21.953857     21.953857     43.907714
     -3.708709     21.705841     21.705841     43.411682
     -3.698699     21.010911     21.010911     42.021822
     -3.688689     20.479692     20.479692     40.959383
     -3.678679     20.826211     20.826211     41.652423
     -3.668669     22.610778     22.610778     45.221557
     -3.658659     26.014300     26.014300     52.028600
     -3.648649     30.728187     30.728187     61.456375
     -3.638639     36.011630     36.011630     72.023259
     -3.628629     40.903642     40.903642     81.807284
     -3.618619     44.508812     44.508812     89.017624
     -3.608609     46.242488     46.242488     92.484976
     -3.598599     45.946575     45.946575     91.893150
     -3.588589     43.856180     43.856180     87.712361
     -3.578579     40.464827     40.464827     80.929655
     -3.568569     36.361271     36.361271     72.722542
     -3.558559     32.090728     32.090728     64.181455
     -3.548549     28.058636     28.058636     56.117273
     -3.538539     24.478013     24.478013     48.956026
     -3.528529     21.365295     21.365295     42.730590
     -3.518519     18.592177     18.592177     37.184354
     -3.508509     15.984617     15.984617     31.969234
     -3.498498     13.433087     13.433087     26.866174
     -3.488488     10.965463     10.965463     21.930926
     -3.478478      8.750741      8.750741     17.501481
     -3.468468      7.037100      7.037100     14.074201
     -3.458458      6.056648      6.056648     12.113296
     -3.448448      5.935513      5.935513     11.871027
     -3.438438      6.636903      6.636903     13.273807
     -3.428428      7.951216      7.951216     15.902432
     -3.418418      9.538988      9.538988     19.077975
     -3.408408     11.023612     11.023612     22.047224
     -3.398398     12.113833     12.113833     24.227665
     -3.388388     12.715398     12.715398     25.430796
     -3.378378     12.983495     12.983495     25.966990
     -3.368368     13.286045     13.286045     26.572089
     -3.358358     14.087083     14.087083     28.174166
     -3.348348     15.795313     15.795313     31.590626
     -3.338338     18.632005     18.632005     37.264011
     -3.328328     22.551861     22.551861     45.103722
     -3.318318     27.221195     27.221195     54.442389
     -3.308308     32.045387     32.045387     64.090774
     -3.298298     36.247099     36.247099     72.494197
     -3.288288     39.006519     39.006519     78.013038
     -3.278278     39.658043     39.658043     79.316086
     -3.268268     37.893859     37.893859     75.787718
     -3.258258     33.888800     33.888800     67.777599
     -3.248248     28.273479     28.273479     56.546958
     -3.238238     21.950217     21.950217     43.900433
     -3.228228     15.827300     15.827300     31.654600
     -3.218218     10.585895     10.585895     21.171790
     -3.208208      6.566380      6.566380     13.132760
     -3.198198      3.791670      3.791670      7.583340
     -3.188188      2.082729      2.082729      4.165459
     -3.178178      1.198934      1.198934      2.397867
     -3.168168      0.952100      0.952100      1.904201
     -3.158158      1.273737      1.273737      2.547474
     -3.148148      2.236598      2.236598      4.473197
     -3.138138      4.035846      4.035846      8.071693
     -3.128128      6.929575      6.929575     13.859151
     -3.118118     11.137240     11.137240     22.274480
     -3.108108     16.707514     16.707514     33.415028
     -3.098098     23.392510     23.392510     46.785020
     -3.088088     30.587855     30.587855     61.175710
     -3.078078     37.395695     37.395695     74.791389
     -3.068068     42.826446     42.826446     85.652891
     -3.058058     46.085511     46.085511     92.171022
     -3.048048     46.830636     46.830636     93.661272
     -3.038038     45.278484     45.278484     90.556967
     -3.028028     42.102564     42.102564     84.205128
     -3.018018     38.168685     38.168685     76.337369
     -3.008008     34.236084     34.236084     68.472167
     -2.997998     30.761841     30.761841     61.523683
     -2.987988     27.880887     27.880887     55.761774
     -2.977978     25.538613     25.538613     51.077226
     -2.967968     23.683138     23.683138     47.366276
     -2.957958     22.409517     22.409517     44.819035
     -2.947948     21.984034     21.984034     43.968069
     -2.937938     22.738513     22.738513     45.477026
     -2.927928     24.885496     24.885496     49.770992
     -2.917918     28.343185     28.343185     56.686369
     -2.907908     32.659587     32.659587     65.319173
     -2.897898     37.085461     37.085461     74.170923
     -2.887888     40.779716     40.779716     81.559431
     -2.877878     43.068088     43.068088     86.136176
     -2.867868     43.647357     43.647357     87.294714
     -2.857858     42.648882     42.648882     85.297764
     -2.847848     40.538131     40.538131     81.076262
     -2.837838     37.900809     37.900809     75.801618
     -2.827828     35.215282     35.215282     70.430564
     -2.817818     32.711539     32.711539     65.423077
     -2.807808     30.369446     30.369446     60.738892
     -2.797798     28.038047     28.038047     56.076093
     -2.787788     25.599260     25.599260     51.198521
     -2.777778     23.083322     23.083322     46.166644
     -2.767768     20.677113     20.677113     41.354225
     -2.757758     18.631165     18.631165     37.262331
     -2.747748     17.130038     17.130038     34.260075
     -2.737738     16.209883     16.209883     32.419767
     -2.727728     15.774443     15.774443     31.548887
     -2.717718     15.695445     15.695445     31.390890
     -2.707708     15.926285     15.926285     31.852570
     -2.697698     16.546779     16.546779     33.093559
     -2.687688     17.701443     17.701443     35.402887
     -2.677678     19.467031     19.467031     38.934061
     -2.667668     21.738259     21.738259     43.476518
     -2.657658     24.215724     24.215724     48.431448
     -2.647648     26.516366     26.516366     53.032731
     -2.637638     28.345179     28.345179     56.690358
     -2.627628     29.623292     29.623292     59.246585
     -2.617618     30.494466     30.494466     60.988933
     -2.607608     31.211944     31.211944     62.423887
     -2.597598     31.983128     31.983128     63.966256
     -2.587588     32.866426     32.866426     65.732853
     -2.577578     33.764652     33.764652     67.529304
     -2.567568     34.487479     34.487479     68.974958
     -2.557558     34.820563     34.820563     69.641127
     -2.547548     34.563404     34.563404     69.126807
     -2.537538     33.549684     33.549684     67.099367
     -2.527528     31.688821     31.688821     63.377642
     -2.517518     29.041133     29.041133     58.082267
     -2.507508     25.887821     25.887821     51.775642
     -2.497497     22.731336     22.731336     45.462672
     -2.487487     20.189309     20.189309     40.378618
     -2.477477     18.808234     18.808234     37.616468
     -2.467467     18.876751     18.876751     37.753501
     -2.457457     20.327385     20.327385     40.654770
     -2.447447     22.776188     22.776188     45.552375
     -2.437437     25.685019     25.685019     51.370037
     -2.427427     28.573763     28.573763     57.147526
     -2.417417     31.185752     31.185752     62.371505
     -2.407407     33.530242     33.530242     67.060485
     -2.397397     35.782865     35.782865     71.565731
     -2.387387     38.093271     38.093271     76.186542
     -2.377377     40.396786     40.396786     80.793572
     -2.367367     42.330230     42.330230     84.660460
     -2.357357     43.307149     43.307149     86.614298
     -2.347347     42.732879     42.732879     85.465758
     -2.337337     40.269224     40.269224     80.538448
     -2.327327     36.028407     36.028407     72.056814
     -2.317317     30.605366     30.605366     61.210733
     -2.307307     24.933241     24.933241     49.866482
     -2.297297     20.027110     20.027110     40.054221
     -2.287287     16.721546     16.721546     33.443093
     -2.277277     15.491974     15.491974     30.983947
     -2.267267     16.398281     16.398281     32.796561
     -2.257257     19.137449     19.137449     38.274898
     -2.247247     23.163651     23.163651     46.327303
     -2.237237     27.829404     27.829404     55.658808
     -2.227227     32.508471     32.508471     65.016941
     -2.217217     36.673516     36.673516     73.347032
     -2.207207     39.920256     39.920256     79.840512
     -2.197197     41.954361     41.954361     83.908722
     -2.187187     42.576470     42.576470     85.152941
     -2.177177     41.698055     41.698055     83.396111
     -2.167167     39.391053     39.391053     78.782106
     -2.157157     35.934174     35.934174     71.868348
     -2.147147     31.800275     31.800275     63.600551
     -2.137137     27.553912     27.553912     55.107824
     -2.127127     23.685797     23.685797     47.371594
     -2.117117     20.461557     20.461557     40.923114
     -2.107107     17.865688     17.865688     35.731376
     -2.097097     15.670869     15.670869     31.341739
     -2.087087     13.591105     13.591105     27.182210
     -2.077077     11.433347     11.433347     22.866694
     -2.067067      9.173190      9.173190     18.346380
     -2.057057      6.932940      6.932940     13.865880
     -2.047047      4.895788      4.895788      9.791576
     -2.037037      3.214093      3.214093      6.428186
     -2.027027      1.956185      1.956185      3.912370
     -2.017017      1.103239      1.103239      2.206478
     -2.007007      0.580329      0.580329      1.160658
     -1.996997      0.296911      0.296911      0.593821
     -1.986987      0.179095      0.179095      0.358190
     -1.976977      0.188364      0.188364      0.376728
     -1.966967      0.329594      0.329594      0.659187
     -1.956957      0.652279      0.652279      1.304558
     -1.946947      1.244994      1.244994      2.489988
     -1.936937      2.219012      2.219012      4.438024
     -1.926927      3.677191      3.677191      7.354382
     -1.916917      5.670583      5.670583     11.341166
     -1.906907      8.155251      8.155251     16.310501
     -1.896897     10.968702     10.968702     21.937404
     -1.886887     13.842371     13.842371     27.684741
     -1.876877     16.452742     16.452742     32.905485
     -1.866867     18.496631     18.496631     36.993262
     -1.856857     19.766101     19.766101     39.532202
     -1.846847     20.200066     20.200066     40.400131
     -1.836837     19.897975     19.897975     39.795950
     -1.826827     19.089681     19.089681     38.179362
     -1.816817     18.064484     18.064484     36.128968
     -1.806807     17.076370     17.076370     34.152739
     -1.796797     16.259920     16.259920     32.519840
     -1.786787     15.598666     15.598666     31.197332
     -1.776777     14.969598     14.969598     29.939197
     -1.766767     14.246308     14.246308     28.492616
     -1.756757     13.403587     13.403587     26.807174
     -1.746747     12.558754     12.558754     25.117509
     -1.736737     11.919955     11.919955     23.839910
     -1.726727     11.668986     11.668986     23.337972
     -1.716717     11.848674     11.848674     23.697347
     -1.706707     12.324542     12.324542     24.649084
     -1.696697     12.847046     12.847046     25.694092
     -1.686687     13.180285     13.180285     26.360571
     -1.676677     13.222285     13.222285     26.444570
     -1.666667     13.045586     13.045586     26.091172
     -1.656657     12.833817     12.833817     25.667634
     -1.646647     12.752360     12.752360     25.504720
     -1.636637     12.831365     12.831365     25.662729
     -1.626627     12.932429     12.932429     25.864859
