# EIG2DOS: Utility for SIESTA to obtain the electronic density of states
#  E. Artacho, Apr 1999, A. Garcia, Apr 2012
#  Nick R. Papior, Feb 2017
# ------------------------------------------
# Eigenvalues calculated from a non-polarized calculation
# Eigenvalues read from siesta.EIG
# Kpoint weights read from siesta.KP
# Using smearing parameter:   0.0500
# Using 1000 points in the energy range
# Selected bands: 1 to: 2981
# Emin, Emax in file for selected band(s):    -27.1956678    218.3886810
# Nbands, Nspin, Nk   =   2981     1     1
# E_F                 =    -4.2071 eV --> (shifted to ZERO)
# Broadening          =     0.0500 eV
#
#        E            N(up)  (=)   N(down)         Ntot
     -5.000000     34.899385     34.899385     69.798770
     -4.989990     39.380612     39.380612     78.761224
     -4.979980     43.079114     43.079114     86.158229
     -4.969970     45.358437     45.358437     90.716875
     -4.959960     45.816312     45.816312     91.632624
     -4.949950     44.418433     44.418433     88.836865
     -4.939940     41.516495     41.516495     83.032990
     -4.929930     37.763987     37.763987     75.527974
     -4.919920     33.982220     33.982220     67.964440
     -4.909910     31.024494     31.024494     62.048988
     -4.899900     29.650645     29.650645     59.301290
     -4.889890     30.394968     30.394968     60.789937
     -4.879880     33.419433     33.419433     66.838866
     -4.869870     38.388607     38.388607     76.777213
     -4.859860     44.443764     44.443764     88.887528
     -4.849850     50.345456     50.345456    100.690911
     -4.839840     54.783657     54.783657    109.567314
     -4.829830     56.758999     56.758999    113.517998
     -4.819820     55.880852     55.880852    111.761704
     -4.809810     52.452637     52.452637    104.905274
     -4.799800     47.313092     47.313092     94.626183
     -4.789790     41.516724     41.516724     83.033449
     -4.779780     36.000480     36.000480     72.000961
     -4.769770     31.365790     31.365790     62.731580
     -4.759760     27.827924     27.827924     55.655848
     -4.749750     25.301279     25.301279     50.602559
     -4.739740     23.543987     23.543987     47.087973
     -4.729730     22.288233     22.288233     44.576466
     -4.719720     21.315906     21.315906     42.631813
     -4.709710     20.478147     20.478147     40.956295
     -4.699700     19.685561     19.685561     39.371123
     -4.689690     18.904429     18.904429     37.808858
     -4.679680     18.180105     18.180105     36.360209
     -4.669670     17.678639     17.678639     35.357278
     -4.659660     17.710426     17.710426     35.420851
     -4.649650     18.696106     18.696106     37.392212
     -4.639640     21.060259     21.060259     42.120517
     -4.629630     25.076630     25.076630     50.153260
     -4.619620     30.716594     30.716594     61.433188
     -4.609610     37.558216     37.558216     75.116433
     -4.599600     44.800211     44.800211     89.600421
     -4.589590     51.400036     51.400036    102.800072
     -4.579580     56.319642     56.319642    112.639284
     -4.569570     58.818001     58.818001    117.636002
     -4.559560     58.692308     58.692308    117.384617
     -4.549550     56.366583     56.366583    112.733166
     -4.539540     52.773664     52.773664    105.547327
     -4.529530     49.059812     49.059812     98.119624
     -4.519520     46.218740     46.218740     92.437480
     -4.509510     44.792578     44.792578     89.585156
     -4.499499     44.746380     44.746380     89.492761
     -4.489489     45.548156     45.548156     91.096312
     -4.479479     46.404785     46.404785     92.809570
     -4.469469     46.550834     46.550834     93.101668
     -4.459459     45.481347     45.481347     90.962695
     -4.449449     43.058551     43.058551     86.117102
     -4.439439     39.484467     39.484467     78.968935
     -4.429429     35.186469     35.186469     70.372939
     -4.419419     30.685298     30.685298     61.370597
     -4.409409     26.497593     26.497593     52.995186
     -4.399399     23.083036     23.083036     46.166072
     -4.389389     20.810440     20.810440     41.620880
     -4.379379     19.912849     19.912849     39.825698
     -4.369369     20.429957     20.429957     40.859914
     -4.359359     22.171232     22.171232     44.342464
     -4.349349     24.742938     24.742938     49.485877
     -4.339339     27.654350     27.654350     55.308700
     -4.329329     30.470739     30.470739     60.941478
     -4.319319     32.947207     32.947207     65.894414
     -4.309309     35.081459     35.081459     70.162918
     -4.299299     37.061451     37.061451     74.122902
     -4.289289     39.130715     39.130715     78.261430
     -4.279279     41.425822     41.425822     82.851645
     -4.269269     43.848675     43.848675     87.697350
     -4.259259     46.026435     46.026435     92.052871
     -4.249249     47.388701     47.388701     94.777403
     -4.239239     47.353622     47.353622     94.707244
     -4.229229     45.565305     45.565305     91.130610
     -4.219219     42.084680     42.084680     84.169359
     -4.209209     37.436403     37.436403     74.872806
     -4.199199     32.470802     32.470802     64.941604
     -4.189189     28.089628     28.089628     56.179255
     -4.179179     24.955808     24.955808     49.911615
     -4.169169     23.315900     23.315900     46.631799
     -4.159159     23.004873     23.004873     46.009747
     -4.149149     23.612516     23.612516     47.225031
     -4.139139     24.718296     24.718296     49.436593
     -4.129129     26.078480     26.078480     52.156960
     -4.119119     27.678956     27.678956     55.357912
     -4.109109     29.633312     29.633312     59.266623
     -4.099099     31.982638     31.982638     63.965275
     -4.089089     34.510633     34.510633     69.021265
     -4.079079     36.693090     36.693090     73.386181
     -4.069069     37.839411     37.839411     75.678822
     -4.059059     37.377338     37.377338     74.754677
     -4.049049     35.140460     35.140460     70.280920
     -4.039039     31.503425     31.503425     63.006849
     -4.029029     27.288755     27.288755     54.577510
     -4.019019     23.493547     23.493547     46.987093
     -4.009009     20.974761     20.974761     41.949521
     -3.998999     20.235276     20.235276     40.470553
     -3.988989     21.378142     21.378142     42.756284
     -3.978979     24.200342     24.200342     48.400685
     -3.968969     28.340255     28.340255     56.680510
     -3.958959     33.399135     33.399135     66.798271
     -3.948949     39.005874     39.005874     78.011749
     -3.938939     44.841682     44.841682     89.683365
     -3.928929     50.653589     50.653589    101.307177
     -3.918919     56.263146     56.263146    112.526292
     -3.908909     61.549909     61.549909    123.099817
     -3.898899     66.390167     66.390167    132.780335
     -3.888889     70.564708     70.564708    141.129415
     -3.878879     73.687976     73.687976    147.375952
     -3.868869     75.220131     75.220131    150.440261
     -3.858859     74.589522     74.589522    149.179044
     -3.848849     71.394376     71.394376    142.788753
     -3.838839     65.603935     65.603935    131.207871
     -3.828829     57.668981     57.668981    115.337962
     -3.818819     48.484788     48.484788     96.969577
     -3.808809     39.208632     39.208632     78.417263
     -3.798799     30.990513     30.990513     61.981026
     -3.788789     24.705412     24.705412     49.410824
     -3.778779     20.768874     20.768874     41.537749
     -3.768769     19.083365     19.083365     38.166730
     -3.758759     19.118774     19.118774     38.237549
     -3.748749     20.093984     20.093984     40.187967
     -3.738739     21.206047     21.206047     42.412094
     -3.728729     21.848913     21.848913     43.697825
     -3.718719     21.770184     21.770184     43.540368
     -3.708709     21.128278     21.128278     42.256555
     -3.698699     20.432229     20.432229     40.864457
     -3.688689     20.372604     20.372604     40.745208
     -3.678679     21.583021     21.583021     43.166042
     -3.668669     24.400605     24.400605     48.801210
     -3.658659     28.707085     28.707085     57.414171
     -3.648649     33.915948     33.915948     67.831897
     -3.638639     39.121568     39.121568     78.243137
     -3.628629     43.359977     43.359977     86.719954
     -3.618619     45.881331     45.881331     91.762661
     -3.608609     46.331821     46.331821     92.663643
     -3.598599     44.791181     44.791181     89.582362
     -3.588589     41.680809     41.680809     83.361618
     -3.578579     37.604209     37.604209     75.208418
     -3.568569     33.184170     33.184170     66.368340
     -3.558559     28.933926     28.933926     57.867852
     -3.548549     25.174039     25.174039     50.348078
     -3.538539     22.000514     22.000514     44.001029
     -3.528529     19.312536     19.312536     38.625072
     -3.518519     16.899510     16.899510     33.799019
     -3.508509     14.562094     14.562094     29.124189
     -3.498498     12.219177     12.219177     24.438354
     -3.488488      9.954729      9.954729     19.909458
     -3.478478      7.987905      7.987905     15.975810
     -3.468468      6.586384      6.586384     13.172769
     -3.458458      5.963096      5.963096     11.926193
     -3.448448      6.193337      6.193337     12.386675
     -3.438438      7.174548      7.174548     14.349096
     -3.428428      8.638716      8.638716     17.277431
     -3.418418     10.219397     10.219397     20.438793
     -3.408408     11.563444     11.563444     23.126888
     -3.398398     12.457861     12.457861     24.915722
     -3.388388     12.924887     12.924887     25.849774
     -3.378378     13.240684     13.240684     26.481367
     -3.368368     13.861398     13.861398     27.722796
     -3.358358     15.281070     15.281070     30.562140
     -3.348348     17.873442     17.873442     35.746884
     -3.338338     21.768255     21.768255     43.536509
     -3.328328     26.788963     26.788963     53.577926
     -3.318318     32.455076     32.455076     64.910152
     -3.308308     38.044461     38.044461     76.088922
     -3.298298     42.713414     42.713414     85.426828
     -3.288288     45.666098     45.666098     91.332195
     -3.278278     46.341089     46.341089     92.682179
     -3.268268     44.557014     44.557014     89.114029
     -3.258258     40.559122     40.559122     81.118245
     -3.248248     34.945174     34.945174     69.890348
     -3.238238     28.502067     28.502067     57.004134
     -3.228228     22.019754     22.019754     44.039508
     -3.218218     16.146862     16.146862     32.293725
     -3.208208     11.321700     11.321700     22.643400
     -3.198198      7.776606      7.776606     15.553212
     -3.188188      5.590266      5.590266     11.180532
     -3.178178      4.755040      4.755040      9.510081
     -3.168168      5.230166      5.230166     10.460333
     -3.158158      6.962943      6.962943     13.925887
     -3.148148      9.875619      9.875619     19.751239
     -3.138138     13.830551     13.830551     27.661103
     -3.128128     18.593795     18.593795     37.187590
     -3.118118     23.815059     23.815059     47.630119
     -3.108108     29.034430     29.034430     58.068860
     -3.098098     33.720522     33.720522     67.441044
     -3.088088     37.341834     37.341834     74.683669
     -3.078078     39.465960     39.465960     78.931920
     -3.068068     39.864329     39.864329     79.728659
     -3.058058     38.581223     38.581223     77.162446
     -3.048048     35.924974     35.924974     71.849949
     -3.038038     32.370054     32.370054     64.740108
     -3.028028     28.408595     28.408595     56.817191
     -3.018018     24.424153     24.424153     48.848307
     -3.008008     20.649864     20.649864     41.299728
     -2.997998     17.221494     17.221494     34.442988
     -2.987988     14.279118     14.279118     28.558236
     -2.977978     12.047707     12.047707     24.095413
     -2.967968     10.847105     10.847105     21.694210
     -2.957958     11.024586     11.024586     22.049172
     -2.947948     12.838771     12.838771     25.677543
     -2.937938     16.338166     16.338166     32.676332
     -2.927928     21.275977     21.275977     42.551954
     -2.917918     27.094852     27.094852     54.189705
     -2.907908     33.001953     33.001953     66.003905
     -2.897898     38.130957     38.130957     76.261914
     -2.887888     41.753448     41.753448     83.506897
     -2.877878     43.470992     43.470992     86.941984
     -2.867868     43.311717     43.311717     86.623435
     -2.857858     41.684486     41.684486     83.368971
     -2.847848     39.202601     39.202601     78.405202
     -2.837838     36.450238     36.450238     72.900475
     -2.827828     33.794303     33.794303     67.588605
     -2.817818     31.322526     31.322526     62.645053
     -2.807808     28.923684     28.923684     57.847368
     -2.797798     26.452610     26.452610     52.905221
     -2.787788     23.882279     23.882279     47.764557
     -2.777778     21.360368     21.360368     42.720735
     -2.767768     19.148711     19.148711     38.297423
     -2.757758     17.494072     17.494072     34.988143
     -2.747748     16.516105     16.516105     33.032211
     -2.737738     16.181106     16.181106     32.362212
     -2.727728     16.369553     16.369553     32.739106
     -2.717718     16.980974     16.980974     33.961948
     -2.707708     17.994646     17.994646     35.989292
     -2.697698     19.438236     19.438236     38.876472
     -2.687688     21.287354     21.287354     42.574708
     -2.677678     23.376958     23.376958     46.753915
     -2.667668     25.405748     25.405748     50.811495
     -2.657658     27.052036     27.052036     54.104071
     -2.647648     28.136536     28.136536     56.273072
     -2.637638     28.725593     28.725593     57.451185
     -2.627628     29.101387     29.101387     58.202774
     -2.617618     29.611930     29.611930     59.223860
     -2.607608     30.490500     30.490500     60.980999
     -2.597598     31.746534     31.746534     63.493068
     -2.587588     33.173485     33.173485     66.346970
     -2.577578     34.441864     34.441864     68.883727
     -2.567568     35.206948     35.206948     70.413895
     -2.557558     35.181778     35.181778     70.363556
     -2.547548     34.176894     34.176894     68.353789
     -2.537538     32.138070     32.138070     64.276140
     -2.527528     29.197514     29.197514     58.395029
     -2.517518     25.713292     25.713292     51.426585
     -2.507508     22.248856     22.248856     44.497712
     -2.497497     19.464288     19.464288     38.928576
     -2.487487     17.940359     17.940359     35.880719
     -2.477477     18.000554     18.000554     36.001108
     -2.467467     19.606687     19.606687     39.213374
     -2.457457     22.376351     22.376351     44.752703
     -2.447447     25.720591     25.720591     51.441182
     -2.437437     29.050083     29.050083     58.100165
     -2.427427     31.967455     31.967455     63.934909
     -2.417417     34.365184     34.365184     68.730369
     -2.407407     36.384976     36.384976     72.769951
     -2.397397     38.254102     38.254102     76.508203
     -2.387387     40.073461     40.073461     80.146921
     -2.377377     41.663441     41.663441     83.326882
     -2.367367     42.556884     42.556884     85.113767
     -2.357357     42.162643     42.162643     84.325286
     -2.347347     40.035126     40.035126     80.070251
     -2.337337     36.122184     36.122184     72.244368
     -2.327327     30.867413     30.867413     61.734826
     -2.317317     25.116444     25.116444     50.232888
     -2.307307     19.876339     19.876339     39.752677
     -2.297297     16.041058     16.041058     32.082117
     -2.287287     14.190888     14.190888     28.381777
     -2.277277     14.515840     14.515840     29.031680
     -2.267267     16.848680     16.848680     33.697360
     -2.257257     20.759094     20.759094     41.518188
     -2.247247     25.662073     25.662073     51.324147
     -2.237237     30.913116     30.913116     61.826232
     -2.227227     35.881296     35.881296     71.762592
     -2.217217     40.001920     40.001920     80.003840
     -2.207207     42.816062     42.816062     85.632123
     -2.197197     44.007147     44.007147     88.014294
     -2.187187     43.442095     43.442095     86.884190
     -2.177177     41.212143     41.212143     82.424286
     -2.167167     37.650078     37.650078     75.300156
     -2.157157     33.290899     33.290899     66.581798
     -2.147147     28.758162     28.758162     57.516325
     -2.137137     24.598747     24.598747     49.197494
     -2.127127     21.130466     21.130466     42.260932
     -2.117117     18.376157     18.376157     36.752315
     -2.107107     16.119602     16.119602     32.239204
     -2.097097     14.053502     14.053502     28.107003
     -2.087087     11.940904     11.940904     23.881809
     -2.077077      9.711271      9.711271     19.422542
     -2.067067      7.457764      7.457764     14.915527
     -2.057057      5.359576      5.359576     10.719153
     -2.047047      3.585634      3.585634      7.171267
     -2.037037      2.230111      2.230111      4.460222
     -2.027027      1.299728      1.299728      2.599456
     -2.017017      0.742368      0.742368      1.484737
     -2.007007      0.492729      0.492729      0.985457
     -1.996997      0.513724      0.513724      1.027447
     -1.986987      0.822255      0.822255      1.644511
     -1.976977      1.495220      1.495220      2.990441
     -1.966967      2.653762      2.653762      5.307524
     -1.956957      4.424793      4.424793      8.849587
     -1.946947      6.884108      6.884108     13.768217
     -1.936937      9.995952      9.995952     19.991905
     -1.926927     13.573895     13.573895     27.147791
     -1.916917     17.287735     17.287735     34.575471
     -1.906907     20.725324     20.725324     41.450649
     -1.896897     23.491932     23.491932     46.983864
     -1.886887     25.308434     25.308434     50.616868
     -1.876877     26.068811     26.068811     52.137623
     -1.866867     25.839784     25.839784     51.679567
     -1.856857     24.816166     24.816166     49.632332
     -1.846847     23.262585     23.262585     46.525169
     -1.836837     21.464372     21.464372     42.928744
     -1.826827     19.688110     19.688110     39.376221
     -1.816817     18.138892     18.138892     36.277784
     -1.806807     16.911401     16.911401     33.822801
     -1.796797     15.955693     15.955693     31.911386
     -1.786787     15.089764     15.089764     30.179528
     -1.776777     14.072263     14.072263     28.144525
     -1.766767     12.710203     12.710203     25.420406
     -1.756757     10.948717     10.948717     21.897434
     -1.746747      8.896872      8.896872     17.793743
     -1.736737      6.781382      6.781382     13.562764
     -1.726727      4.860886      4.860886      9.721772
     -1.716717      3.349340      3.349340      6.698681
     -1.706707      2.381201      2.381201      4.762402
     -1.696697      2.018891      2.018891      4.037781
     -1.686687      2.277538      2.277538      4.555075
     -1.676677      3.137114      3.137114      6.274227
     -1.666667      4.527523      4.527523      9.055045
     -1.656657      6.296893      6.296893     12.593785
     -1.646647      8.192486      8.192486     16.384973
     -1.636637      9.885027      9.885027     19.770054
     -1.626627     11.047239     11.047239     22.094479
