# EIG2DOS: Utility for SIESTA to obtain the electronic density of states
#  E. Artacho, Apr 1999, A. Garcia, Apr 2012
#  Nick R. Papior, Feb 2017
# ------------------------------------------
# Eigenvalues calculated from a non-polarized calculation
# Eigenvalues read from siesta.EIG
# Kpoint weights read from siesta.KP
# Using smearing parameter:   0.0500
# Using 1000 points in the energy range
# Selected bands: 1 to: 2981
# Emin, Emax in file for selected band(s):    -27.0748956    218.3265760
# Nbands, Nspin, Nk   =   2981     1     1
# E_F                 =    -4.2854 eV --> (shifted to ZERO)
# Broadening          =     0.0500 eV
#
#        E            N(up)  (=)   N(down)         Ntot
     -5.000000     39.333362     39.333362     78.666724
     -4.989990     41.160245     41.160245     82.320489
     -4.979980     42.634314     42.634314     85.268628
     -4.969970     43.420658     43.420658     86.841317
     -4.959960     43.246398     43.246398     86.492797
     -4.949950     42.003599     42.003599     84.007199
     -4.939940     39.799074     39.799074     79.598147
     -4.929930     36.952374     36.952374     73.904749
     -4.919920     33.961749     33.961749     67.923499
     -4.909910     31.453167     31.453167     62.906335
     -4.899900     30.106754     30.106754     60.213509
     -4.889890     30.538171     30.538171     61.076343
     -4.879880     33.123043     33.123043     66.246086
     -4.869870     37.797938     37.797938     75.595876
     -4.859860     43.927339     43.927339     87.854679
     -4.849850     50.344205     50.344205    100.688410
     -4.839840     55.615785     55.615785    111.231570
     -4.829830     58.470576     58.470576    116.941152
     -4.819820     58.215161     58.215161    116.430323
     -4.809810     54.949491     54.949491    109.898981
     -4.799800     49.482059     49.482059     98.964119
     -4.789790     42.999013     42.999013     85.998026
     -4.779780     36.656483     36.656483     73.312967
     -4.769770     31.275101     31.275101     62.550203
     -4.759760     27.228547     27.228547     54.457095
     -4.749750     24.505046     24.505046     49.010093
     -4.739740     22.853556     22.853556     45.707112
     -4.729730     21.927388     21.927388     43.854776
     -4.719720     21.379856     21.379856     42.759713
     -4.709710     20.909413     20.909413     41.818827
     -4.699700     20.275118     20.275118     40.550236
     -4.689690     19.307968     19.307968     38.615935
     -4.679680     17.936095     17.936095     35.872191
     -4.669670     16.225834     16.225834     32.451669
     -4.659660     14.421605     14.421605     28.843211
     -4.649650     12.955491     12.955491     25.910981
     -4.639640     12.400396     12.400396     24.800792
     -4.629630     13.357530     13.357530     26.715060
     -4.619620     16.291535     16.291535     32.583071
     -4.609610     21.349079     21.349079     42.698159
     -4.599600     28.216770     28.216770     56.433541
     -4.589590     36.085074     36.085074     72.170149
     -4.579580     43.771093     43.771093     87.542187
     -4.569570     50.002691     50.002691    100.005381
     -4.559560     53.790830     53.790830    107.581660
     -4.549550     54.754994     54.754994    109.509988
     -4.539540     53.262157     53.262157    106.524313
     -4.529530     50.308010     50.308010    100.616020
     -4.519520     47.179765     47.179765     94.359530
     -4.509510     45.034413     45.034413     90.068825
     -4.499499     44.555137     44.555137     89.110275
     -4.489489     45.800757     45.800757     91.601513
     -4.479479     48.270189     48.270189     96.540378
     -4.469469     51.117867     51.117867    102.235734
     -4.459459     53.417354     53.417354    106.834707
     -4.449449     54.386735     54.386735    108.773471
     -4.439439     53.536107     53.536107    107.072214
     -4.429429     50.738858     50.738858    101.477716
     -4.419419     46.242800     46.242800     92.485600
     -4.409409     40.628091     40.628091     81.256181
     -4.399399     34.707132     34.707132     69.414264
     -4.389389     29.365919     29.365919     58.731839
     -4.379379     25.369420     25.369420     50.738840
     -4.369369     23.181109     23.181109     46.362218
     -4.359359     22.858188     22.858188     45.716377
     -4.349349     24.066306     24.066306     48.132611
     -4.339339     26.214511     26.214511     52.429022
     -4.329329     28.662240     28.662240     57.324481
     -4.319319     30.920486     30.920486     61.840972
     -4.309309     32.774901     32.774901     65.549803
     -4.299299     34.295388     34.295388     68.590777
     -4.289289     35.743039     35.743039     71.486078
     -4.279279     37.417314     37.417314     74.834628
     -4.269269     39.495305     39.495305     78.990610
     -4.259259     41.910060     41.910060     83.820120
     -4.249249     44.308370     44.308370     88.616740
     -4.239239     46.118021     46.118021     92.236041
     -4.229229     46.725731     46.725731     93.451462
     -4.219219     45.715457     45.715457     91.430914
     -4.209209     43.067135     43.067135     86.134270
     -4.199199     39.210729     39.210729     78.421459
     -4.189189     34.891605     34.891605     69.783210
     -4.179179     30.902919     30.902919     61.805837
     -4.169169     27.815271     27.815271     55.630541
     -4.159159     25.832566     25.832566     51.665132
     -4.149149     24.828455     24.828455     49.656910
     -4.139139     24.520467     24.520467     49.040935
     -4.129129     24.675989     24.675989     49.351978
     -4.119119     25.241208     25.241208     50.482416
     -4.109109     26.331005     26.331005     52.662010
     -4.099099     28.088004     28.088004     56.176009
     -4.089089     30.485913     30.485913     60.971826
     -4.079079     33.190008     33.190008     66.380016
     -4.069069     35.572575     35.572575     71.145151
     -4.059059     36.907412     36.907412     73.814824
     -4.049049     36.665502     36.665502     73.331005
     -4.039039     34.764108     34.764108     69.528216
     -4.029029     31.635382     31.635382     63.270764
     -4.019019     28.077487     28.077487     56.154973
     -4.009009     24.970974     24.970974     49.941947
     -3.998999     23.007996     23.007996     46.015993
     -3.988989     22.553457     22.553457     45.106915
     -3.978979     23.663263     23.663263     47.326526
     -3.968969     26.194734     26.194734     52.389468
     -3.958959     29.915598     29.915598     59.831195
     -3.948949     34.557348     34.557348     69.114695
     -3.938939     39.823332     39.823332     79.646665
     -3.928929     45.397579     45.397579     90.795158
     -3.918919     50.983968     50.983968    101.967936
     -3.908909     56.358791     56.358791    112.717583
     -3.898899     61.387676     61.387676    122.775352
     -3.888889     65.970347     65.970347    131.940695
     -3.878879     69.927212     69.927212    139.854424
     -3.868869     72.894494     72.894494    145.788988
     -3.858859     74.311163     74.311163    148.622326
     -3.848849     73.544537     73.544537    147.089074
     -3.838839     70.127660     70.127660    140.255319
     -3.828829     64.010497     64.010497    128.020994
     -3.818819     55.701842     55.701842    111.403684
     -3.808809     46.219404     46.219404     92.438808
     -3.798799     36.852485     36.852485     73.704970
     -3.788789     28.826533     28.826533     57.653065
     -3.778779     22.995760     22.995760     45.991521
     -3.768769     19.665595     19.665595     39.331191
     -3.758759     18.584461     18.584461     37.168923
     -3.748749     19.082484     19.082484     38.164969
     -3.738739     20.298589     20.298589     40.597177
     -3.728729     21.429430     21.429430     42.858861
     -3.718719     21.941803     21.941803     43.883606
     -3.708709     21.703327     21.703327     43.406655
     -3.698699     21.001430     21.001430     42.002860
     -3.688689     20.440845     20.440845     40.881691
     -3.678679     20.738057     20.738057     41.476114
     -3.668669     22.464470     22.464470     44.928941
     -3.658659     25.817767     25.817767     51.635535
     -3.648649     30.506091     30.506091     61.012183
     -3.638639     35.798955     35.798955     71.597911
     -3.628629     40.735263     40.735263     81.470526
     -3.618619     44.409491     44.409491     88.818981
     -3.608609     46.221536     46.221536     92.443071
     -3.598599     45.998703     45.998703     91.997405
     -3.588589     43.966717     43.966717     87.933433
     -3.578579     40.615721     40.615721     81.231442
     -3.568569     36.535138     36.535138     73.070276
     -3.558559     32.272506     32.272506     64.545013
     -3.548549     28.236097     28.236097     56.472194
     -3.538539     24.642323     24.642323     49.284646
     -3.528529     21.511606     21.511606     43.023212
     -3.518519     18.719351     18.719351     37.438702
     -3.508509     16.093568     16.093568     32.187137
     -3.498498     13.524296     13.524296     27.048593
     -3.488488     11.036971     11.036971     22.073943
     -3.478478      8.797714      8.797714     17.595429
     -3.468468      7.053262      7.053262     14.106525
     -3.458458      6.037075      6.037075     12.074150
     -3.448448      5.879907      5.879907     11.759813
     -3.438438      6.552229      6.552229     13.104458
     -3.428428      7.852500      7.852500     15.705000
     -3.418418      9.447237      9.447237     18.894475
     -3.408408     10.960720     10.960720     21.921439
     -3.398398     12.095740     12.095740     24.191481
     -3.388388     12.745972     12.745972     25.491944
     -3.378378     13.051557     13.051557     26.103114
     -3.368368     13.366727     13.366727     26.733454
     -3.358358     14.146987     14.146987     28.293973
     -3.348348     15.800041     15.800041     31.600081
     -3.338338     18.554713     18.554713     37.109427
     -3.328328     22.381720     22.381720     44.763439
     -3.318318     26.970090     26.970090     53.940180
     -3.308308     31.750048     31.750048     63.500095
     -3.298298     35.963661     35.963661     71.927321
     -3.288288     38.796818     38.796818     77.593636
     -3.278278     39.571209     39.571209     79.142419
     -3.268268     37.950445     37.950445     75.900890
     -3.258258     34.074667     34.074667     68.149334
     -3.248248     28.546313     28.546313     57.092626
     -3.238238     22.255285     22.255285     44.510570
     -3.228228     16.114931     16.114931     32.229862
     -3.218218     10.823492     10.823492     21.646983
     -3.208208      6.741780      6.741780     13.483560
     -3.198198      3.909362      3.909362      7.818724
     -3.188188      2.157133      2.157133      4.314265
     -3.178178      1.248874      1.248874      2.497749
     -3.168168      0.998789      0.998789      1.997578
     -3.158158      1.342341      1.342341      2.684682
     -3.148148      2.359646      2.359646      4.719291
     -3.138138      4.255258      4.255258      8.510516
     -3.128128      7.293318      7.293318     14.586635
     -3.118118     11.687273     11.687273     23.374545
     -3.108108     17.459112     17.459112     34.918225
     -3.098098     24.311081     24.311081     48.622161
     -3.088088     31.575275     31.575275     63.150550
     -3.078078     38.299025     38.299025     76.598050
     -3.068068     43.473998     43.473998     86.947997
     -3.058058     46.340649     46.340649     92.681298
     -3.048048     46.640852     46.640852     93.281704
     -3.038038     44.695847     44.695847     89.391693
     -3.028028     41.264605     41.264605     82.529210
     -3.018018     37.248882     37.248882     74.497764
     -3.008008     33.387656     33.387656     66.775312
     -2.997998     30.078951     30.078951     60.157903
     -2.987988     27.389155     27.389155     54.778310
     -2.977978     25.211177     25.211177     50.422354
     -2.967968     23.468592     23.468592     46.937183
     -2.957958     22.257411     22.257411     44.514821
     -2.947948     21.859562     21.859562     43.719123
     -2.937938     22.625449     22.625449     45.250899
     -2.927928     24.781423     24.781423     49.562847
     -2.917918     28.252352     28.252352     56.504703
     -2.907908     32.587270     32.587270     65.174540
     -2.897898     37.035233     37.035233     74.070466
     -2.887888     40.753050     40.753050     81.506101
     -2.877878     43.064927     43.064927     86.129854
     -2.867868     43.666417     43.666417     87.332834
     -2.857858     42.687227     42.687227     85.374454
     -2.847848     40.590304     40.590304     81.180607
     -2.837838     37.958325     37.958325     75.916650
     -2.827828     35.267244     35.267244     70.534488
     -2.817818     32.746534     32.746534     65.493068
     -2.807808     30.378100     30.378100     60.756199
     -2.797798     28.015149     28.015149     56.030298
     -2.787788     25.544639     25.544639     51.089277
     -2.777778     23.001334     23.001334     46.002667
     -2.767768     20.575247     20.575247     41.150494
     -2.757758     18.518208     18.518208     37.036416
     -2.747748     17.013832     17.013832     34.027664
     -2.737738     16.094506     16.094506     32.189011
     -2.727728     15.657190     15.657190     31.314380
     -2.717718     15.565175     15.565175     31.130351
     -2.707708     15.765331     15.765331     31.530663
     -2.697698     16.337691     16.337691     32.675381
     -2.687688     17.437125     17.437125     34.874250
     -2.677678     19.159728     19.159728     38.319456
     -2.667668     21.421649     21.421649     42.843297
     -2.657658     23.936784     23.936784     47.873569
     -2.647648     26.319106     26.319106     52.638212
     -2.637638     28.253586     28.253586     56.507172
     -2.627628     29.632244     29.632244     59.264488
     -2.617618     30.573343     30.573343     61.146687
     -2.607608     31.318541     31.318541     62.637081
     -2.597598     32.080100     32.080100     64.160199
     -2.587588     32.932374     32.932374     65.864748
     -2.577578     33.796628     33.796628     67.593256
     -2.567568     34.497058     34.497058     68.994117
     -2.557558     34.827799     34.827799     69.655598
     -2.547548     34.591260     34.591260     69.182520
     -2.537538     33.618736     33.618736     67.237473
     -2.527528     31.811253     31.811253     63.622506
     -2.517518     29.214879     29.214879     58.429758
     -2.507508     26.093859     26.093859     52.187719
     -2.497497     22.936970     22.936970     45.873939
     -2.487487     20.357457     20.357457     40.714914
     -2.477477     18.909321     18.909321     37.818643
     -2.467467     18.898203     18.898203     37.796406
     -2.457457     20.276976     20.276976     40.553952
     -2.447447     22.678512     22.678512     45.357025
     -2.437437     25.573309     25.573309     51.146618
     -2.427427     28.480643     28.480643     56.961286
     -2.417417     31.136021     31.136021     62.272042
     -2.407407     33.537076     33.537076     67.074152
     -2.397397     35.847168     35.847168     71.694335
     -2.387387     38.205272     38.205272     76.410545
     -2.377377     40.539290     40.539290     81.078580
     -2.367367     42.483245     42.483245     84.966490
     -2.357357     43.453195     43.453195     86.906390
     -2.347347     42.861346     42.861346     85.722693
     -2.337337     40.377942     40.377942     80.755885
     -2.327327     36.121755     36.121755     72.243509
     -2.317317     30.690153     30.690153     61.380306
     -2.307307     25.014710     25.014710     50.029421
     -2.297297     20.106885     20.106885     40.213771
     -2.287287     16.797795     16.797795     33.595590
     -2.277277     15.560844     15.560844     31.121688
     -2.267267     16.455507     16.455507     32.911015
     -2.257257     19.179645     19.179645     38.359290
     -2.247247     23.189307     23.189307     46.378615
     -2.237237     27.839582     27.839582     55.679164
     -2.227227     32.506879     32.506879     65.013759
     -2.217217     36.665612     36.665612     73.331223
     -2.207207     39.911462     39.911462     79.822925
     -2.197197     41.948079     41.948079     83.896158
     -2.187187     42.572829     42.572829     85.145658
     -2.177177     41.694043     41.694043     83.388085
     -2.167167     39.382002     39.382002     78.764004
     -2.157157     35.915950     35.915950     71.831900
     -2.147147     31.771236     31.771236     63.542472
     -2.137137     27.515877     27.515877     55.031755
     -2.127127     23.643721     23.643721     47.287441
     -2.117117     20.422078     20.422078     40.844156
     -2.107107     17.835140     17.835140     35.670281
     -2.097097     15.653457     15.653457     31.306913
     -2.087087     13.587863     13.587863     27.175727
     -2.077077     11.442198     11.442198     22.884397
     -2.067067      9.189960      9.189960     18.379920
     -2.057057      6.952851      6.952851     13.905702
     -2.047047      4.914818      4.914818      9.829636
     -2.037037      3.229741      3.229741      6.459482
     -2.027027      1.967537      1.967537      3.935074
     -2.017017      1.110516      1.110516      2.221031
     -2.007007      0.584213      0.584213      1.168426
     -1.996997      0.297886      0.297886      0.595772
     -1.986987      0.176876      0.176876      0.353753
     -1.976977      0.181390      0.181390      0.362780
     -1.966967      0.314607      0.314607      0.629215
     -1.956957      0.624203      0.624203      1.248405
     -1.946947      1.197484      1.197484      2.394968
     -1.936937      2.146108      2.146108      4.292216
     -1.926927      3.576081      3.576081      7.152162
     -1.916917      5.544739      5.544739     11.089479
     -1.906907      8.016393      8.016393     16.032786
     -1.896897     10.835904     10.835904     21.671809
     -1.886887     13.737573     13.737573     27.475146
     -1.876877     16.393782     16.393782     32.787564
     -1.866867     18.490550     18.490550     36.981101
     -1.856857     19.805811     19.805811     39.611622
     -1.846847     20.266036     20.266036     40.532072
     -1.836837     19.964293     19.964293     39.928585
     -1.826827     19.131821     19.131821     38.263641
     -1.816817     18.065275     18.065275     36.130550
     -1.806807     17.026889     17.026889     34.053779
     -1.796797     16.153151     16.153151     32.306301
     -1.786787     15.415891     15.415891     30.831782
     -1.776777     14.663148     14.663148     29.326296
     -1.766767     13.727022     13.727022     27.454043
     -1.756757     12.545068     12.545068     25.090136
     -1.746747     11.229212     11.229212     22.458423
     -1.736737     10.042714     10.042714     20.085427
     -1.726727      9.295216      9.295216     18.590432
     -1.716717      9.208369      9.208369     18.416739
     -1.706707      9.817600      9.817600     19.635201
     -1.696697     10.955742     10.955742     21.911484
     -1.686687     12.323661     12.323661     24.647322
     -1.676677     13.610730     13.610730     27.221460
     -1.666667     14.603474     14.603474     29.206949
     -1.656657     15.228194     15.228194     30.456388
     -1.646647     15.512414     15.512414     31.024828
     -1.636637     15.500145     15.500145     31.000291
     -1.626627     15.184797     15.184797     30.369593
