# EIG2DOS: Utility for SIESTA to obtain the electronic density of states
#  E. Artacho, Apr 1999, A. Garcia, Apr 2012
#  Nick R. Papior, Feb 2017
# ------------------------------------------
# Eigenvalues calculated from a non-polarized calculation
# Eigenvalues read from siesta.EIG
# Kpoint weights read from siesta.KP
# Using smearing parameter:   0.0500
# Using 1000 points in the energy range
# Selected bands: 1 to: 2981
# Emin, Emax in file for selected band(s):    -27.3034383    218.3989310
# Nbands, Nspin, Nk   =   2981     1     1
# E_F                 =    -4.1940 eV --> (shifted to ZERO)
# Broadening          =     0.0500 eV
#
#        E            N(up)  (=)   N(down)         Ntot
     -5.000000     30.985556     30.985556     61.971112
     -4.989990     36.285401     36.285401     72.570802
     -4.979980     41.411221     41.411221     82.822443
     -4.969970     45.467526     45.467526     90.935052
     -4.959960     47.671691     47.671691     95.343382
     -4.949950     47.615372     47.615372     95.230743
     -4.939940     45.405874     45.405874     90.811748
     -4.929930     41.643719     41.643719     83.287438
     -4.919920     37.268307     37.268307     74.536615
     -4.909910     33.344161     33.344161     66.688322
     -4.899900     30.849111     30.849111     61.698223
     -4.889890     30.488908     30.488908     60.977817
     -4.879880     32.542573     32.542573     65.085147
     -4.869870     36.758357     36.758357     73.516715
     -4.859860     42.348767     42.348767     84.697534
     -4.849850     48.132640     48.132640     96.265279
     -4.839840     52.822155     52.822155    105.644309
     -4.829830     55.376458     55.376458    110.752916
     -4.819820     55.292605     55.292605    110.585209
     -4.809810     52.718610     52.718610    105.437220
     -4.799800     48.350185     48.350185     96.700371
     -4.789790     43.168962     43.168962     86.337925
     -4.779780     38.141158     38.141158     76.282316
     -4.769770     33.991267     33.991267     67.982534
     -4.759760     31.106589     31.106589     62.213178
     -4.749750     29.556556     29.556556     59.113112
     -4.739740     29.168107     29.168107     58.336213
     -4.729730     29.601466     29.601466     59.202932
     -4.719720     30.405546     30.405546     60.811092
     -4.709710     31.068582     31.068582     62.137164
     -4.699700     31.092541     31.092541     62.185083
     -4.689690     30.102837     30.102837     60.205675
     -4.679680     27.971438     27.971438     55.942876
     -4.669670     24.905842     24.905842     49.811685
     -4.659660     21.457664     21.457664     42.915328
     -4.649650     18.432704     18.432704     36.865407
     -4.639640     16.720287     16.720287     33.440574
     -4.629630     17.081877     17.081877     34.163755
     -4.619620     19.943027     19.943027     39.886054
     -4.609610     25.231873     25.231873     50.463746
     -4.599600     32.312800     32.312800     64.625600
     -4.589590     40.065375     40.065375     80.130750
     -4.579580     47.131236     47.131236     94.262472
     -4.569570     52.285375     52.285375    104.570749
     -4.559560     54.811415     54.811415    109.622831
     -4.549550     54.726552     54.726552    109.453104
     -4.539540     52.747548     52.747548    105.495097
     -4.529530     50.000195     50.000195    100.000389
     -4.519520     47.591385     47.591385     95.182770
     -4.509510     46.221618     46.221618     92.443237
     -4.499499     45.988643     45.988643     91.977286
     -4.489489     46.440329     46.440329     92.880659
     -4.479479     46.826356     46.826356     93.652711
     -4.469469     46.423816     46.423816     92.847631
     -4.459459     44.799463     44.799463     89.598926
     -4.449449     41.918741     41.918741     83.837482
     -4.439439     38.091201     38.091201     76.182403
     -4.429429     33.813874     33.813874     67.627748
     -4.419419     29.605231     29.605231     59.210463
     -4.409409     25.901241     25.901241     51.802482
     -4.399399     23.029070     23.029070     46.058140
     -4.389389     21.220965     21.220965     42.441930
     -4.379379     20.615595     20.615595     41.231190
     -4.369369     21.224001     21.224001     42.448002
     -4.359359     22.885678     22.885678     45.771356
     -4.349349     25.266809     25.266809     50.533619
     -4.339339     27.934906     27.934906     55.869812
     -4.329329     30.494783     30.494783     60.989566
     -4.319319     32.726036     32.726036     65.452073
     -4.309309     34.652350     34.652350     69.304700
     -4.299299     36.502194     36.502194     73.004387
     -4.289289     38.569283     38.569283     77.138566
     -4.279279     41.025039     41.025039     82.050077
     -4.269269     43.759405     43.759405     87.518810
     -4.259259     46.325091     46.325091     92.650182
     -4.249249     48.030565     48.030565     96.061130
     -4.239239     48.170159     48.170159     96.340318
     -4.229229     46.311576     46.311576     92.623153
     -4.219219     42.516578     42.516578     85.033156
     -4.209209     37.384098     37.384098     74.768196
     -4.199199     31.881510     31.881510     63.763019
     -4.189189     27.031806     27.031806     54.063611
     -4.179179     23.593675     23.593675     47.187351
     -4.169169     21.868877     21.868877     43.737754
     -4.159159     21.702884     21.702884     43.405768
     -4.149149     22.652862     22.652862     45.305724
     -4.139139     24.228557     24.228557     48.457114
     -4.129129     26.092164     26.092164     52.184329
     -4.119119     28.132005     28.132005     56.264009
     -4.109109     30.385936     30.385936     60.771872
     -4.099099     32.862081     32.862081     65.724163
     -4.089089     35.360138     35.360138     70.720276
     -4.079079     37.407252     37.407252     74.814504
     -4.069069     38.371230     38.371230     76.742460
     -4.059059     37.716880     37.716880     75.433759
     -4.049049     35.281290     35.281290     70.562580
     -4.039039     31.420569     31.420569     62.841138
     -4.029029     26.944964     26.944964     53.889927
     -4.019019     22.872539     22.872539     45.745078
     -4.009009     20.121596     20.121596     40.243192
     -3.998999     19.276623     19.276623     38.553245
     -3.988989     20.504221     20.504221     41.008442
     -3.978979     23.611158     23.611158     47.222315
     -3.968969     28.179242     28.179242     56.358484
     -3.958959     33.705096     33.705096     67.410192
     -3.948949     39.704378     39.704378     79.408756
     -3.938939     45.776671     45.776671     91.553342
     -3.928929     51.641670     51.641670    103.283341
     -3.918919     57.146777     57.146777    114.293554
     -3.908909     62.231681     62.231681    124.463362
     -3.898899     66.841973     66.841973    133.683946
     -3.888889     70.815514     70.815514    141.631028
     -3.878879     73.799467     73.799467    147.598934
     -3.868869     75.260905     75.260905    150.521811
     -3.858859     74.616545     74.616545    149.233090
     -3.848849     71.445374     71.445374    142.890747
     -3.838839     65.698322     65.698322    131.396644
     -3.828829     57.811337     57.811337    115.622675
     -3.818819     48.666392     48.666392     97.332784
     -3.808809     39.407514     39.407514     78.815028
     -3.798799     31.174230     31.174230     62.348460
     -3.788789     24.839638     24.839638     49.679276
     -3.778779     20.830025     20.830025     41.660051
     -3.768769     19.069098     19.069098     38.138197
     -3.758759     19.050057     19.050057     38.100113
     -3.748749     20.006528     20.006528     40.013056
     -3.738739     21.134328     21.134328     42.268655
     -3.728729     21.809521     21.809521     43.619042
     -3.718719     21.751699     21.751699     43.503398
     -3.708709     21.092543     21.092543     42.185087
     -3.698699     20.328037     20.328037     40.656074
     -3.688689     20.158056     20.158056     40.316112
     -3.678679     21.248356     21.248356     42.496712
     -3.668669     23.981007     23.981007     47.962014
     -3.658659     28.277288     28.277288     56.554576
     -3.648649     33.566181     33.566181     67.132361
     -3.638639     38.924420     38.924420     77.848840
     -3.628629     43.344028     43.344028     86.688056
     -3.618619     46.024766     46.024766     92.049532
     -3.608609     46.578251     46.578251     93.156502
     -3.598599     45.077406     45.077406     90.154811
     -3.588589     41.960770     41.960770     83.921539
     -3.578579     37.858187     37.858187     75.716375
     -3.568569     33.413128     33.413128     66.826256
     -3.558559     29.147418     29.147418     58.294835
     -3.548549     25.380986     25.380986     50.761972
     -3.538539     22.206483     22.206483     44.412966
     -3.528529     19.520857     19.520857     39.041713
     -3.518519     17.111595     17.111595     34.223189
     -3.508509     14.775084     14.775084     29.550168
     -3.498498     12.423150     12.423150     24.846300
     -3.488488     10.133734     10.133734     20.267469
     -3.478478      8.128313      8.128313     16.256626
     -3.468468      6.694124      6.694124     13.388249
     -3.458458      6.089444      6.089444     12.178889
     -3.448448      6.466277      6.466277     12.932553
     -3.438438      7.827681      7.827681     15.655361
     -3.428428     10.022725     10.022725     20.045449
     -3.418418     12.776573     12.776573     25.553146
     -3.408408     15.750555     15.750555     31.501110
     -3.398398     18.620629     18.620629     37.241257
     -3.388388     21.154391     21.154391     42.308782
     -3.378378     23.264508     23.264508     46.529017
     -3.368368     25.023728     25.023728     50.047456
     -3.358358     26.638038     26.638038     53.276076
     -3.348348     28.381993     28.381993     56.763986
     -3.338338     30.502853     30.502853     61.005706
     -3.328328     33.105983     33.105983     66.211967
     -3.318318     36.049792     36.049792     72.099584
     -3.308308     38.897852     38.897852     77.795703
     -3.298298     40.978115     40.978115     81.956231
     -3.288288     41.565391     41.565391     83.130782
     -3.278278     40.139034     40.139034     80.278068
     -3.268268     36.610148     36.610148     73.220297
     -3.258258     31.406996     31.406996     62.813992
     -3.248248     25.369045     25.369045     50.738091
     -3.238238     19.494486     19.494486     38.988973
     -3.228228     14.652520     14.652520     29.305040
     -3.218218     11.371799     11.371799     22.743598
     -3.208208      9.762106      9.762106     19.524213
     -3.198198      9.563270      9.563270     19.126541
     -3.188188     10.280251     10.280251     20.560503
     -3.178178     11.358963     11.358963     22.717925
     -3.168168     12.362598     12.362598     24.725195
     -3.158158     13.107236     13.107236     26.214472
     -3.148148     13.713718     13.713718     27.427436
     -3.138138     14.546919     14.546919     29.093837
     -3.128128     16.050510     16.050510     32.101021
     -3.118118     18.531739     18.531739     37.063479
     -3.108108     21.981510     21.981510     43.963020
     -3.098098     26.010167     26.010167     52.020334
     -3.088088     29.936084     29.936084     59.872168
     -3.078078     32.998792     32.998792     65.997583
     -3.068068     34.610032     34.610032     69.220064
     -3.058058     34.534894     34.534894     69.069787
     -3.048048     32.926774     32.926774     65.853548
     -3.038038     30.212382     30.212382     60.424764
     -3.028028     26.898056     26.898056     53.796113
     -3.018018     23.402358     23.402358     46.804715
     -3.008008     19.992288     19.992288     39.984575
     -2.997998     16.831498     16.831498     33.662995
     -2.987988     14.084381     14.084381     28.168763
     -2.977978     11.998260     11.998260     23.996520
     -2.967968     10.911569     10.911569     21.823137
     -2.957958     11.182902     11.182902     22.365804
     -2.947948     13.072730     13.072730     26.145461
     -2.937938     16.623279     16.623279     33.246558
     -2.927928     21.578627     21.578627     43.157254
     -2.917918     27.376924     27.376924     54.753848
     -2.907908     33.231761     33.231761     66.463522
     -2.897898     38.295701     38.295701     76.591403
     -2.887888     41.866583     41.866583     83.733165
     -2.877878     43.569226     43.569226     87.138452
     -2.867868     43.440700     43.440700     86.881400
     -2.857858     41.877714     41.877714     83.755429
     -2.847848     39.462129     39.462129     78.924258
     -2.837838     36.738076     36.738076     73.476152
     -2.827828     34.039523     34.039523     68.079046
     -2.817818     31.442410     31.442410     62.884819
     -2.807808     28.850913     28.850913     57.701826
     -2.797798     26.157756     26.157756     52.315513
     -2.787788     23.383121     23.383121     46.766242
     -2.777778     20.715668     20.715668     41.431335
     -2.767768     18.440460     18.440460     36.880921
     -2.757758     16.805721     16.805721     33.611442
     -2.747748     15.913797     15.913797     31.827595
     -2.737738     15.702072     15.702072     31.404145
     -2.727728     16.019046     16.019046     32.038091
     -2.717718     16.737467     16.737467     33.474935
     -2.707708     17.821879     17.821879     35.643758
     -2.697698     19.300789     19.300789     38.601578
     -2.687688     21.164238     21.164238     42.328476
     -2.677678     23.267125     23.267125     46.534250
     -2.667668     25.322339     25.322339     50.644677
     -2.657658     27.007943     27.007943     54.015886
     -2.647648     28.129278     28.129278     56.258556
     -2.637638     28.730748     28.730748     57.461497
     -2.627628     29.079483     29.079483     58.158966
     -2.617618     29.525975     29.525975     59.051951
     -2.607608     30.325009     30.325009     60.650018
     -2.597598     31.517863     31.517863     63.035725
     -2.587588     32.926190     32.926190     65.852379
     -2.577578     34.233380     34.233380     68.466759
     -2.567568     35.088283     35.088283     70.176567
     -2.557558     35.182189     35.182189     70.364377
     -2.547548     34.296497     34.296497     68.592995
     -2.537538     32.347768     32.347768     64.695535
     -2.527528     29.443759     29.443759     58.887518
     -2.517518     25.926507     25.926507     51.853014
     -2.507508     22.356283     22.356283     44.712566
     -2.497497     19.407880     19.407880     38.815760
     -2.487487     17.697336     17.697336     35.394672
     -2.477477     17.600223     17.600223     35.200445
     -2.467467     19.135186     19.135186     38.270372
     -2.457457     21.963478     21.963478     43.926957
     -2.447447     25.509687     25.509687     51.019375
     -2.437437     29.159835     29.159835     58.319671
     -2.427427     32.458739     32.458739     64.917479
     -2.417417     35.223791     35.223791     70.447581
     -2.407407     37.523791     37.523791     75.047582
     -2.397397     39.531144     39.531144     79.062289
     -2.387387     41.319296     41.319296     82.638592
     -2.377377     42.712768     42.712768     85.425537
     -2.367367     43.280503     43.280503     86.561006
     -2.357357     42.494640     42.494640     84.989280
     -2.347347     39.987607     39.987607     79.975215
     -2.337337     35.780696     35.780696     71.561392
     -2.327327     30.366417     30.366417     60.732834
     -2.317317     24.602819     24.602819     49.205638
     -2.307307     19.473852     19.473852     38.947704
     -2.297297     15.826924     15.826924     31.653849
     -2.287287     14.188834     14.188834     28.377668
     -2.277277     14.703415     14.703415     29.406831
     -2.267267     17.173122     17.173122     34.346245
     -2.257257     21.155739     21.155739     42.311478
     -2.247247     26.070245     26.070245     52.140490
     -2.237237     31.285691     31.285691     62.571382
     -2.227227     36.186239     36.186239     72.372478
     -2.217217     40.217299     40.217299     80.434599
     -2.207207     42.923150     42.923150     85.846300
     -2.197197     43.987069     43.987069     87.974139
     -2.187187     43.279069     43.279069     86.558137
     -2.177177     40.901901     40.901901     81.803802
     -2.167167     37.208349     37.208349     74.416698
     -2.157157     32.756227     32.756227     65.512454
     -2.147147     28.186307     28.186307     56.372613
     -2.137137     24.050543     24.050543     48.101087
     -2.127127     20.658581     20.658581     41.317162
     -2.117117     18.016823     18.016823     36.033647
     -2.107107     15.893495     15.893495     31.786990
     -2.097097     13.977151     13.977151     27.954302
     -2.087087     12.047859     12.047859     24.095719
     -2.077077     10.080433     10.080433     20.160865
     -2.067067      8.243311      8.243311     16.486622
     -2.057057      6.811761      6.811761     13.623523
     -2.047047      6.046184      6.046184     12.092368
     -2.037037      6.085174      6.085174     12.170347
     -2.027027      6.883014      6.883014     13.766027
     -2.017017      8.202653      8.202653     16.405305
     -2.007007      9.665102      9.665102     19.330205
     -1.996997     10.847425     10.847425     21.694850
     -1.986987     11.406439     11.406439     22.812878
     -1.976977     11.188906     11.188906     22.377812
     -1.966967     10.285843     10.285843     20.571687
     -1.956957      9.007698      9.007698     18.015396
     -1.946947      7.790196      7.790196     15.580392
     -1.936937      7.067821      7.067821     14.135642
     -1.926927      7.158157      7.158157     14.316314
     -1.916917      8.187247      8.187247     16.374494
     -1.906907     10.067010     10.067010     20.134019
     -1.896897     12.521894     12.521894     25.043788
     -1.886887     15.154761     15.154761     30.309522
     -1.876877     17.537070     17.537070     35.074139
     -1.866867     19.304080     19.304080     38.608159
     -1.856857     20.234133     20.234133     40.468266
     -1.846847     20.293870     20.293870     40.587740
     -1.836837     19.636842     19.636842     39.273685
     -1.826827     18.550595     18.550595     37.101190
     -1.816817     17.359759     17.359759     34.719518
     -1.806807     16.311555     16.311555     32.623110
     -1.796797     15.487404     15.487404     30.974808
     -1.786787     14.783813     14.783813     29.567627
     -1.776777     13.977779     13.977779     27.955557
     -1.766767     12.847799     12.847799     25.695598
     -1.756757     11.289616     11.289616     22.579232
     -1.746747      9.369613      9.369613     18.739227
     -1.736737      7.296935      7.296935     14.593869
     -1.726727      5.341302      5.341302     10.682605
     -1.716717      3.747069      3.747069      7.494139
     -1.706707      2.683610      2.683610      5.367219
     -1.696697      2.240408      2.240408      4.480816
     -1.686687      2.445922      2.445922      4.891845
     -1.676677      3.280039      3.280039      6.560079
     -1.666667      4.663112      4.663112      9.326223
     -1.656657      6.429478      6.429478     12.858956
     -1.646647      8.313662      8.313662     16.627325
     -1.636637      9.979352      9.979352     19.958703
     -1.626627     11.101021     11.101021     22.202042
