# EIG2DOS: Utility for SIESTA to obtain the electronic density of states
#  E. Artacho, Apr 1999, A. Garcia, Apr 2012
#  Nick R. Papior, Feb 2017
# ------------------------------------------
# Eigenvalues calculated from a non-polarized calculation
# Eigenvalues read from siesta.EIG
# Kpoint weights read from siesta.KP
# Using smearing parameter:   0.0500
# Using 1000 points in the energy range
# Selected bands: 1 to: 2981
# Emin, Emax in file for selected band(s):    -27.2950647    218.3742730
# Nbands, Nspin, Nk   =   2981     1     1
# E_F                 =    -4.2256 eV --> (shifted to ZERO)
# Broadening          =     0.0500 eV
#
#        E            N(up)  (=)   N(down)         Ntot
     -5.000000     34.928361     34.928361     69.856722
     -4.989990     39.122026     39.122026     78.244053
     -4.979980     42.547700     42.547700     85.095400
     -4.969970     44.646588     44.646588     89.293176
     -4.959960     45.064967     45.064967     90.129933
     -4.949950     43.770317     43.770317     87.540634
     -4.939940     41.071649     41.071649     82.143299
     -4.929930     37.554338     37.554338     75.108675
     -4.919920     33.971597     33.971597     67.943193
     -4.909910     31.130130     31.130130     62.260259
     -4.899900     29.776726     29.776726     59.553451
     -4.889890     30.467790     30.467790     60.935579
     -4.879880     33.414137     33.414137     66.828274
     -4.869870     38.338413     38.338413     76.676825
     -4.859860     44.426350     44.426350     88.852699
     -4.849850     50.449492     50.449492    100.898985
     -4.839840     55.068547     55.068547    110.137095
     -4.829830     57.225910     57.225910    114.451820
     -4.819820     56.468491     56.468491    112.936981
     -4.809810     53.059059     53.059059    106.118118
     -4.799800     47.833212     47.833212     95.666423
     -4.789790     41.881406     41.881406     83.762811
     -4.779780     36.207772     36.207772     72.415543
     -4.769770     31.502293     31.502293     63.004585
     -4.759760     28.081733     28.081733     56.163466
     -4.749750     25.965060     25.965060     51.930121
     -4.739740     25.000401     25.000401     50.000802
     -4.729730     24.965630     24.965630     49.931260
     -4.719720     25.604880     25.604880     51.209760
     -4.709710     26.611766     26.611766     53.223532
     -4.699700     27.605967     27.605967     55.211935
     -4.689690     28.158439     28.158439     56.316878
     -4.679680     27.894363     27.894363     55.788725
     -4.669670     26.650803     26.650803     53.301606
     -4.659660     24.617200     24.617200     49.234401
     -4.649650     22.374930     22.374930     44.749859
     -4.639640     20.788570     20.788570     41.577139
     -4.629630     20.765355     20.765355     41.530709
     -4.619620     22.955626     22.955626     45.911252
     -4.609610     27.493806     27.493806     54.987612
     -4.599600     33.874331     33.874331     67.748662
     -4.589590     41.024845     41.024845     82.049690
     -4.579580     47.581143     47.581143     95.162285
     -4.569570     52.292217     52.292217    104.584434
     -4.559560     54.416736     54.416736    108.833471
     -4.549550     53.955237     53.955237    107.910474
     -4.539540     51.618654     51.618654    103.237307
     -4.529530     48.543794     48.543794     97.087588
     -4.519520     45.874326     45.874326     91.748652
     -4.509510     44.376160     44.376160     88.752319
     -4.499499     44.228163     44.228163     88.456326
     -4.489489     45.044304     45.044304     90.088609
     -4.479479     46.086599     46.086599     92.173199
     -4.469469     46.562237     46.562237     93.124475
     -4.459459     45.885277     45.885277     91.770553
     -4.449449     43.820090     43.820090     87.640180
     -4.439439     40.487022     40.487022     80.974044
     -4.429429     36.268906     36.268906     72.537812
     -4.419419     31.684425     31.684425     63.368850
     -4.409409     27.282409     27.282409     54.564818
     -4.399399     23.573696     23.573696     47.147391
     -4.389389     20.982311     20.982311     41.964621
     -4.379379     19.790497     19.790497     39.580994
     -4.369369     20.075685     20.075685     40.151370
     -4.359359     21.669949     21.669949     43.339898
     -4.349349     24.183344     24.183344     48.366688
     -4.339339     27.107789     27.107789     54.215579
     -4.329329     29.972441     29.972441     59.944882
     -4.319319     32.486748     32.486748     64.973497
     -4.309309     34.608066     34.608066     69.216131
     -4.299299     36.505456     36.505456     73.010911
     -4.289289     38.437029     38.437029     76.874059
     -4.279279     40.590096     40.590096     81.180191
     -4.269269     42.942880     42.942880     85.885761
     -4.259259     45.199942     45.199942     90.399884
     -4.249249     46.836616     46.836616     93.673232
     -4.239239     47.257422     47.257422     94.514844
     -4.229229     46.026562     46.026562     92.053125
     -4.219219     43.080896     43.080896     86.161793
     -4.209209     38.820698     38.820698     77.641395
     -4.199199     34.016497     34.016497     68.032995
     -4.189189     29.558945     29.558945     59.117890
     -4.179179     26.162375     26.162375     52.324750
     -4.169169     24.158056     24.158056     48.316111
     -4.159159     23.463951     23.463951     46.927901
     -4.149149     23.726116     23.726116     47.452233
     -4.139139     24.545977     24.545977     49.091954
     -4.129129     25.676082     25.676082     51.352163
     -4.119119     27.091329     27.091329     54.182658
     -4.109109     28.906049     28.906049     57.812098
     -4.099099     31.183641     31.183641     62.367283
     -4.089089     33.745390     33.745390     67.490781
     -4.079079     36.098455     36.098455     72.196911
     -4.069069     37.551651     37.551651     75.103301
     -4.059059     37.486351     37.486351     74.972702
     -4.049049     35.652804     35.652804     71.305609
     -4.039039     32.333793     32.333793     64.667586
     -4.029029     28.283992     28.283992     56.567984
     -4.019019     24.476047     24.476047     48.952095
     -4.009009     21.784679     21.784679     43.569357
     -3.998999     20.756849     20.756849     41.513698
     -3.988989     21.547894     21.547894     43.095788
     -3.978979     24.003949     24.003949     48.007899
     -3.968969     27.805304     27.805304     55.610607
     -3.958959     32.585726     32.585726     65.171453
     -3.948949     37.992846     37.992846     75.985692
     -3.938939     43.707769     43.707769     87.415537
     -3.928929     49.458823     49.458823     98.917646
     -3.918919     55.040507     55.040507    110.081015
     -3.908909     60.315117     60.315117    120.630233
     -3.898899     65.168007     65.168007    130.336014
     -3.888889     69.418625     69.418625    138.837250
     -3.878879     72.733970     72.733970    145.467939
     -3.868869     74.611283     74.611283    149.222566
     -3.858859     74.472178     74.472178    148.944356
     -3.848849     71.852885     71.852885    143.705770
     -3.838839     66.618663     66.618663    133.237326
     -3.828829     59.107363     59.107363    118.214726
     -3.818819     50.130359     50.130359    100.260718
     -3.808809     40.816609     40.816609     81.633217
     -3.798799     32.348925     32.348925     64.697849
     -3.788789     25.681401     25.681401     51.362801
     -3.778779     21.328320     21.328320     42.656640
     -3.768769     19.282692     19.282692     38.565385
     -3.758759     19.075868     19.075868     38.151736
     -3.748749     19.948728     19.948728     39.897456
     -3.738739     21.080960     21.080960     42.161921
     -3.728729     21.818441     21.818441     43.636883
     -3.718719     21.844658     21.844658     43.689315
     -3.708709     21.255626     21.255626     42.511253
     -3.698699     20.517180     20.517180     41.034360
     -3.688689     20.309118     20.309118     40.618237
     -3.678679     21.291628     21.291628     42.583256
     -3.668669     23.859406     23.859406     47.718812
     -3.658659     27.965501     27.965501     55.931002
     -3.648649     33.085222     33.085222     66.170445
     -3.638639     38.344755     38.344755     76.689509
     -3.628629     42.772749     42.772749     85.545499
     -3.618619     45.578567     45.578567     91.157134
     -3.608609     46.350970     46.350970     92.701940
     -3.598599     45.114379     45.114379     90.228758
     -3.588589     42.249504     42.249504     84.499009
     -3.578579     38.337501     38.337501     76.675002
     -3.568569     33.995178     33.995178     67.990357
     -3.558559     29.743001     29.743001     59.486002
     -3.548549     25.919345     25.919345     51.838690
     -3.538539     22.645105     22.645105     45.290209
     -3.528529     19.845506     19.845506     39.691013
     -3.518519     17.329914     17.329914     34.659828
     -3.508509     14.907739     14.907739     29.815479
     -3.498498     12.495256     12.495256     24.990512
     -3.488488     10.167130     10.167130     20.334259
     -3.478478      8.133165      8.133165     16.266330
     -3.468468      6.656969      6.656969     13.313939
     -3.458458      5.954931      5.954931     11.909862
     -3.448448      6.112615      6.112615     12.225230
     -3.438438      7.041742      7.041742     14.083483
     -3.428428      8.488784      8.488784     16.977568
     -3.418418     10.098736     10.098736     20.197472
     -3.408408     11.526591     11.526591     23.053182
     -3.398398     12.569317     12.569317     25.138634
     -3.388388     13.271201     13.271201     26.542402
     -3.378378     13.952681     13.952681     27.905363
     -3.368368     15.136570     15.136570     30.273140
     -3.358358     17.386232     17.386232     34.772464
     -3.348348     21.105399     21.105399     42.210798
     -3.338338     26.361729     26.361729     52.723459
     -3.328328     32.786313     32.786313     65.572625
     -3.318318     39.581770     39.581770     79.163540
     -3.308308     45.651463     45.651463     91.302926
     -3.298298     49.838044     49.838044     99.676087
     -3.288288     51.224045     51.224045    102.448090
     -3.278278     49.407790     49.407790     98.815580
     -3.268268     44.651354     44.651354     89.302708
     -3.258258     37.829726     37.829726     75.659453
     -3.248248     30.188105     30.188105     60.376210
     -3.238238     22.997034     22.997034     45.994068
     -3.228228     17.233271     17.233271     34.466542
     -3.218218     13.388320     13.388320     26.776640
     -3.208208     11.440730     11.440730     22.881460
     -3.198198     10.966554     10.966554     21.933108
     -3.188188     11.332097     11.332097     22.664194
     -3.178178     11.910771     11.910771     23.821543
     -3.168168     12.272999     12.272999     24.545998
     -3.158158     12.304893     12.304893     24.609785
     -3.148148     12.223248     12.223248     24.446495
     -3.138138     12.478965     12.478965     24.957930
     -3.128128     13.575332     13.575332     27.150663
     -3.118118     15.858098     15.858098     31.716195
     -3.108108     19.347769     19.347769     38.695539
     -3.098098     23.675432     23.675432     47.350864
     -3.088088     28.153044     28.153044     56.306089
     -3.078078     31.963195     31.963195     63.926390
     -3.068068     34.404290     34.404290     68.808580
     -3.058058     35.096553     35.096553     70.193107
     -3.048048     34.064313     34.064313     68.128626
     -3.038038     31.665464     31.665464     63.330927
     -3.028028     28.414514     28.414514     56.829028
     -3.018018     24.796676     24.796676     49.593351
     -3.008008     21.163987     21.163987     42.327975
     -2.997998     17.745726     17.745726     35.491452
     -2.987988     14.735126     14.735126     29.470253
     -2.977978     12.377792     12.377792     24.755583
     -2.967968     11.000053     11.000053     22.000105
     -2.957958     10.958572     10.958572     21.917145
     -2.947948     12.533378     12.533378     25.066756
     -2.937938     15.806589     15.806589     31.613178
     -2.927928     20.570677     20.570677     41.141355
     -2.917918     26.302957     26.302957     52.605914
     -2.907908     32.229931     32.229931     64.459862
     -2.897898     37.481636     37.481636     74.963272
     -2.887888     41.301753     41.301753     82.603506
     -2.877878     43.246570     43.246570     86.493140
     -2.867868     43.295396     43.295396     86.590793
     -2.857858     41.820943     41.820943     83.641886
     -2.847848     39.424986     39.424986     78.849973
     -2.837838     36.706608     36.706608     73.413216
     -2.827828     34.063973     34.063973     68.127947
     -2.817818     31.614734     31.614734     63.229468
     -2.807808     29.259912     29.259912     58.519824
     -2.797798     26.842835     26.842835     53.685669
     -2.787788     24.308734     24.308734     48.617468
     -2.777778     21.777759     21.777759     43.555518
     -2.767768     19.499579     19.499579     38.999159
     -2.757758     17.728696     17.728696     35.457393
     -2.747748     16.604016     16.604016     33.208032
     -2.737738     16.107878     16.107878     32.215756
     -2.727728     16.124061     16.124061     32.248122
     -2.717718     16.546718     16.546718     33.093435
     -2.707708     17.357400     17.357400     34.714800
     -2.697698     18.610391     18.610391     37.220782
     -2.687688     20.334164     20.334164     40.668328
     -2.677678     22.422768     22.422768     44.845537
     -2.667668     24.606583     24.606583     49.213166
     -2.657658     26.541511     26.541511     53.083023
     -2.647648     27.971602     27.971602     55.943205
     -2.637638     28.862424     28.862424     57.724848
     -2.627628     29.415529     29.415529     58.831058
     -2.617618     29.951170     29.951170     59.902339
     -2.607608     30.731812     30.731812     61.463624
     -2.597598     31.830996     31.830996     63.661992
     -2.587588     33.110880     33.110880     66.221761
     -2.577578     34.294524     34.294524     68.589047
     -2.567568     35.067479     35.067479     70.134958
     -2.557558     35.151911     35.151911     70.303823
     -2.547548     34.345588     34.345588     68.691177
     -2.537538     32.556298     32.556298     65.112596
     -2.527528     29.854772     29.854772     59.709544
     -2.517518     26.527802     26.527802     53.055603
     -2.507508     23.081304     23.081304     46.162609
     -2.497497     20.153917     20.153917     40.307835
     -2.487487     18.350279     18.350279     36.700557
     -2.477477     18.054510     18.054510     36.109021
     -2.467467     19.304295     19.304295     38.608591
     -2.457457     21.783867     21.783867     43.567734
     -2.447447     24.943794     24.943794     49.887589
     -2.437437     28.201040     28.201040     56.402081
     -2.427427     31.137177     31.137177     62.274354
     -2.417417     33.610691     33.610691     67.221383
     -2.407407     35.733618     35.733618     71.467237
     -2.397397     37.721603     37.721603     75.443205
     -2.387387     39.686312     39.686312     79.372624
     -2.377377     41.473035     41.473035     82.946069
     -2.367367     42.634628     42.634628     85.269257
     -2.357357     42.573890     42.573890     85.147780
     -2.347347     40.802219     40.802219     81.604438
     -2.337337     37.195950     37.195950     74.391900
     -2.327327     32.124510     32.124510     64.249019
     -2.317317     26.386703     26.386703     52.773405
     -2.307307     20.987853     20.987853     41.975705
     -2.297297     16.862251     16.862251     33.724502
     -2.287287     14.652969     14.652969     29.305939
     -2.277277     14.611556     14.611556     29.223112
     -2.267267     16.615062     16.615062     33.230124
     -2.257257     20.256736     20.256736     40.513472
     -2.247247     24.960921     24.960921     49.921843
     -2.237237     30.088298     30.088298     60.176597
     -2.227227     35.016097     35.016097     70.032194
     -2.217217     39.191030     39.191030     78.382060
     -2.207207     42.161860     42.161860     84.323721
     -2.197197     43.605168     43.605168     87.210335
     -2.187187     43.357995     43.357995     86.715991
     -2.177177     41.458955     41.458955     82.917910
     -2.167167     38.177640     38.177640     76.355279
     -2.157157     33.996253     33.996253     67.992506
     -2.147147     29.516430     29.516430     59.032860
     -2.137137     25.302897     25.302897     50.605793
     -2.127127     21.722317     21.722317     43.444634
     -2.117117     18.854614     18.854614     37.709227
     -2.107107     16.524059     16.524059     33.048118
     -2.097097     14.433354     14.433354     28.866707
     -2.087087     12.327985     12.327985     24.655971
     -2.077077     10.107807     10.107807     20.215615
     -2.067067      7.841852      7.841852     15.683705
     -2.057057      5.700688      5.700688     11.401375
     -2.047047      3.859409      3.859409      7.718819
     -2.037037      2.424919      2.424919      4.849838
     -2.027027      1.413093      1.413093      2.826187
     -2.017017      0.769500      0.769500      1.538999
     -2.007007      0.410533      0.410533      0.821066
     -1.996997      0.263648      0.263648      0.527295
     -1.986987      0.296683      0.296683      0.593365
     -1.976977      0.535945      0.535945      1.071890
     -1.966967      1.074641      1.074641      2.149283
     -1.956957      2.068314      2.068314      4.136628
     -1.946947      3.708091      3.708091      7.416183
     -1.936937      6.163512      6.163512     12.327025
     -1.926927      9.499388      9.499388     18.998776
     -1.916917     13.592468     13.592468     27.184937
     -1.906907     18.090383     18.090383     36.180767
     -1.896897     22.450543     22.450543     44.901086
     -1.886887     26.064146     26.064146     52.128293
     -1.876877     28.425049     28.425049     56.850098
     -1.866867     29.274710     29.274710     58.549420
     -1.856857     28.664292     28.664292     57.328583
     -1.846847     26.916817     26.916817     53.833634
     -1.836837     24.516162     24.516162     49.032323
     -1.826827     21.968987     21.968987     43.937974
     -1.816817     19.679057     19.679057     39.358114
     -1.806807     17.859350     17.859350     35.718701
     -1.796797     16.500037     16.500037     33.000074
     -1.786787     15.404528     15.404528     30.809056
     -1.776777     14.288282     14.288282     28.576564
     -1.766767     12.906555     12.906555     25.813109
     -1.756757     11.157491     11.157491     22.314983
     -1.746747      9.115985      9.115985     18.231971
     -1.736737      6.990467      6.990467     13.980935
     -1.726727      5.035232      5.035232     10.070464
     -1.716717      3.468236      3.468236      6.936472
     -1.706707      2.430062      2.430062      4.860125
     -1.696697      1.987749      1.987749      3.975498
     -1.686687      2.159976      2.159976      4.319953
     -1.676677      2.932708      2.932708      5.865417
     -1.666667      4.247806      4.247806      8.495612
     -1.656657      5.971351      5.971351     11.942702
     -1.646647      7.869234      7.869234     15.738468
     -1.636637      9.622157      9.622157     19.244315
     -1.626627     10.895419     10.895419     21.790838
