# EIG2DOS: Utility for SIESTA to obtain the electronic density of states
#  E. Artacho, Apr 1999, A. Garcia, Apr 2012
#  Nick R. Papior, Feb 2017
# ------------------------------------------
# Eigenvalues calculated from a non-polarized calculation
# Eigenvalues read from siesta.EIG
# Kpoint weights read from siesta.KP
# Using smearing parameter:   0.0500
# Using 1000 points in the energy range
# Selected bands: 1 to: 2981
# Emin, Emax in file for selected band(s):    -27.3725778    218.3800840
# Nbands, Nspin, Nk   =   2981     1     1
# E_F                 =    -4.2331 eV --> (shifted to ZERO)
# Broadening          =     0.0500 eV
#
#        E            N(up)  (=)   N(down)         Ntot
     -5.000000     31.273909     31.273909     62.547818
     -4.989990     35.693442     35.693442     71.386885
     -4.979980     39.926096     39.926096     79.852191
     -4.969970     43.321149     43.321149     86.642299
     -4.959960     45.273064     45.273064     90.546128
     -4.949950     45.417478     45.417478     90.834957
     -4.939940     43.762775     43.762775     87.525550
     -4.929930     40.711962     40.711962     81.423924
     -4.919920     36.981466     36.981466     73.962933
     -4.909910     33.459011     33.459011     66.918023
     -4.899900     31.042320     31.042320     62.084640
     -4.889890     30.475412     30.475412     60.950823
     -4.879880     32.183115     32.183115     64.366229
     -4.869870     36.120913     36.120913     72.241826
     -4.859860     41.694700     41.694700     83.389399
     -4.849850     47.822644     47.822644     95.645287
     -4.839840     53.174833     53.174833    106.349667
     -4.829830     56.542364     56.542364    113.084728
     -4.819820     57.205542     57.205542    114.411084
     -4.809810     55.149092     55.149092    110.298185
     -4.799800     51.033065     51.033065    102.066129
     -4.789790     45.939154     45.939154     91.878307
     -4.779780     41.007911     41.007911     82.015822
     -4.769770     37.111034     37.111034     74.222067
     -4.759760     34.660891     34.660891     69.321781
     -4.749750     33.585908     33.585908     67.171815
     -4.739740     33.440666     33.440666     66.881332
     -4.729730     33.592142     33.592142     67.184285
     -4.719720     33.419886     33.419886     66.839772
     -4.709710     32.475744     32.475744     64.951488
     -4.699700     30.567117     30.567117     61.134235
     -4.689690     27.758503     27.758503     55.517006
     -4.679680     24.318662     24.318662     48.637324
     -4.669670     20.655129     20.655129     41.310258
     -4.659660     17.264063     17.264063     34.528127
     -4.649650     14.693801     14.693801     29.387602
     -4.639640     13.498358     13.498358     26.996716
     -4.629630     14.157376     14.157376     28.314752
     -4.619620     16.959504     16.959504     33.919008
     -4.609610     21.874953     21.874953     43.749905
     -4.599600     28.466768     28.466768     56.933536
     -4.589590     35.897160     35.897160     71.794320
     -4.579580     43.065062     43.065062     86.130123
     -4.569570     48.863264     48.863264     97.726529
     -4.559560     52.484511     52.484511    104.969022
     -4.549550     53.666123     53.666123    107.332246
     -4.539540     52.769116     52.769116    105.538232
     -4.529530     50.645274     50.645274    101.290549
     -4.519520     48.331542     48.331542     96.663084
     -4.509510     46.685861     46.685861     93.371722
     -4.499499     46.105981     46.105981     92.211961
     -4.489489     46.437841     46.437841     92.875681
     -4.479479     47.097663     47.097663     94.195327
     -4.469469     47.340716     47.340716     94.681431
     -4.459459     46.553842     46.553842     93.107684
     -4.449449     44.453886     44.453886     88.907771
     -4.439439     41.133044     41.133044     82.266088
     -4.429429     36.970196     36.970196     73.940392
     -4.419419     32.481821     32.481821     64.963641
     -4.409409     28.191333     28.191333     56.382665
     -4.399399     24.556236     24.556236     49.112472
     -4.389389     21.940422     21.940422     43.880845
     -4.379379     20.591774     20.591774     41.183549
     -4.369369     20.599912     20.599912     41.199824
     -4.359359     21.849112     21.849112     43.698224
     -4.349349     24.010867     24.010867     48.021734
     -4.339339     26.612341     26.612341     53.224681
     -4.329329     29.174949     29.174949     58.349898
     -4.319319     31.371463     31.371463     62.742926
     -4.309309     33.131896     33.131896     66.263792
     -4.299299     34.647715     34.647715     69.295429
     -4.289289     36.266203     36.266203     72.532405
     -4.279279     38.309660     38.309660     76.619319
     -4.269269     40.883468     40.883468     81.766937
     -4.259259     43.748741     43.748741     87.497482
     -4.249249     46.325188     46.325188     92.650377
     -4.239239     47.850788     47.850788     95.701577
     -4.229229     47.658470     47.658470     95.316940
     -4.219219     45.461923     45.461923     90.923846
     -4.209209     41.516247     41.516247     83.032495
     -4.199199     36.564727     36.564727     73.129454
     -4.189189     31.586030     31.586030     63.172061
     -4.179179     27.458324     27.458324     54.916649
     -4.169169     24.695269     24.695269     49.390538
     -4.159159     23.362158     23.362158     46.724316
     -4.149149     23.182239     23.182239     46.364478
     -4.139139     23.753720     23.753720     47.507440
     -4.129129     24.760943     24.760943     49.521886
     -4.119119     26.084270     26.084270     52.168541
     -4.109109     27.769858     27.769858     55.539717
     -4.099099     29.885553     29.885553     59.771106
     -4.089089     32.342084     32.342084     64.684168
     -4.079079     34.781968     34.781968     69.563936
     -4.069069     36.615922     36.615922     73.231844
     -4.059059     37.216430     37.216430     74.432859
     -4.049049     36.188986     36.188986     72.377972
     -4.039039     33.585869     33.585869     67.171738
     -4.029029     29.946633     29.946633     59.893267
     -4.019019     26.138908     26.138908     52.277815
     -4.009009     23.078318     23.078318     46.156636
     -3.998999     21.461784     21.461784     42.923567
     -3.988989     21.623867     21.623867     43.247735
     -3.978979     23.545370     23.545370     47.090740
     -3.968969     26.963628     26.963628     53.927257
     -3.958959     31.502510     31.502510     63.005021
     -3.948949     36.764858     36.764858     73.529716
     -3.938939     42.380030     42.380030     84.760060
     -3.928929     48.031427     48.031427     96.062854
     -3.918919     53.482736     53.482736    106.965471
     -3.908909     58.592023     58.592023    117.184045
     -3.898899     63.284721     63.284721    126.569441
     -3.888889     67.472714     67.472714    134.945427
     -3.878879     70.948355     70.948355    141.896710
     -3.868869     73.316771     73.316771    146.633541
     -3.858859     74.027752     74.027752    148.055504
     -3.848849     72.525127     72.525127    145.050254
     -3.838839     68.468952     68.468952    136.937904
     -3.828829     61.938709     61.938709    123.877418
     -3.818819     53.521252     53.521252    107.042503
     -3.808809     44.230665     44.230665     88.461330
     -3.798799     35.277909     35.277909     70.555818
     -3.788789     27.770538     27.770538     55.541076
     -3.778779     22.446769     22.446769     44.893538
     -3.768769     19.526713     19.526713     39.053426
     -3.758759     18.713997     18.713997     37.427995
     -3.748749     19.330530     19.330530     38.661059
     -3.738739     20.534557     20.534557     41.069114
     -3.728729     21.560957     21.560957     43.121914
     -3.718719     21.926101     21.926101     43.852203
     -3.708709     21.550569     21.550569     43.101139
     -3.698699     20.768946     20.768946     41.537892
     -3.688689     20.218048     20.218048     40.436096
     -3.678679     20.624266     20.624266     41.248533
     -3.668669     22.543886     22.543886     45.087773
     -3.658659     26.136898     26.136898     52.273796
     -3.648649     31.058805     31.058805     62.117610
     -3.638639     36.523081     36.523081     73.046163
     -3.628629     41.522375     41.522375     83.044751
     -3.618619     45.126453     45.126453     90.252906
     -3.608609     46.739226     46.739226     93.478452
     -3.598599     46.221018     46.221018     92.442036
     -3.588589     43.852283     43.852283     87.704567
     -3.578579     40.186080     40.186080     80.372160
     -3.568569     35.866637     35.866637     71.733274
     -3.558559     31.474126     31.474126     62.948251
     -3.548549     27.420466     27.420466     54.840932
     -3.538539     23.899911     23.899911     47.799821
     -3.528529     20.896809     20.896809     41.793617
     -3.518519     18.252370     18.252370     36.504739
     -3.508509     15.776270     15.776270     31.552540
     -3.498498     13.364825     13.364825     26.729649
     -3.488488     11.077780     11.077780     22.155559
     -3.478478      9.143058      9.143058     18.286116
     -3.468468      7.891698      7.891698     15.783397
     -3.458458      7.650571      7.650571     15.301142
     -3.448448      8.626267      8.626267     17.252533
     -3.438438     10.807944     10.807944     21.615888
     -3.428428     13.914631     13.914631     27.829262
     -3.418418     17.414888     17.414888     34.829776
     -3.408408     20.638664     20.638664     41.277328
     -3.398398     22.968781     22.968781     45.937563
     -3.388388     24.051969     24.051969     48.103937
     -3.378378     23.939452     23.939452     47.878904
     -3.368368     23.085357     23.085357     46.170714
     -3.358358     22.195625     22.195625     44.391250
     -3.348348     21.991836     21.991836     43.983671
     -3.338338     22.986198     22.986198     45.972396
     -3.328328     25.339959     25.339959     50.679918
     -3.318318     28.824811     28.824811     57.649622
     -3.308308     32.870054     32.870054     65.740109
     -3.298298     36.677023     36.677023     73.354047
     -3.288288     39.395364     39.395364     78.790729
     -3.278278     40.346165     40.346165     80.692331
     -3.268268     39.236090     39.236090     78.472181
     -3.258258     36.270382     36.270382     72.540764
     -3.248248     32.089396     32.089396     64.178792
     -3.238238     27.533360     27.533360     55.066719
     -3.228228     23.336489     23.336489     46.672978
     -3.218218     19.895588     19.895588     39.791177
     -3.208208     17.216025     17.216025     34.432050
     -3.198198     15.037957     15.037957     30.075915
     -3.188188     13.054238     13.054238     26.108476
     -3.178178     11.102182     11.102182     22.204364
     -3.168168      9.250273      9.250273     18.500546
     -3.158158      7.770369      7.770369     15.540737
     -3.148148      7.038161      7.038161     14.076323
     -3.138138      7.415164      7.415164     14.830328
     -3.128128      9.144304      9.144304     18.288608
     -3.118118     12.267549     12.267549     24.535097
     -3.108108     16.569652     16.569652     33.139304
     -3.098098     21.565348     21.565348     43.130696
     -3.088088     26.556789     26.556789     53.113577
     -3.078078     30.772965     30.772965     61.545930
     -3.068068     33.562739     33.562739     67.125478
     -3.058058     34.571898     34.571898     69.143797
     -3.048048     33.825136     33.825136     67.650271
     -3.038038     31.672124     31.672124     63.344248
     -3.028028     28.625797     28.625797     57.251594
     -3.018018     25.178041     25.178041     50.356081
     -3.008008     21.684786     21.684786     43.369572
     -2.997998     18.364203     18.364203     36.728407
     -2.987988     15.381738     15.381738     30.763476
     -2.977978     12.950207     12.950207     25.900413
     -2.967968     11.376163     11.376163     22.752326
     -2.957958     11.023448     11.023448     22.046895
     -2.947948     12.209820     12.209820     24.419640
     -2.937938     15.079093     15.079093     30.158186
     -2.927928     19.496430     19.496430     38.992860
     -2.917918     25.007407     25.007407     50.014815
     -2.907908     30.887307     30.887307     61.774614
     -2.897898     36.283363     36.283363     72.566726
     -2.887888     40.418780     40.418780     80.837561
     -2.877878     42.794294     42.794294     85.588589
     -2.867868     43.310769     43.310769     86.621538
     -2.857858     42.259147     42.259147     84.518294
     -2.847848     40.177510     40.177510     80.355021
     -2.837838     37.634757     37.634757     75.269514
     -2.827828     35.035100     35.035100     70.070200
     -2.817818     32.526977     32.526977     65.053954
     -2.807808     30.047354     30.047354     60.094708
     -2.797798     27.464291     27.464291     54.928582
     -2.787788     24.732913     24.732913     49.465827
     -2.777778     21.978400     21.978400     43.956799
     -2.767768     19.464979     19.464979     38.929958
     -2.757758     17.476728     17.476728     34.953455
     -2.747748     16.186203     16.186203     32.372405
     -2.737738     15.591355     15.591355     31.182711
     -2.727728     15.556566     15.556566     31.113131
     -2.717718     15.926311     15.926311     31.852623
     -2.707708     16.631983     16.631983     33.263966
     -2.697698     17.716137     17.716137     35.432274
     -2.687688     19.254684     19.254684     38.509368
     -2.677678     21.230802     21.230802     42.461603
     -2.667668     23.454284     23.454284     46.908568
     -2.657658     25.595326     25.595326     51.190652
     -2.647648     27.325275     27.325275     54.650551
     -2.637638     28.480381     28.480381     56.960763
     -2.627628     29.143458     29.143458     58.286916
     -2.617618     29.589972     29.589972     59.179943
     -2.607608     30.133180     30.133180     60.266360
     -2.597598     30.963852     30.963852     61.927705
     -2.587588     32.071681     32.071681     64.143362
     -2.577578     33.270312     33.270312     66.540624
     -2.567568     34.281040     34.281040     68.562080
     -2.557558     34.812251     34.812251     69.624502
     -2.547548     34.607068     34.607068     69.214136
     -2.537538     33.478794     33.478794     66.957588
     -2.527528     31.365778     31.365778     62.731557
     -2.517518     28.404638     28.404638     56.809277
     -2.507508     24.977240     24.977240     49.954479
     -2.497497     21.676175     21.676175     43.352350
     -2.487487     19.169838     19.169838     38.339676
     -2.477477     18.006662     18.006662     36.013324
     -2.467467     18.438729     18.438729     36.877458
     -2.457457     20.343366     20.343366     40.686732
     -2.447447     23.280352     23.280352     46.560704
     -2.437437     26.663187     26.663187     53.326374
     -2.427427     29.971798     29.971798     59.943597
     -2.417417     32.913309     32.913309     65.826618
     -2.407407     35.458801     35.458801     70.917603
     -2.397397     37.741500     37.741500     75.483000
     -2.387387     39.870175     39.870175     79.740349
     -2.377377     41.756689     41.756689     83.513378
     -2.367367     43.053692     43.053692     86.107383
     -2.357357     43.246423     43.246423     86.492846
     -2.347347     41.865674     41.865674     83.731348
     -2.337337     38.725424     38.725424     77.450849
     -2.327327     34.072382     34.072382     68.144765
     -2.317317     28.575686     28.575686     57.151372
     -2.307307     23.161345     23.161345     46.322691
     -2.297297     18.764808     18.764808     37.529616
     -2.287287     16.100098     16.100098     32.200196
     -2.277277     15.519310     15.519310     31.038620
     -2.267267     16.985810     16.985810     33.971621
     -2.257257     20.140330     20.140330     40.280660
     -2.247247     24.418502     24.418502     48.837005
     -2.237237     29.178461     29.178461     58.356923
     -2.227227     33.807029     33.807029     67.614058
     -2.217217     37.786241     37.786241     75.572483
     -2.207207     40.718160     40.718160     81.436320
     -2.197197     42.323694     42.323694     84.647387
     -2.187187     42.442363     42.442363     84.884727
     -2.177177     41.053737     41.053737     82.107473
     -2.167167     38.315640     38.315640     76.631280
     -2.157157     34.584245     34.584245     69.168489
     -2.147147     30.372467     30.372467     60.744934
     -2.137137     26.231422     26.231422     52.462844
     -2.127127     22.592053     22.592053     45.184106
     -2.117117     19.643274     19.643274     39.286548
     -2.107107     17.315170     17.315170     34.630339
     -2.097097     15.380180     15.380180     30.760360
     -2.087087     13.617333     13.617333     27.234666
     -2.077077     11.949754     11.949754     23.899508
     -2.067067     10.484889     10.484889     20.969777
     -2.057057      9.443933      9.443933     18.887865
     -2.047047      9.024840      9.024840     18.049681
     -2.037037      9.271506      9.271506     18.543012
     -2.027027     10.012398     10.012398     20.024797
     -2.017017     10.896262     10.896262     21.792523
     -2.007007     11.508752     11.508752     23.017504
     -1.996997     11.519452     11.519452     23.038904
     -1.986987     10.797086     10.797086     21.594173
     -1.976977      9.447739      9.447739     18.895478
     -1.966967      7.768739      7.768739     15.537477
     -1.956957      6.149040      6.149040     12.298081
     -1.946947      4.963775      4.963775      9.927549
     -1.936937      4.498995      4.498995      8.997990
     -1.926927      4.915247      4.915247      9.830494
     -1.916917      6.237011      6.237011     12.474023
     -1.906907      8.352649      8.352649     16.705299
     -1.896897     11.022101     11.022101     22.044202
     -1.886887     13.901909     13.901909     27.803818
     -1.876877     16.596909     16.596909     33.193819
     -1.866867     18.735521     18.735521     37.471043
     -1.856857     20.051279     20.051279     40.102559
     -1.846847     20.446381     20.446381     40.892762
     -1.836837     20.015396     20.015396     40.030792
     -1.826827     19.015778     19.015778     38.031557
     -1.816817     17.785482     17.785482     35.570965
     -1.806807     16.627639     16.627639     33.255278
     -1.796797     15.702952     15.702952     31.405905
     -1.786787     14.978165     14.978165     29.956330
     -1.776777     14.260231     14.260231     28.520463
     -1.766767     13.304091     13.304091     26.608182
     -1.756757     11.941111     11.941111     23.882222
     -1.746747     10.163826     10.163826     20.327652
     -1.736737      8.129829      8.129829     16.259659
     -1.726727      6.095012      6.095012     12.190024
     -1.716717      4.321875      4.321875      8.643749
     -1.706707      3.011584      3.011584      6.023169
     -1.696697      2.282517      2.282517      4.565034
     -1.686687      2.184692      2.184692      4.369383
     -1.676677      2.720392      2.720392      5.440784
     -1.666667      3.845252      3.845252      7.690505
     -1.656657      5.445504      5.445504     10.891008
     -1.646647      7.311604      7.311604     14.623208
     -1.636637      9.140641      9.140641     18.281281
     -1.626627     10.590503     10.590503     21.181006
