# EIG2DOS: Utility for SIESTA to obtain the electronic density of states
#  E. Artacho, Apr 1999, A. Garcia, Apr 2012
#  Nick R. Papior, Feb 2017
# ------------------------------------------
# Eigenvalues calculated from a non-polarized calculation
# Eigenvalues read from siesta.EIG
# Kpoint weights read from siesta.KP
# Using smearing parameter:   0.0500
# Using 1000 points in the energy range
# Selected bands: 1 to: 2981
# Emin, Emax in file for selected band(s):    -27.2660124    218.4032090
# Nbands, Nspin, Nk   =   2981     1     1
# E_F                 =    -4.1888 eV --> (shifted to ZERO)
# Broadening          =     0.0500 eV
#
#        E            N(up)  (=)   N(down)         Ntot
     -5.000000     30.994254     30.994254     61.988507
     -4.989990     36.332698     36.332698     72.665395
     -4.979980     41.494471     41.494471     82.988943
     -4.969970     45.573069     45.573069     91.146137
     -4.959960     47.778640     47.778640     95.557280
     -4.949950     47.702197     47.702197     95.404393
     -4.939940     45.457218     45.457218     90.914436
     -4.929930     41.654963     41.654963     83.309926
     -4.919920     37.246515     37.246515     74.493029
     -4.909910     33.305432     33.305432     66.610864
     -4.899900     30.813384     30.813384     61.626768
     -4.889890     30.473667     30.473667     60.947335
     -4.879880     32.557114     32.557114     65.114228
     -4.869870     36.800354     36.800354     73.600709
     -4.859860     42.404564     42.404564     84.809127
     -4.849850     48.181569     48.181569     96.363138
     -4.839840     52.843448     52.843448    105.686896
     -4.829830     55.355666     55.355666    110.711332
     -4.819820     55.223902     55.223902    110.447804
     -4.809810     52.600120     52.600120    105.200240
     -4.799800     48.171210     48.171210     96.342419
     -4.789790     42.890279     42.890279     85.780558
     -4.779780     37.672573     37.672573     75.345145
     -4.769770     33.175018     33.175018     66.350036
     -4.759760     29.720400     29.720400     59.440801
     -4.749750     27.352369     27.352369     54.704737
     -4.739740     25.955453     25.955453     51.910905
     -4.729730     25.363827     25.363827     50.727653
     -4.719720     25.408810     25.408810     50.817621
     -4.709710     25.900187     25.900187     51.800373
     -4.699700     26.579699     26.579699     53.159399
     -4.689690     27.106756     27.106756     54.213512
     -4.679680     27.122397     27.122397     54.244793
     -4.669670     26.390078     26.390078     52.780156
     -4.659660     24.955332     24.955332     49.910663
     -4.649650     23.236231     23.236231     46.472461
     -4.639640     21.974480     21.974480     43.948960
     -4.629630     22.034704     22.034704     44.069407
     -4.619620     24.107272     24.107272     48.214545
     -4.609610     28.417987     28.417987     56.835974
     -4.599600     34.559699     34.559699     69.119397
     -4.589590     41.531495     41.531495     83.062991
     -4.579580     48.002708     48.002708     96.005416
     -4.569570     52.727625     52.727625    105.455250
     -4.559560     54.959250     54.959250    109.918501
     -4.549550     54.691986     54.691986    109.383972
     -4.539540     52.626373     52.626373    105.252747
     -4.529530     49.869603     49.869603     99.739206
     -4.519520     47.501897     47.501897     95.003793
     -4.509510     46.191196     46.191196     92.382391
     -4.499499     46.004827     46.004827     92.009654
     -4.489489     46.470945     46.470945     92.941891
     -4.479479     46.834697     46.834697     93.669394
     -4.469469     46.382534     46.382534     92.765068
     -4.459459     44.698697     44.698697     89.397393
     -4.449449     41.766965     41.766965     83.533931
     -4.439439     37.910224     37.910224     75.820448
     -4.429429     33.631146     33.631146     67.262293
     -4.419419     29.446744     29.446744     58.893488
     -4.409409     25.786993     25.786993     51.573987
     -4.399399     22.971284     22.971284     45.942567
     -4.389389     21.223895     21.223895     42.447791
     -4.379379     20.675670     20.675670     41.351340
     -4.369369     21.329967     21.329967     42.659935
     -4.359359     23.019598     23.019598     46.039196
     -4.349349     25.407107     25.407107     50.814215
     -4.339339     28.061781     28.061781     56.123562
     -4.329329     30.596701     30.596701     61.193402
     -4.319319     32.804697     32.804697     65.609395
     -4.309309     34.723373     34.723373     69.446746
     -4.299299     36.589981     36.589981     73.179962
     -4.289289     38.696711     38.696711     77.393422
     -4.279279     41.201132     41.201132     82.402264
     -4.269269     43.969995     43.969995     87.939989
     -4.259259     46.531555     46.531555     93.063110
     -4.249249     48.179212     48.179212     96.358425
     -4.239239     48.210016     48.210016     96.420032
     -4.229229     46.213549     46.213549     92.427098
     -4.219219     42.285283     42.285283     84.570566
     -4.209209     37.056792     37.056792     74.113583
     -4.199199     31.514977     31.514977     63.029954
     -4.189189     26.683879     26.683879     53.367759
     -4.179179     23.307765     23.307765     46.615531
     -4.169169     21.666975     21.666975     43.333951
     -4.159159     21.587516     21.587516     43.175033
     -4.149149     22.614505     22.614505     45.229009
     -4.139139     24.253823     24.253823     48.507647
     -4.129129     26.169129     26.169129     52.338259
     -4.119119     28.251110     28.251110     56.502219
     -4.109109     30.537037     30.537037     61.074073
     -4.099099     33.029958     33.029958     66.059917
     -4.089089     35.521753     35.521753     71.043506
     -4.079079     37.533512     37.533512     75.067024
     -4.069069     38.433775     38.433775     76.867549
     -4.059059     37.697327     37.697327     75.394654
     -4.049049     35.178441     35.178441     70.356883
     -4.039039     31.251799     31.251799     62.503598
     -4.029029     26.741152     26.741152     53.482304
     -4.019019     22.669310     22.669310     45.338619
     -4.009009     19.951009     19.951009     39.902018
     -3.998999     19.162175     19.162175     38.324351
     -3.988989     20.459396     20.459396     40.918791
     -3.978979     23.639963     23.639963     47.279925
     -3.968969     28.277261     28.277261     56.554523
     -3.958959     33.860903     33.860903     67.721806
     -3.948949     39.902173     39.902173     79.804346
     -3.938939     46.000555     46.000555     92.001110
     -3.928929     51.880370     51.880370    103.760740
     -3.918919     57.396233     57.396233    114.792465
     -3.908909     62.493195     62.493195    124.986390
     -3.898899     67.115812     67.115812    134.231624
     -3.888889     71.092821     71.092821    142.185641
     -3.878879     74.057092     74.057092    148.114184
     -3.868869     75.462965     75.462965    150.925929
     -3.858859     74.723363     74.723363    149.446726
     -3.848849     71.426666     71.426666    142.853331
     -3.838839     65.545125     65.545125    131.090250
     -3.828829     57.541557     57.541557    115.083113
     -3.818819     48.321571     48.321571     96.643142
     -3.808809     39.042081     39.042081     78.084162
     -3.798799     30.841272     30.841272     61.682544
     -3.788789     24.578128     24.578128     49.156255
     -3.778779     20.657330     20.657330     41.314659
     -3.768769     18.980335     18.980335     37.960670
     -3.758759     19.023512     19.023512     38.047025
     -3.748749     20.012759     20.012759     40.025519
     -3.738739     21.146018     21.146018     42.292037
     -3.728729     21.809517     21.809517     43.619034
     -3.718719     21.737453     21.737453     43.474907
     -3.708709     21.076125     21.076125     42.152250
     -3.698699     20.331723     20.331723     40.663445
     -3.688689     20.206430     20.206430     40.412861
     -3.678679     21.358836     21.358836     42.717672
     -3.668669     24.155624     24.155624     48.311249
     -3.658659     28.498858     28.498858     56.997716
     -3.648649     33.800938     33.800938     67.601875
     -3.638639     39.130812     39.130812     78.261624
     -3.628629     43.484550     43.484550     86.969099
     -3.618619     46.076134     46.076134     92.152269
     -3.608609     46.536063     46.536063     93.072127
     -3.598599     44.954283     44.954283     89.908566
     -3.588589     41.780047     41.780047     83.560095
     -3.578579     37.646588     37.646588     75.293176
     -3.568569     33.195072     33.195072     66.390144
     -3.558559     28.941799     28.941799     57.883597
     -3.548549     25.199904     25.199904     50.399809
     -3.538539     22.055241     22.055241     44.110482
     -3.528529     19.398944     19.398944     38.797887
     -3.518519     17.014546     17.014546     34.029092
     -3.508509     14.696676     14.696676     29.393352
     -3.498498     12.356766     12.356766     24.713531
     -3.488488     10.071385     10.071385     20.142771
     -3.478478      8.055867      8.055867     16.111735
     -3.468468      6.581609      6.581609     13.163218
     -3.458458      5.876221      5.876221     11.752442
     -3.448448      6.043355      6.043355     12.086710
     -3.438438      7.024320      7.024320     14.048641
     -3.428428      8.610766      8.610766     17.221531
     -3.418418     10.509118     10.509118     21.018235
     -3.408408     12.444890     12.444890     24.889779
     -3.398398     14.274270     14.274270     28.548540
     -3.388388     16.053206     16.053206     32.106413
     -3.378378     18.020717     18.020717     36.041434
     -3.368368     20.491245     20.491245     40.982489
     -3.358358     23.701550     23.701550     47.403099
     -3.348348     27.685004     27.685004     55.370007
     -3.338338     32.227105     32.227105     64.454209
     -3.328328     36.903926     36.903926     73.807852
     -3.318318     41.162309     41.162309     82.324618
     -3.308308     44.400980     44.400980     88.801960
     -3.298298     46.047944     46.047944     92.095888
     -3.288288     45.657779     45.657779     91.315558
     -3.278278     43.036642     43.036642     86.073284
     -3.268268     38.353953     38.353953     76.707906
     -3.258258     32.168738     32.168738     64.337476
     -3.248248     25.325610     25.325610     50.651220
     -3.238238     18.747376     18.747376     37.494752
     -3.228228     13.212327     13.212327     26.424654
     -3.218218      9.207166      9.207166     18.414331
     -3.208208      6.893786      6.893786     13.787572
     -3.198198      6.164844      6.164844     12.329689
     -3.188188      6.734260      6.734260     13.468520
     -3.178178      8.224177      8.224177     16.448353
     -3.168168     10.242950     10.242950     20.485900
     -3.158158     12.464706     12.464706     24.929412
     -3.148148     14.706394     14.706394     29.412787
     -3.138138     16.970308     16.970308     33.940616
     -3.128128     19.410989     19.410989     38.821978
     -3.118118     22.214590     22.214590     44.429179
     -3.108108     25.433944     25.433944     50.867887
     -3.098098     28.865243     28.865243     57.730487
     -3.088088     32.045989     32.045989     64.091977
     -3.078078     34.393482     34.393482     68.786964
     -3.068068     35.422387     35.422387     70.844775
     -3.058058     34.930423     34.930423     69.860846
     -3.048048     33.057214     33.057214     66.114427
     -3.038038     30.194528     30.194528     60.389056
     -3.028028     26.810325     26.810325     53.620650
     -3.018018     23.290846     23.290846     46.581693
     -3.008008     19.880602     19.880602     39.761205
     -2.997998     16.730768     16.730768     33.461536
     -2.987988     14.001109     14.001109     28.002219
     -2.977978     11.938686     11.938686     23.877372
     -2.967968     10.882510     10.882510     21.765019
     -2.957958     11.190156     11.190156     22.380313
     -2.947948     13.118665     13.118665     26.237331
     -2.937938     16.705025     16.705025     33.410050
     -2.927928     21.687715     21.687715     43.375430
     -2.917918     27.500578     27.500578     55.001157
     -2.907908     33.355504     33.355504     66.711007
     -2.897898     38.406522     38.406522     76.813045
     -2.887888     41.955702     41.955702     83.911405
     -2.877878     43.633512     43.633512     87.267024
     -2.867868     43.482162     43.482162     86.964324
     -2.857858     41.901150     41.901150     83.802300
     -2.847848     39.471794     39.471794     78.943587
     -2.837838     36.734892     36.734892     73.469783
     -2.827828     34.020366     34.020366     68.040732
     -2.817818     31.402142     31.402142     62.804284
     -2.807808     28.786350     28.786350     57.572699
     -2.797798     26.071464     26.071464     52.142927
     -2.787788     23.284801     23.284801     46.569603
     -2.777778     20.620136     20.620136     41.240272
     -2.767768     18.363226     18.363226     36.726453
     -2.757758     16.758691     16.758691     33.517382
     -2.747748     15.903555     15.903555     31.807110
     -2.737738     15.731463     15.731463     31.462925
     -2.727728     16.090358     16.090358     32.180716
     -2.717718     16.854055     16.854055     33.708111
     -2.707708     17.985789     17.985789     35.971577
     -2.697698     19.506867     19.506867     39.013734
     -2.687688     21.394475     21.394475     42.788951
     -2.677678     23.490226     23.490226     46.980452
     -2.667668     25.501180     25.501180     51.002360
     -2.657658     27.112708     27.112708     54.225416
     -2.647648     28.149795     28.149795     56.299589
     -2.637638     28.681156     28.681156     57.362313
     -2.627628     28.992456     28.992456     57.984913
     -2.617618     29.439650     29.439650     58.879300
     -2.607608     30.269399     30.269399     60.538798
     -2.597598     31.506643     31.506643     63.013286
     -2.587588     32.955587     32.955587     65.911174
     -2.577578     34.286019     34.286019     68.572039
     -2.567568     35.138816     35.138816     70.277632
     -2.557558     35.203095     35.203095     70.406190
     -2.547548     34.264210     34.264210     68.528420
     -2.537538     32.249189     32.249189     64.498378
     -2.527528     29.281633     29.281633     58.563266
     -2.517518     25.720982     25.720982     51.441965
     -2.507508     22.140921     22.140921     44.281841
     -2.497497     19.221000     19.221000     38.441999
     -2.487487     17.571985     17.571985     35.143971
     -2.477477     17.556562     17.556562     35.113124
     -2.467467     19.177560     19.177560     38.355120
     -2.457457     22.082142     22.082142     44.164284
     -2.447447     25.685485     25.685485     51.370970
     -2.437437     29.369662     29.369662     58.739324
     -2.427427     32.680098     32.680098     65.360197
     -2.417417     35.437501     35.437501     70.875003
     -2.407407     37.714525     37.714525     75.429049
     -2.397397     39.686040     39.686040     79.372081
     -2.387387     41.425665     41.425665     82.851331
     -2.377377     42.756691     42.756691     85.513381
     -2.367367     43.248204     43.248204     86.496408
     -2.357357     42.377222     42.377222     84.754444
     -2.347347     39.787310     39.787310     79.574620
     -2.337337     35.515025     35.515025     71.030051
     -2.327327     30.066945     30.066945     60.133891
     -2.317317     24.308258     24.308258     48.616517
     -2.307307     19.220320     19.220320     38.440640
     -2.297297     15.639789     15.639789     31.279578
     -2.287287     14.079291     14.079291     28.158583
     -2.277277     14.670149     14.670149     29.340299
     -2.267267     17.206976     17.206976     34.413953
     -2.257257     21.244517     21.244517     42.489034
     -2.247247     26.201494     26.201494     52.402989
     -2.237237     31.446822     31.446822     62.893644
     -2.227227     36.362776     36.362776     72.725553
     -2.217217     40.391030     40.391030     80.782060
     -2.207207     43.072082     43.072082     86.144164
     -2.197197     44.088386     44.088386     88.176771
     -2.187187     43.314714     43.314714     86.629429
     -2.177177     40.864710     40.864710     81.729420
     -2.167167     37.105641     37.105641     74.211282
     -2.157157     32.608440     32.608440     65.216879
     -2.147147     28.020487     28.020487     56.040974
     -2.137137     23.891180     23.891180     47.782360
     -2.127127     20.519610     20.519610     41.039219
     -2.117117     17.897556     17.897556     35.795111
     -2.107107     15.778165     15.778165     31.556331
     -2.097097     13.834735     13.834735     27.669471
     -2.087087     11.828019     11.828019     23.656037
     -2.077077      9.704251      9.704251     19.408502
     -2.067067      7.593459      7.593459     15.186919
     -2.057057      5.733442      5.733442     11.466884
     -2.047047      4.373177      4.373177      8.746355
     -2.037037      3.699342      3.699342      7.398684
     -2.027027      3.798280      3.798280      7.596559
     -2.017017      4.640986      4.640986      9.281972
     -2.007007      6.077041      6.077041     12.154081
     -1.996997      7.839908      7.839908     15.679815
     -1.986987      9.581099      9.581099     19.162198
     -1.976977     10.946500     10.946500     21.893000
     -1.966967     11.683326     11.683326     23.366652
     -1.956957     11.737556     11.737556     23.475112
     -1.946947     11.292257     11.292257     22.584514
     -1.936937     10.717919     10.717919     21.435838
     -1.926927     10.446789     10.446789     20.893578
     -1.916917     10.820133     10.820133     21.640267
     -1.906907     11.969436     11.969436     23.938873
     -1.896897     13.775194     13.775194     27.550388
     -1.886887     15.912103     15.912103     31.824205
     -1.876877     17.956074     17.956074     35.912148
     -1.866867     19.511146     19.511146     39.022292
     -1.856857     20.316291     20.316291     40.632582
     -1.846847     20.305832     20.305832     40.611664
     -1.836837     19.612044     19.612044     39.224088
     -1.826827     18.509955     18.509955     37.019910
     -1.816817     17.316480     17.316480     34.632960
     -1.806807     16.272974     16.272974     32.545948
     -1.796797     15.455742     15.455742     30.911484
     -1.786787     14.757310     14.757310     29.514620
     -1.776777     13.952684     13.952684     27.905368
     -1.766767     12.820726     12.820726     25.641453
     -1.756757     11.259298     11.259298     22.518596
     -1.746747      9.337401      9.337401     18.674803
     -1.736737      7.266099      7.266099     14.532198
     -1.726727      5.315814      5.315814     10.631628
     -1.716717      3.730628      3.730628      7.461257
     -1.706707      2.679282      2.679282      5.358564
     -1.696697      2.250648      2.250648      4.501296
     -1.686687      2.472430      2.472430      4.944860
     -1.676677      3.323019      3.323019      6.646037
     -1.666667      4.720026      4.720026      9.440053
     -1.656657      6.494019      6.494019     12.988038
     -1.646647      8.375937      8.375937     16.751874
     -1.636637     10.027943     10.027943     20.055887
     -1.626627     11.126630     11.126630     22.253259
