# EIG2DOS: Utility for SIESTA to obtain the electronic density of states
#  E. Artacho, Apr 1999, A. Garcia, Apr 2012
#  Nick R. Papior, Feb 2017
# ------------------------------------------
# Eigenvalues calculated from a non-polarized calculation
# Eigenvalues read from siesta.EIG
# Kpoint weights read from siesta.KP
# Using smearing parameter:   0.0500
# Using 1000 points in the energy range
# Selected bands: 1 to: 2981
# Emin, Emax in file for selected band(s):    -27.0409882    218.3288560
# Nbands, Nspin, Nk   =   2981     1     1
# E_F                 =    -4.2774 eV --> (shifted to ZERO)
# Broadening          =     0.0500 eV
#
#        E            N(up)  (=)   N(down)         Ntot
     -5.000000     41.338368     41.338368     82.676735
     -4.989990     43.125092     43.125092     86.250183
     -4.979980     44.483236     44.483236     88.966473
     -4.969970     45.153035     45.153035     90.306069
     -4.959960     44.870083     44.870083     89.740167
     -4.949950     43.494710     43.494710     86.989420
     -4.939940     41.102058     41.102058     82.204115
     -4.929930     38.006527     38.006527     76.013054
     -4.919920     34.729804     34.729804     69.459608
     -4.909910     31.934611     31.934611     63.869221
     -4.899900     30.332711     30.332711     60.665421
     -4.889890     30.555557     30.555557     61.111114
     -4.879880     32.978961     32.978961     65.957922
     -4.869870     37.532234     37.532234     75.064468
     -4.859860     43.575062     43.575062     87.150125
     -4.849850     49.943565     49.943565     99.887130
     -4.839840     55.213913     55.213913    110.427826
     -4.829830     58.120970     58.120970    116.241939
     -4.819820     57.966520     57.966520    115.933040
     -4.809810     54.831984     54.831984    109.663968
     -4.799800     49.499230     49.499230     98.998461
     -4.789790     43.129929     43.129929     86.259858
     -4.779780     36.866232     36.866232     73.732465
     -4.769770     31.527317     31.527317     63.054634
     -4.759760     27.494031     27.494031     54.988062
     -4.749750     24.764379     24.764379     49.528757
     -4.739740     23.095294     23.095294     46.190589
     -4.729730     22.144695     22.144695     44.289390
     -4.719720     21.567517     21.567517     43.135034
     -4.709710     21.061950     21.061950     42.123900
     -4.699700     20.386173     20.386173     40.772346
     -4.689690     19.371073     19.371073     38.742146
     -4.679680     17.946577     17.946577     35.893154
     -4.669670     16.182962     16.182962     32.365924
     -4.659660     14.329830     14.329830     28.659659
     -4.649650     12.824319     12.824319     25.648638
     -4.639640     12.243652     12.243652     24.487304
     -4.629630     13.193188     13.193188     26.386377
     -4.619620     16.142302     16.142302     32.284604
     -4.609610     21.242054     21.242054     42.484108
     -4.599600     28.179759     28.179759     56.359518
     -4.589590     36.138835     36.138835     72.277670
     -4.579580     43.920362     43.920362     87.840725
     -4.569570     50.231495     50.231495    100.462989
     -4.559560     54.066411     54.066411    108.132822
     -4.549550     55.039371     55.039371    110.078743
     -4.539540     53.524089     53.524089    107.048178
     -4.529530     50.525698     50.525698    101.051397
     -4.519520     47.328904     47.328904     94.657807
     -4.509510     45.065772     45.065772     90.131543
     -4.499499     44.375759     44.375759     88.751517
     -4.489489     45.276973     45.276973     90.553946
     -4.479479     47.264669     47.264669     94.529339
     -4.469469     49.556629     49.556629     99.113257
     -4.459459     51.361911     51.361911    102.723823
     -4.449449     52.072810     52.072810    104.145621
     -4.439439     51.345743     51.345743    102.691487
     -4.429429     49.101015     49.101015     98.202031
     -4.419419     45.496444     45.496444     90.992887
     -4.409409     40.907746     40.907746     81.815492
     -4.399399     35.904257     35.904257     71.808515
     -4.389389     31.181490     31.181490     62.362980
     -4.379379     27.427150     27.427150     54.854301
     -4.369369     25.145463     25.145463     50.290925
     -4.359359     24.509490     24.509490     49.018979
     -4.349349     25.316236     25.316236     50.632473
     -4.339339     27.076335     27.076335     54.152669
     -4.329329     29.204419     29.204419     58.408837
     -4.319319     31.228073     31.228073     62.456146
     -4.309309     32.929309     32.929309     65.858619
     -4.299299     34.370019     34.370019     68.740037
     -4.289289     35.805197     35.805197     71.610394
     -4.279279     37.526455     37.526455     75.052910
     -4.269269     39.692654     39.692654     79.385307
     -4.259259     42.202585     42.202585     84.405170
     -4.249249     44.657016     44.657016     89.314031
     -4.239239     46.441232     46.441232     92.882463
     -4.229229     46.922523     46.922523     93.845047
     -4.219219     45.700841     45.700841     91.401682
     -4.209209     42.804153     42.804153     85.608307
     -4.199199     38.724092     38.724092     77.448184
     -4.189189     34.257717     34.257717     68.515433
     -4.179179     30.223360     30.223360     60.446720
     -4.169169     27.187589     27.187589     54.375179
     -4.159159     25.330334     25.330334     50.660669
     -4.149149     24.494869     24.494869     48.989739
     -4.139139     24.372108     24.372108     48.744215
     -4.129129     24.709866     24.709866     49.419732
     -4.119119     25.439490     25.439490     50.878979
     -4.109109     26.661695     26.661695     53.323390
     -4.099099     28.503652     28.503652     57.007305
     -4.089089     30.924286     30.924286     61.848573
     -4.079079     33.579872     33.579872     67.159743
     -4.069069     35.844946     35.844946     71.689891
     -4.059059     37.009417     37.009417     74.018835
     -4.049049     36.572183     36.572183     73.144367
     -4.039039     34.484267     34.484267     68.968534
     -4.029029     31.210320     31.210320     62.420640
     -4.019019     27.574128     27.574128     55.148255
     -4.009009     24.471703     24.471703     48.943406
     -3.998999     22.598543     22.598543     45.197085
     -3.988989     22.309259     22.309259     44.618518
     -3.978979     23.635531     23.635531     47.271062
     -3.968969     26.399477     26.399477     52.798955
     -3.958959     30.329936     30.329936     60.659872
     -3.948949     35.125762     35.125762     70.251523
     -3.938939     40.472556     40.472556     80.945113
     -3.928929     46.055065     46.055065     92.110129
     -3.918919     51.593379     51.593379    103.186758
     -3.908909     56.887403     56.887403    113.774806
     -3.898899     61.823872     61.823872    123.647745
     -3.888889     66.313343     66.313343    132.626687
     -3.878879     70.174413     70.174413    140.348825
     -3.868869     73.033272     73.033272    146.066543
     -3.858859     74.320077     74.320077    148.640154
     -3.848849     73.404197     73.404197    146.808394
     -3.838839     69.835740     69.835740    139.671481
     -3.828829     63.592348     63.592348    127.184695
     -3.818819     55.210100     55.210100    110.420201
     -3.808809     45.721972     45.721972     91.443943
     -3.798799     36.414371     36.414371     72.828741
     -3.788789     28.493563     28.493563     56.987125
     -3.778779     22.786057     22.786057     45.572113
     -3.768769     19.570195     19.570195     39.140390
     -3.758759     18.574653     18.574653     37.149306
     -3.748749     19.120069     19.120069     38.240137
     -3.738739     20.345948     20.345948     40.691896
     -3.728729     21.457623     21.457623     42.915245
     -3.718719     21.935813     21.935813     43.871625
     -3.708709     21.664034     21.664034     43.328068
     -3.698699     20.944094     20.944094     41.888188
     -3.688689     20.390328     20.390328     40.780657
     -3.678679     20.721616     20.721616     41.443231
     -3.668669     22.503607     22.503607     45.007214
     -3.658659     25.921120     25.921120     51.842240
     -3.648649     30.665429     30.665429     61.330857
     -3.638639     35.989795     35.989795     71.979591
     -3.628629     40.922379     40.922379     81.844758
     -3.618619     44.555893     44.555893     89.111787
     -3.608609     46.298164     46.298164     92.596329
     -3.598599     45.991706     45.991706     91.983413
     -3.588589     43.880106     43.880106     87.760213
     -3.578579     40.468842     40.468842     80.937683
     -3.568569     36.356112     36.356112     72.712224
     -3.558559     32.089952     32.089952     64.179905
     -3.548549     28.071817     28.071817     56.143633
     -3.538539     24.507169     24.507169     49.014338
     -3.528529     21.405555     21.405555     42.811110
     -3.518519     18.635168     18.635168     37.270337
     -3.508509     16.022082     16.022082     32.044164
     -3.498498     13.458870     13.458870     26.917741
     -3.488488     10.975534     10.975534     21.951067
     -3.478478      8.742142      8.742142     17.484283
     -3.468468      7.007173      7.007173     14.014345
     -3.458458      6.003511      6.003511     12.007023
     -3.448448      5.859964      5.859964     11.719929
     -3.438438      6.544932      6.544932     13.089865
     -3.428428      7.855653      7.855653     15.711306
     -3.418418      9.458777      9.458777     18.917555
     -3.408408     10.980084     10.980084     21.960167
     -3.398398     12.124752     12.124752     24.249503
     -3.388388     12.788723     12.788723     25.577445
     -3.378378     13.112957     13.112957     26.225913
     -3.368368     13.449949     13.449949     26.899898
     -3.358358     14.250829     14.250829     28.501659
     -3.348348     15.917650     15.917650     31.835299
     -3.338338     18.674679     18.674679     37.349358
     -3.328328     22.491226     22.491226     44.982452
     -3.318318     27.058405     27.058405     54.116810
     -3.308308     31.810347     31.810347     63.620694
     -3.298298     35.992423     35.992423     71.984846
     -3.288288     38.791970     38.791970     77.583941
     -3.278278     39.531157     39.531157     79.062314
     -3.268268     37.875222     37.875222     75.750444
     -3.258258     33.968373     33.968373     67.936745
     -3.248248     28.418620     28.418620     56.837241
     -3.238238     22.120319     22.120319     44.240637
     -3.228228     15.987708     15.987708     31.975415
     -3.218218     10.715804     10.715804     21.431608
     -3.208208      6.659579      6.659579     13.319159
     -3.198198      3.852421      3.852421      7.704842
     -3.188188      2.120030      2.120030      4.240060
     -3.178178      1.221080      1.221080      2.442159
     -3.168168      0.961095      0.961095      1.922191
     -3.158158      1.257087      1.257087      2.514173
     -3.148148      2.153581      2.153581      4.307163
     -3.138138      3.797686      3.797686      7.595371
     -3.128128      6.378928      6.378928     12.757856
     -3.118118     10.041027     10.041027     20.082054
     -3.108108     14.783497     14.783497     29.566994
     -3.098098     20.385885     20.385885     40.771770
     -3.088088     26.392805     26.392805     52.785611
     -3.078078     32.181834     32.181834     64.363668
     -3.068068     37.100234     37.100234     74.200467
     -3.058058     40.619270     40.619270     81.238539
     -3.048048     42.442477     42.442477     84.884954
     -3.038038     42.529690     42.529690     85.059380
     -3.028028     41.047913     41.047913     82.095827
     -3.018018     38.298835     38.298835     76.597669
     -3.008008     34.672490     34.672490     69.344979
     -2.997998     30.638949     30.638949     61.277897
     -2.987988     26.746970     26.746970     53.493939
     -2.977978     23.586040     23.586040     47.172080
     -2.967968     21.695437     21.695437     43.390875
     -2.957958     21.447054     21.447054     42.894108
     -2.947948     22.952588     22.952588     45.905175
     -2.937938     26.033639     26.033639     52.067279
     -2.927928     30.258696     30.258696     60.517392
     -2.917918     35.023075     35.023075     70.046150
     -2.907908     39.645116     39.645116     79.290231
     -2.897898     43.467614     43.467614     86.935228
     -2.887888     45.964741     45.964741     91.929483
     -2.877878     46.845656     46.845656     93.691311
     -2.867868     46.123978     46.123978     92.247957
     -2.857858     44.111960     44.111960     88.223921
     -2.847848     41.318662     41.318662     82.637323
     -2.837838     38.277624     38.277624     76.555248
     -2.827828     35.372976     35.372976     70.745951
     -2.817818     32.742651     32.742651     65.485302
     -2.807808     30.302524     30.302524     60.605047
     -2.797798     27.873207     27.873207     55.746414
     -2.787788     25.337486     25.337486     50.674973
     -2.777778     22.742052     22.742052     45.484103
     -2.767768     20.291252     20.291252     40.582505
     -2.757758     18.243900     18.243900     36.487801
     -2.747748     16.780317     16.780317     33.560635
     -2.737738     15.922736     15.922736     31.845471
     -2.727728     15.557318     15.557318     31.114635
     -2.717718     15.540501     15.540501     31.081001
     -2.707708     15.816478     15.816478     31.632955
     -2.697698     16.463135     16.463135     32.926270
     -2.687688     17.629435     17.629435     35.258869
     -2.677678     19.400614     19.400614     38.801228
     -2.667668     21.680680     21.680680     43.361359
     -2.657658     24.176830     24.176830     48.353660
     -2.647648     26.507232     26.507232     53.014464
     -2.637638     28.372052     28.372052     56.744104
     -2.627628     29.683503     29.683503     59.367006
     -2.617618     30.576357     30.576357     61.152713
     -2.607608     31.298976     31.298976     62.597953
     -2.597598     32.060154     32.060154     64.120307
     -2.587588     32.924881     32.924881     65.849761
     -2.577578     33.804101     33.804101     67.608202
     -2.567568     34.513080     34.513080     69.026160
     -2.557558     34.838323     34.838323     69.676645
     -2.547548     34.576093     34.576093     69.152186
     -2.537538     33.555408     33.555408     67.110815
     -2.527528     31.682322     31.682322     63.364645
     -2.517518     29.016433     29.016433     58.032866
     -2.507508     25.840655     25.840655     51.681309
     -2.497497     22.660812     22.660812     45.321623
     -2.487487     20.099190     20.099190     40.198380
     -2.477477     18.708344     18.708344     37.416688
     -2.467467     18.784223     18.784223     37.568445
     -2.457457     20.266690     20.266690     40.533380
     -2.447447     22.776889     22.776889     45.553778
     -2.437437     25.777098     25.777098     51.554195
     -2.427427     28.781403     28.781403     57.562807
     -2.417417     31.520852     31.520852     63.041705
     -2.407407     33.986619     33.986619     67.973238
     -2.397397     36.331925     36.331925     72.663849
     -2.387387     38.682559     38.682559     77.365118
     -2.377377     40.953855     40.953855     81.907710
     -2.367367     42.774070     42.774070     85.548139
     -2.357357     43.566749     43.566749     87.133498
     -2.347347     42.768039     42.768039     85.536079
     -2.337337     40.085463     40.085463     80.170925
     -2.327327     35.678648     35.678648     71.357295
     -2.317317     30.176439     30.176439     60.352877
     -2.307307     24.522070     24.522070     49.044139
     -2.297297     19.715712     19.715712     39.431423
     -2.287287     16.559443     16.559443     33.118886
     -2.277277     15.490510     15.490510     30.981020
     -2.267267     16.536391     16.536391     33.072782
     -2.257257     19.374874     19.374874     38.749748
     -2.247247     23.455973     23.455973     46.911945
     -2.237237     28.139342     28.139342     56.278684
     -2.227227     32.809730     32.809730     65.619460
     -2.217217     36.946980     36.946980     73.893961
     -2.207207     40.146381     40.146381     80.292762
     -2.197197     42.107908     42.107908     84.215816
     -2.187187     42.628449     42.628449     85.256898
     -2.177177     41.625177     41.625177     83.250354
     -2.167167     39.187816     39.187816     78.375632
     -2.157157     35.620272     35.620272     71.240543
     -2.147147     31.418062     31.418062     62.836123
     -2.137137     27.156083     27.156083     54.312167
     -2.127127     23.318965     23.318965     46.637931
     -2.117117     20.153538     20.153538     40.307077
     -2.107107     17.621931     17.621931     35.243862
     -2.097097     15.480189     15.480189     30.960377
     -2.087087     13.436196     13.436196     26.872391
     -2.077077     11.300138     11.300138     22.600276
     -2.067067      9.055163      9.055163     18.110326
     -2.057057      6.830161      6.830161     13.660321
     -2.047047      4.811106      4.811106      9.622212
     -2.037037      3.149475      3.149475      6.298950
     -2.027027      1.910934      1.910934      3.821868
     -2.017017      1.074170      1.074170      2.148340
     -2.007007      0.562955      0.562955      1.125910
     -1.996997      0.286586      0.286586      0.573171
     -1.986987      0.171516      0.171516      0.343032
     -1.976977      0.179388      0.179388      0.358777
     -1.966967      0.314700      0.314700      0.629400
     -1.956957      0.626212      0.626212      1.252424
     -1.946947      1.202195      1.202195      2.404389
     -1.936937      2.155278      2.155278      4.310556
     -1.926927      3.592495      3.592495      7.184989
     -1.916917      5.572070      5.572070     11.144140
     -1.906907      8.058586      8.058586     16.117173
     -1.896897     10.895846     10.895846     21.791692
     -1.886887     13.815130     13.815130     27.630260
     -1.876877     16.483824     16.483824     32.967647
     -1.866867     18.582044     18.582044     37.164088
     -1.856857     19.883080     19.883080     39.766160
     -1.846847     20.312478     20.312478     40.624956
     -1.836837     19.967499     19.967499     39.934998
     -1.826827     19.087903     19.087903     38.175807
     -1.816817     17.980091     17.980091     35.960183
     -1.806807     16.912886     16.912886     33.825773
     -1.796797     16.022053     16.022053     32.044107
     -1.786787     15.268450     15.268450     30.536900
     -1.776777     14.477404     14.477404     28.954809
     -1.766767     13.446946     13.446946     26.893892
     -1.756757     12.073217     12.073217     24.146433
     -1.746747     10.430373     10.430373     20.860745
     -1.736737      8.767867      8.767867     17.535733
     -1.726727      7.431926      7.431926     14.863851
     -1.716717      6.751442      6.751442     13.502884
     -1.706707      6.935068      6.935068     13.870136
     -1.696697      8.011285      8.011285     16.022570
     -1.686687      9.822342      9.822342     19.644685
     -1.676677     12.066602     12.066602     24.133204
     -1.666667     14.372379     14.372379     28.744758
     -1.656657     16.378612     16.378612     32.757224
     -1.646647     17.797378     17.797378     35.594756
     -1.636637     18.445094     18.445094     36.890188
     -1.626627     18.248625     18.248625     36.497251
