# EIG2DOS: Utility for SIESTA to obtain the electronic density of states
#  E. Artacho, Apr 1999, A. Garcia, Apr 2012
#  Nick R. Papior, Feb 2017
# ------------------------------------------
# Eigenvalues calculated from a non-polarized calculation
# Eigenvalues read from siesta.EIG
# Kpoint weights read from siesta.KP
# Using smearing parameter:   0.0500
# Using 1000 points in the energy range
# Selected bands: 1 to: 2981
# Emin, Emax in file for selected band(s):    -27.2058914    218.3544580
# Nbands, Nspin, Nk   =   2981     1     1
# E_F                 =    -4.2491 eV --> (shifted to ZERO)
# Broadening          =     0.0500 eV
#
#        E            N(up)  (=)   N(down)         Ntot
     -5.000000     32.382703     32.382703     64.765406
     -4.989990     36.496290     36.496290     72.992581
     -4.979980     40.361480     40.361480     80.722961
     -4.969970     43.339353     43.339353     86.678705
     -4.959960     44.885523     44.885523     89.771045
     -4.949950     44.712774     44.712774     89.425547
     -4.939940     42.887497     42.887497     85.774994
     -4.929930     39.829645     39.829645     79.659289
     -4.919920     36.230871     36.230871     72.461742
     -4.909910     32.929941     32.929941     65.859883
     -4.899900     30.775158     30.775158     61.550316
     -4.889890     30.476944     30.476944     60.953888
     -4.879880     32.443447     32.443447     64.886894
     -4.869870     36.618102     36.618102     73.236204
     -4.859860     42.383737     42.383737     84.767474
     -4.849850     48.617686     48.617686     97.235373
     -4.839840     53.940130     53.940130    107.880260
     -4.829830     57.102627     57.102627    114.205255
     -4.819820     57.372231     57.372231    114.744461
     -4.809810     54.744832     54.744832    109.489664
     -4.799800     49.894357     49.894357     99.788714
     -4.789790     43.892494     43.892494     87.784988
     -4.779780     37.838576     37.838576     75.677153
     -4.769770     32.559985     32.559985     65.119971
     -4.759760     28.478488     28.478488     56.956976
     -4.749750     25.640322     25.640322     51.280643
     -4.739740     23.839879     23.839879     47.679758
     -4.729730     22.756103     22.756103     45.512206
     -4.719720     22.051788     22.051788     44.103575
     -4.709710     21.426040     21.426040     42.852081
     -4.699700     20.636842     20.636842     41.273685
     -4.689690     19.518720     19.518720     39.037440
     -4.679680     18.013435     18.013435     36.026870
     -4.669670     16.214475     16.214475     32.428950
     -4.659660     14.407121     14.407121     28.814242
     -4.649650     13.075392     13.075392     26.150784
     -4.639640     12.851098     12.851098     25.702196
     -4.629630     14.395551     14.395551     28.791102
     -4.619620     18.224290     18.224290     36.448580
     -4.609610     24.507144     24.507144     49.014288
     -4.599600     32.900464     32.900464     65.800928
     -4.589590     42.487462     42.487462     84.974925
     -4.579580     51.895377     51.895377    103.790755
     -4.569570     59.605875     59.605875    119.211749
     -4.559560     64.386075     64.386075    128.772150
     -4.549550     65.685742     65.685742    131.371484
     -4.539540     63.827801     63.827801    127.655602
     -4.529530     59.891429     59.891429    119.782858
     -4.519520     55.321136     55.321136    110.642273
     -4.509510     51.421087     51.421087    102.842174
     -4.499499     48.942629     48.942629     97.885258
     -4.489489     47.920572     47.920572     95.841144
     -4.479479     47.792825     47.792825     95.585650
     -4.469469     47.714721     47.714721     95.429442
     -4.459459     46.913164     46.913164     93.826327
     -4.449449     44.939033     44.939033     89.878065
     -4.439439     41.749234     41.749234     83.498467
     -4.429429     37.637124     37.637124     75.274248
     -4.419419     33.087543     33.087543     66.175086
     -4.409409     28.637932     28.637932     57.275865
     -4.399399     24.788469     24.788469     49.576937
     -4.389389     21.953930     21.953930     43.907859
     -4.379379     20.423909     20.423909     40.847817
     -4.369369     20.311071     20.311071     40.622142
     -4.359359     21.503552     21.503552     43.007104
     -4.349349     23.663138     23.663138     47.326275
     -4.339339     26.300799     26.300799     52.601599
     -4.329329     28.919939     28.919939     57.839877
     -4.319319     31.174519     31.174519     62.349038
     -4.309309     32.974099     32.974099     65.948199
     -4.299299     34.488980     34.488980     68.977959
     -4.289289     36.050557     36.050557     72.101113
     -4.279279     37.981414     37.981414     75.962829
     -4.269269     40.413679     40.413679     80.827358
     -4.259259     43.162315     43.162315     86.324630
     -4.249249     45.712628     45.712628     91.425255
     -4.239239     47.351687     47.351687     94.703375
     -4.229229     47.417737     47.417737     94.835474
     -4.219219     45.576588     45.576588     91.153176
     -4.209209     41.998616     41.998616     83.997233
     -4.199199     37.339751     37.339751     74.679502
     -4.189189     32.521796     32.521796     65.043592
     -4.179179     28.411405     28.411405     56.822810
     -4.169169     25.548197     25.548197     51.096393
     -4.159159     24.039433     24.039433     48.078866
     -4.149149     23.645994     23.645994     47.291987
     -4.139139     23.990433     23.990433     47.980867
     -4.129129     24.771679     24.771679     49.543359
     -4.119119     25.884464     25.884464     51.768928
     -4.109109     27.396110     27.396110     54.792219
     -4.099099     29.401386     29.401386     58.802772
     -4.089089     31.834737     31.834737     63.669474
     -4.079079     34.347520     34.347520     68.695041
     -4.069069     36.337162     36.337162     72.674323
     -4.059059     37.142620     37.142620     74.285240
     -4.049049     36.326117     36.326117     72.652235
     -4.039039     33.900352     33.900352     67.800703
     -4.029029     30.378425     30.378425     60.756849
     -4.019019     26.616341     26.616341     53.232682
     -4.009009     23.528670     23.528670     47.057339
     -3.998999     21.816947     21.816947     43.633893
     -3.988989     21.824886     21.824886     43.649773
     -3.978979     23.549575     23.549575     47.099149
     -3.968969     26.754024     26.754024     53.508049
     -3.958959     31.094615     31.094615     62.189229
     -3.948949     36.205284     36.205284     72.410568
     -3.938939     41.734921     41.734921     83.469841
     -3.928929     47.368928     47.368928     94.737856
     -3.918919     52.857886     52.857886    105.715771
     -3.908909     58.041685     58.041685    116.083370
     -3.898899     62.834281     62.834281    125.668562
     -3.888889     67.148485     67.148485    134.296969
     -3.878879     70.784997     70.784997    141.569994
     -3.868869     73.351464     73.351464    146.702927
     -3.858859     74.281804     74.281804    148.563608
     -3.848849     72.983535     72.983535    145.967069
     -3.838839     69.071826     69.071826    138.143653
     -3.828829     62.592315     62.592315    125.184630
     -3.818819     54.124640     54.124640    108.249281
     -3.808809     44.704828     44.704828     89.409657
     -3.798799     35.584033     35.584033     71.168067
     -3.788789     27.911507     27.911507     55.823014
     -3.778779     22.455448     22.455448     44.910896
     -3.768769     19.449555     19.449555     38.899110
     -3.758759     18.597440     18.597440     37.194879
     -3.748749     19.213135     19.213135     38.426270
     -3.738739     20.443854     20.443854     40.887708
     -3.728729     21.512564     21.512564     43.025128
     -3.718719     21.923581     21.923581     43.847161
     -3.708709     21.585918     21.585918     43.171837
     -3.698699     20.824362     20.824362     41.648725
     -3.688689     20.269392     20.269392     40.538784
     -3.678679     20.645934     20.645934     41.291868
     -3.668669     22.514218     22.514218     45.028436
     -3.658659     26.043052     26.043052     52.086105
     -3.648649     30.900186     30.900186     61.800372
     -3.638639     36.312695     36.312695     72.625389
     -3.628629     41.285748     41.285748     82.571496
     -3.618619     44.897966     44.897966     89.795932
     -3.608609     46.556044     46.556044     93.112089
     -3.598599     46.115435     46.115435     92.230871
     -3.588589     43.844154     43.844154     87.688308
     -3.578579     40.277665     40.277665     80.555329
     -3.568569     36.041951     36.041951     72.083902
     -3.558559     31.703470     31.703470     63.406941
     -3.548549     27.668657     27.668657     55.337315
     -3.538539     24.134928     24.134928     48.269857
     -3.528529     21.095170     21.095170     42.190341
     -3.518519     18.398594     18.398594     36.797189
     -3.508509     15.855453     15.855453     31.710905
     -3.498498     13.348552     13.348552     26.697104
     -3.488488     10.904235     10.904235     21.808471
     -3.478478      8.693305      8.693305     17.386609
     -3.468468      6.967323      6.967323     13.934645
     -3.458458      5.963272      5.963272     11.926545
     -3.448448      5.814634      5.814634     11.629268
     -3.438438      6.495042      6.495042     12.990084
     -3.428428      7.807269      7.807269     15.614537
     -3.418418      9.422923      9.422923     18.845847
     -3.408408     10.970829     10.970829     21.941658
     -3.398398     12.156067     12.156067     24.312134
     -3.388388     12.870795     12.870795     25.741590
     -3.378378     13.248890     13.248890     26.497779
     -3.368368     13.633729     13.633729     27.267458
     -3.358358     14.467286     14.467286     28.934573
     -3.348348     16.144973     16.144973     32.289947
     -3.338338     18.889546     18.889546     37.779093
     -3.328328     22.675717     22.675717     45.351434
     -3.318318     27.207217     27.207217     54.414434
     -3.308308     31.937532     31.937532     63.875064
     -3.298298     36.139223     36.139223     72.278445
     -3.288288     39.039485     39.039485     78.078970
     -3.278278     40.020372     40.020372     80.040744
     -3.268268     38.830226     38.830226     77.660453
     -3.258258     35.708582     35.708582     71.417165
     -3.248248     31.338981     31.338981     62.677961
     -3.238238     26.622852     26.622852     53.245705
     -3.228228     22.367115     22.367115     44.734230
     -3.218218     19.030462     19.030462     38.060925
     -3.208208     16.642103     16.642103     33.284205
     -3.198198     14.913563     14.913563     29.827126
     -3.188188     13.468948     13.468948     26.937897
     -3.178178     12.075058     12.075058     24.150116
     -3.168168     10.774373     10.774373     21.548747
     -3.158158      9.885004      9.885004     19.770008
     -3.148148      9.890531      9.890531     19.781062
     -3.138138     11.271529     11.271529     22.543058
     -3.128128     14.329790     14.329790     28.659580
     -3.118118     19.045564     19.045564     38.091128
     -3.108108     25.003413     25.003413     50.006825
     -3.098098     31.420274     31.420274     62.840547
     -3.088088     37.292922     37.292922     74.585844
     -3.078078     41.641535     41.641535     83.283069
     -3.068068     43.775631     43.775631     87.551261
     -3.058058     43.480739     43.480739     86.961477
     -3.048048     41.045576     41.045576     82.091151
     -3.038038     37.117936     37.117936     74.235873
     -3.028028     32.458249     32.458249     64.916498
     -3.018018     27.706200     27.706200     55.412400
     -3.008008     23.260074     23.260074     46.520147
     -2.997998     19.300746     19.300746     38.601493
     -2.987988     15.914778     15.914778     31.829556
     -2.977978     13.228843     13.228843     26.457687
     -2.967968     11.478778     11.478778     22.957556
     -2.957958     10.983388     10.983388     21.966776
     -2.947948     12.041857     12.041857     24.083714
     -2.937938     14.800696     14.800696     29.601393
     -2.927928     19.140440     19.140440     38.280881
     -2.917918     24.624392     24.624392     49.248784
     -2.907908     30.537797     30.537797     61.075594
     -2.897898     36.022923     36.022923     72.045846
     -2.887888     40.281721     40.281721     80.563442
     -2.877878     42.783045     42.783045     85.566091
     -2.867868     43.396127     43.396127     86.792253
     -2.857858     42.392107     42.392107     84.784213
     -2.847848     40.308238     40.308238     80.616477
     -2.837838     37.730991     37.730991     75.461982
     -2.827828     35.092482     35.092482     70.184963
     -2.817818     32.567341     32.567341     65.134682
     -2.807808     30.106226     30.106226     60.212453
     -2.797798     27.573427     27.573427     55.146854
     -2.787788     24.905605     24.905605     49.811210
     -2.777778     22.203533     22.203533     44.407067
     -2.767768     19.711198     19.711198     39.422397
     -2.757758     17.702962     17.702962     35.405924
     -2.747748     16.352112     16.352112     32.704224
     -2.737738     15.662564     15.662564     31.325129
     -2.727728     15.504143     15.504143     31.008287
     -2.717718     15.724900     15.724900     31.449800
     -2.707708     16.262807     16.262807     32.525614
     -2.697698     17.178000     17.178000     34.356000
     -2.687688     18.579237     18.579237     37.158474
     -2.677678     20.492132     20.492132     40.984264
     -2.667668     22.762261     22.762261     45.524521
     -2.657658     25.069328     25.069328     50.138656
     -2.647648     27.056665     27.056665     54.113329
     -2.637638     28.500754     28.500754     57.001508
     -2.627628     29.414517     29.414517     58.829035
     -2.617618     30.019657     30.019657     60.039314
     -2.607608     30.608801     30.608801     61.217602
     -2.597598     31.385912     31.385912     62.771824
     -2.587588     32.375699     32.375699     64.751399
     -2.577578     33.433778     33.433778     66.867557
     -2.567568     34.320203     34.320203     68.640406
     -2.557558     34.774089     34.774089     69.548178
     -2.547548     34.557792     34.557792     69.115585
     -2.537538     33.487733     33.487733     66.975466
     -2.527528     31.485752     31.485752     62.971503
     -2.517518     28.654632     28.654632     57.309263
     -2.507508     25.335039     25.335039     50.670077
     -2.497497     22.084946     22.084946     44.169893
     -2.487487     19.555768     19.555768     39.111536
     -2.477477     18.299708     18.299708     36.599417
     -2.467467     18.588498     18.588498     37.176995
     -2.457457     20.326198     20.326198     40.652396
     -2.447447     23.098442     23.098442     46.196884
     -2.437437     26.339219     26.339219     52.678437
     -2.427427     29.542645     29.542645     59.085290
     -2.417417     32.424997     32.424997     64.849993
     -2.407407     34.963295     34.963295     69.926590
     -2.397397     37.294428     37.294428     74.588857
     -2.387387     39.527612     39.527612     79.055223
     -2.377377     41.569096     41.569096     83.138193
     -2.367367     43.056588     43.056588     86.113176
     -2.357357     43.449929     43.449929     86.899858
     -2.347347     42.247336     42.247336     84.494672
     -2.337337     39.230781     39.230781     78.461562
     -2.327327     34.624926     34.624926     69.249852
     -2.317317     29.093502     29.093502     58.187004
     -2.307307     23.574501     23.574501     47.149001
     -2.297297     19.027545     19.027545     38.055090
     -2.287287     16.194924     16.194924     32.389848
     -2.277277     15.453932     15.453932     30.907863
     -2.267267     16.786268     16.786268     33.572536
     -2.257257     19.843845     19.843845     39.687690
     -2.247247     24.068120     24.068120     48.136241
     -2.237237     28.819794     28.819794     57.639589
     -2.227227     33.485998     33.485998     66.971997
     -2.217217     37.546086     37.546086     75.092173
     -2.207207     40.594438     40.594438     81.188877
     -2.197197     42.337533     42.337533     84.675065
     -2.187187     42.594152     42.594152     85.188304
     -2.177177     41.320518     41.320518     82.641037
     -2.167167     38.654685     38.654685     77.309369
     -2.157157     34.942812     34.942812     69.885624
     -2.147147     30.700780     30.700780     61.401561
     -2.137137     26.493816     26.493816     52.987633
     -2.127127     22.771062     22.771062     45.542123
     -2.117117     19.732995     19.732995     39.465991
     -2.107107     17.302995     17.302995     34.605990
     -2.097097     15.219031     15.219031     30.438062
     -2.087087     13.193726     13.193726     26.387452
     -2.077077     11.056651     11.056651     22.113302
     -2.067067      8.812368      8.812368     17.624735
     -2.057057      6.603166      6.603166     13.206332
     -2.047047      4.617017      4.617017      9.234033
     -2.037037      2.998848      2.998848      5.997695
     -2.027027      1.804885      1.804885      3.609770
     -2.017017      1.006268      1.006268      2.012535
     -2.007007      0.523168      0.523168      1.046336
     -1.996997      0.264784      0.264784      0.529567
     -1.986987      0.159327      0.159327      0.318653
     -1.976977      0.170455      0.170455      0.340910
     -1.966967      0.304062      0.304062      0.608123
     -1.956957      0.609670      0.609670      1.219340
     -1.946947      1.176410      1.176410      2.352821
     -1.936937      2.119172      2.119172      4.238345
     -1.926927      3.550247      3.550247      7.100493
     -1.916917      5.537743      5.537743     11.075485
     -1.906907      8.062337      8.062337     16.124673
     -1.896897     10.992126     10.992126     21.984252
     -1.886887     14.093961     14.093961     28.187923
     -1.876877     17.085890     17.085890     34.171780
     -1.866867     19.715137     19.715137     39.430273
     -1.856857     21.830838     21.830838     43.661676
     -1.846847     23.419567     23.419567     46.839135
     -1.836837     24.585303     24.585303     49.170606
     -1.826827     25.477793     25.477793     50.955586
     -1.816817     26.196185     26.196185     52.392370
     -1.806807     26.710176     26.710176     53.420353
     -1.796797     26.840403     26.840403     53.680806
     -1.786787     26.317631     26.317631     52.635262
     -1.776777     24.901986     24.901986     49.803972
     -1.766767     22.508384     22.508384     45.016769
     -1.756757     19.275953     19.275953     38.551905
     -1.746747     15.546463     15.546463     31.092926
     -1.736737     11.764426     11.764426     23.528852
     -1.726727      8.350042      8.350042     16.700083
     -1.716717      5.603228      5.603228     11.206456
     -1.706707      3.672079      3.672079      7.344157
     -1.696697      2.581106      2.581106      5.162211
     -1.686687      2.286271      2.286271      4.572541
     -1.676677      2.717773      2.717773      5.435546
     -1.666667      3.786691      3.786691      7.573381
     -1.656657      5.357732      5.357732     10.715463
     -1.646647      7.214360      7.214360     14.428720
     -1.636637      9.052464      9.052464     18.104927
     -1.626627     10.527563     10.527563     21.055127
