# EIG2DOS: Utility for SIESTA to obtain the electronic density of states
#  E. Artacho, Apr 1999, A. Garcia, Apr 2012
#  Nick R. Papior, Feb 2017
# ------------------------------------------
# Eigenvalues calculated from a non-polarized calculation
# Eigenvalues read from siesta.EIG
# Kpoint weights read from siesta.KP
# Using smearing parameter:   0.0500
# Using 1000 points in the energy range
# Selected bands: 1 to: 2981
# Emin, Emax in file for selected band(s):    -27.0344518    218.3181640
# Nbands, Nspin, Nk   =   2981     1     1
# E_F                 =    -4.2906 eV --> (shifted to ZERO)
# Broadening          =     0.0500 eV
#
#        E            N(up)  (=)   N(down)         Ntot
     -5.000000     46.185962     46.185962     92.371925
     -4.989990     48.644267     48.644267     97.288533
     -4.979980     49.678259     49.678259     99.356518
     -4.969970     49.291755     49.291755     98.583511
     -4.959960     47.631631     47.631631     95.263262
     -4.949950     44.949747     44.949747     89.899493
     -4.939940     41.575409     41.575409     83.150817
     -4.929930     37.907824     37.907824     75.815647
     -4.919920     34.423223     34.423223     68.846447
     -4.909910     31.676862     31.676862     63.353725
     -4.899900     30.269107     30.269107     60.538214
     -4.889890     30.745012     30.745012     61.490025
     -4.879880     33.420804     33.420804     66.841608
     -4.869870     38.181566     38.181566     76.363132
     -4.859860     44.348485     44.348485     88.696969
     -4.849850     50.725935     50.725935    101.451870
     -4.839840     55.876047     55.876047    111.752094
     -4.829830     58.549298     58.549298    117.098596
     -4.819820     58.094679     58.094679    116.189357
     -4.809810     54.659178     54.659178    109.318356
     -4.799800     49.085342     49.085342     98.170685
     -4.789790     42.569691     42.569691     85.139383
     -4.779780     36.255737     36.255737     72.511475
     -4.769770     30.938278     30.938278     61.876557
     -4.759760     26.964244     26.964244     53.928487
     -4.749750     24.302891     24.302891     48.605782
     -4.739740     22.694800     22.694800     45.389600
     -4.729730     21.793784     21.793784     43.587567
     -4.719720     21.258980     21.258980     42.517961
     -4.709710     20.796461     20.796461     41.592923
     -4.699700     20.171784     20.171784     40.343568
     -4.689690     19.219182     19.219182     38.438364
     -4.679680     17.865769     17.865769     35.731538
     -4.669670     16.173364     16.173364     32.346728
     -4.659660     14.381077     14.381077     28.762154
     -4.649650     12.918895     12.918895     25.837790
     -4.639640     12.364594     12.364594     24.729188
     -4.629630     13.332507     13.332507     26.665013
     -4.619620     16.305398     16.305398     32.610796
     -4.609610     21.444662     21.444662     42.889323
     -4.599600     28.437149     28.437149     56.874298
     -4.589590     36.451100     36.451100     72.902201
     -4.579580     44.260610     44.260610     88.521220
     -4.569570     50.543621     50.543621    101.087243
     -4.559560     54.274998     54.274998    108.549996
     -4.549550     55.067893     55.067893    110.135785
     -4.539540     53.312918     53.312918    106.625835
     -4.529530     50.041491     50.041491    100.082983
     -4.519520     46.561587     46.561587     93.123174
     -4.509510     44.015174     44.015174     88.030347
     -4.499499     43.033780     43.033780     86.067559
     -4.489489     43.612915     43.612915     87.225829
     -4.479479     45.222891     45.222891     90.445782
     -4.469469     47.076712     47.076712     94.153425
     -4.459459     48.427268     48.427268     96.854536
     -4.449449     48.779135     48.779135     97.558271
     -4.439439     47.959104     47.959104     95.918209
     -4.429429     46.061703     46.061703     92.123406
     -4.419419     43.337146     43.337146     86.674292
     -4.409409     40.096641     40.096641     80.193282
     -4.399399     36.673700     36.673700     73.347399
     -4.389389     33.425475     33.425475     66.850951
     -4.379379     30.723720     30.723720     61.447440
     -4.369369     28.896580     28.896580     57.793159
     -4.359359     28.131281     28.131281     56.262563
     -4.349349     28.394401     28.394401     56.788802
     -4.339339     29.431368     29.431368     58.862736
     -4.329329     30.863459     30.863459     61.726918
     -4.319319     32.340305     32.340305     64.680610
     -4.309309     33.672405     33.672405     67.344809
     -4.299299     34.881658     34.881658     69.763316
     -4.289289     36.153185     36.153185     72.306370
     -4.279279     37.715519     37.715519     75.431038
     -4.269269     39.697439     39.697439     79.394877
     -4.259259     42.011021     42.011021     84.022043
     -4.249249     44.305123     44.305123     88.610245
     -4.239239     46.022872     46.022872     92.045744
     -4.229229     46.568278     46.568278     93.136556
     -4.219219     45.535585     45.535585     91.071171
     -4.209209     42.904129     42.904129     85.808258
     -4.199199     39.093743     39.093743     78.187487
     -4.189189     34.834659     34.834659     69.669317
     -4.179179     30.904861     30.904861     61.809722
     -4.169169     27.863319     27.863319     55.726638
     -4.159159     25.907668     25.907668     51.815335
     -4.149149     24.911259     24.911259     49.822518
     -4.139139     24.597145     24.597145     49.194289
     -4.129129     24.742874     24.742874     49.485748
     -4.119119     25.306527     25.306527     50.613054
     -4.109109     26.411742     26.411742     52.823484
     -4.099099     28.201371     28.201371     56.402741
     -4.089089     30.637915     30.637915     61.275830
     -4.079079     33.366609     33.366609     66.733219
     -4.069069     35.739381     35.739381     71.478762
     -4.059059     37.020196     37.020196     74.040393
     -4.049049     36.687724     36.687724     73.375448
     -4.039039     34.682779     34.682779     69.365558
     -4.029029     31.466928     31.466928     62.933857
     -4.019019     27.860828     27.860828     55.721656
     -4.009009     24.752267     24.752267     49.504535
     -3.998999     22.825476     22.825476     45.650952
     -3.988989     22.429239     22.429239     44.858478
     -3.978979     23.603674     23.603674     47.207347
     -3.968969     26.195701     26.195701     52.391402
     -3.958959     29.968073     29.968073     59.936145
     -3.948949     34.649787     34.649787     69.299573
     -3.938939     39.941612     39.941612     79.883225
     -3.928929     45.524807     45.524807     91.049615
     -3.918919     51.102218     51.102218    102.204436
     -3.908909     56.452696     56.452696    112.905392
     -3.898899     61.447849     61.447849    122.895698
     -3.888889     65.994290     65.994290    131.988580
     -3.878879     69.916949     69.916949    139.833898
     -3.868869     72.852548     72.852548    145.705096
     -3.858859     74.237857     74.237857    148.475715
     -3.848849     73.438854     73.438854    146.877708
     -3.838839     69.991343     69.991343    139.982685
     -3.828829     63.852569     63.852569    127.705138
     -3.818819     55.540131     55.540131    111.080263
     -3.808809     46.077436     46.077436     92.154873
     -3.798799     36.752896     36.752896     73.505792
     -3.788789     28.783965     28.783965     57.567931
     -3.778779     23.012158     23.012158     46.024316
     -3.768769     19.729398     19.729398     39.458797
     -3.758759     18.673694     18.673694     37.347388
     -3.748749     19.170678     19.170678     38.341356
     -3.738739     20.361954     20.361954     40.723907
     -3.728729     21.453375     21.453375     42.906751
     -3.718719     21.924938     21.924938     43.849877
     -3.708709     21.657669     21.657669     43.315338
     -3.698699     20.948622     20.948622     41.897245
     -3.688689     20.405457     20.405457     40.810914
     -3.678679     20.739925     20.739925     41.479850
     -3.668669     22.512406     22.512406     45.024811
     -3.658659     25.906601     25.906601     51.813203
     -3.648649     30.618064     30.618064     61.236128
     -3.638639     35.909010     35.909010     71.818020
     -3.628629     40.818419     40.818419     81.636839
     -3.618619     44.447771     44.447771     88.895542
     -3.608609     46.208311     46.208311     92.416622
     -3.598599     45.939507     45.939507     91.879014
     -3.588589     43.876835     43.876835     87.753670
     -3.578579     40.515557     40.515557     81.031113
     -3.568569     36.444532     36.444532     72.889065
     -3.558559     32.205254     32.205254     64.410509
     -3.548549     28.196110     28.196110     56.392220
     -3.538539     24.622891     24.622891     49.245782
     -3.528529     21.498477     21.498477     42.996955
     -3.518519     18.696834     18.696834     37.393669
     -3.508509     16.051295     16.051295     32.102589
     -3.498498     13.461795     13.461795     26.923589
     -3.488488     10.964234     10.964234     21.928468
     -3.478478      8.731828      8.731828     17.463656
     -3.468468      7.012756      7.012756     14.025512
     -3.458458      6.036058      6.036058     12.072116
     -3.448448      5.923528      5.923528     11.847056
     -3.438438      6.634329      6.634329     13.268657
     -3.428428      7.956039      7.956039     15.912078
     -3.418418      9.547954      9.547954     19.095907
     -3.408408     11.033754     11.033754     22.067509
     -3.398398     12.123649     12.123649     24.247298
     -3.388388     12.725361     12.725361     25.450722
     -3.378378     12.995642     12.995642     25.991284
     -3.368368     13.302686     13.302686     26.605372
     -3.358358     14.109062     14.109062     28.218123
     -3.348348     15.820609     15.820609     31.641217
     -3.338338     18.655454     18.655454     37.310909
     -3.328328     22.566347     22.566347     45.132694
     -3.318318     27.220011     27.220011     54.440023
     -3.308308     32.024866     32.024866     64.049733
     -3.298298     36.208379     36.208379     72.416757
     -3.288288     38.955617     38.955617     77.911233
     -3.278278     39.604101     39.604101     79.208202
     -3.268268     37.846254     37.846254     75.692509
     -3.258258     33.854305     33.854305     67.708611
     -3.248248     28.254629     28.254629     56.509258
     -3.238238     21.945381     21.945381     43.890761
     -3.228228     15.832139     15.832139     31.664278
     -3.218218     10.595285     10.595285     21.190569
     -3.208208      6.575810      6.575810     13.151619
     -3.198198      3.797436      3.797436      7.594872
     -3.188188      2.080559      2.080559      4.161118
     -3.178178      1.180616      1.180616      2.361233
     -3.168168      0.899258      0.899258      1.798516
     -3.158158      1.147412      1.147412      2.294823
     -3.148148      1.961697      1.961697      3.923395
     -3.138138      3.481757      3.481757      6.963514
     -3.128128      5.893194      5.893194     11.786387
     -3.118118      9.341364      9.341364     18.682728
     -3.108108     13.832275     13.832275     27.664551
     -3.098098     19.153876     19.153876     38.307751
     -3.088088     24.859695     24.859695     49.719390
     -3.078078     30.342146     30.342146     60.684293
     -3.068068     34.982688     34.982688     69.965377
     -3.058058     38.319480     38.319480     76.638960
     -3.048048     40.152670     40.152670     80.305340
     -3.038038     40.536137     40.536137     81.072273
     -3.028028     39.672122     39.672122     79.344244
     -3.018018     37.787645     37.787645     75.575291
     -3.008008     35.080683     35.080683     70.161367
     -2.997998     31.768431     31.768431     63.536863
     -2.987988     28.188953     28.188953     56.377907
     -2.977978     24.862218     24.862218     49.724437
     -2.967968     22.440070     22.440070     44.880141
     -2.957958     21.546905     21.546905     43.093810
     -2.947948     22.580422     22.580422     45.160845
     -2.937938     25.562392     25.562392     51.124784
     -2.927928     30.099564     30.099564     60.199127
     -2.917918     35.463036     35.463036     70.926072
     -2.907908     40.752844     40.752844     81.505689
     -2.897898     45.097440     45.097440     90.194880
     -2.887888     47.839598     47.839598     95.679195
     -2.877878     48.668679     48.668679     97.337358
     -2.867868     47.668262     47.668262     95.336523
     -2.857858     45.262144     45.262144     90.524288
     -2.847848     42.066979     42.066979     84.133958
     -2.837838     38.693734     38.693734     77.387468
     -2.827828     35.567285     35.567285     71.134571
     -2.817818     32.834177     32.834177     65.668353
     -2.807808     30.394275     30.394275     60.788549
     -2.797798     28.035254     28.035254     56.070509
     -2.787788     25.598631     25.598631     51.197262
     -2.777778     23.091492     23.091492     46.182984
     -2.767768     20.689687     20.689687     41.379375
     -2.757758     18.640126     18.640126     37.280252
     -2.747748     17.127169     17.127169     34.254337
     -2.737738     16.187039     16.187039     32.374078
     -2.727728     15.721995     15.721995     31.443991
     -2.717718     15.601026     15.601026     31.202052
     -2.707708     15.776197     15.776197     31.552394
     -2.697698     16.331387     16.331387     32.662775
     -2.687688     17.423498     17.423498     34.846995
     -2.677678     19.149125     19.149125     38.298250
     -2.667668     21.424407     21.424407     42.848814
     -2.657658     23.963755     23.963755     47.927510
     -2.647648     26.382284     26.382284     52.764567
     -2.637638     28.365381     28.365381     56.730763
     -2.627628     29.802451     29.802451     59.604902
     -2.617618     30.804337     30.804337     61.608674
     -2.607608     31.600904     31.600904     63.201808
     -2.597598     32.391389     32.391389     64.782777
     -2.587588     33.240485     33.240485     66.480970
     -2.577578     34.066695     34.066695     68.133389
     -2.567568     34.698807     34.698807     69.397613
     -2.557558     34.940405     34.940405     69.880810
     -2.547548     34.604953     34.604953     69.209905
     -2.537538     33.534738     33.534738     67.069476
     -2.527528     31.642005     31.642005     63.284010
     -2.517518     28.984632     28.984632     57.969263
     -2.507508     25.837493     25.837493     51.674987
     -2.497497     22.694795     22.694795     45.389589
     -2.487487     20.166064     20.166064     40.332128
     -2.477477     18.791629     18.791629     37.583259
     -2.467467     18.857159     18.857159     37.714318
     -2.457457     20.295935     20.295935     40.591869
     -2.447447     22.728071     22.728071     45.456141
     -2.437437     25.621401     25.621401     51.242801
     -2.427427     28.501723     28.501723     57.003447
     -2.417417     31.116504     31.116504     62.233008
     -2.407407     33.476580     33.476580     66.953160
     -2.397397     35.756782     35.756782     71.513564
     -2.387387     38.103975     38.103975     76.207949
     -2.377377     40.448684     40.448684     80.897368
     -2.367367     42.420703     42.420703     84.841407
     -2.357357     43.425018     43.425018     86.850037
     -2.347347     42.859267     42.859267     85.718534
     -2.337337     40.381836     40.381836     80.763673
     -2.327327     36.108159     36.108159     72.216318
     -2.317317     30.642315     30.642315     61.284630
     -2.307307     24.928666     24.928666     49.857331
     -2.297297     19.990641     19.990641     39.981282
     -2.287287     16.665112     16.665112     33.330223
     -2.277277     15.424072     15.424072     30.848143
     -2.267267     16.321674     16.321674     32.643348
     -2.257257     19.051317     19.051317     38.102633
     -2.247247     23.068757     23.068757     46.137515
     -2.237237     27.733188     27.733188     55.466376
     -2.227227     32.426808     32.426808     64.853616
     -2.217217     36.627343     36.627343     73.254687
     -2.207207     39.927833     39.927833     79.855666
     -2.197197     42.022506     42.022506     84.045013
     -2.187187     42.695260     42.695260     85.390520
     -2.177177     41.842210     41.842210     83.684420
     -2.167167     39.527983     39.527983     79.055966
     -2.157157     36.035145     36.035145     72.070290
     -2.147147     31.849540     31.849540     63.699081
     -2.137137     27.551934     27.551934     55.103869
     -2.127127     23.645989     23.645989     47.291978
     -2.117117     20.403097     20.403097     40.806193
     -2.107107     17.806245     17.806245     35.612490
     -2.097097     15.622082     15.622082     31.244164
     -2.087087     13.557602     13.557602     27.115204
     -2.077077     11.414345     11.414345     22.828689
     -2.067067      9.165060      9.165060     18.330120
     -2.057057      6.931454      6.931454     13.862908
     -2.047047      4.897467      4.897467      9.794933
     -2.037037      3.216674      3.216674      6.433348
     -2.027027      1.958525      1.958525      3.917050
     -2.017017      1.104980      1.104980      2.209960
     -2.007007      0.581577      0.581577      1.163154
     -1.996997      0.298041      0.298041      0.596081
     -1.986987      0.180726      0.180726      0.361451
     -1.976977      0.191468      0.191468      0.382936
     -1.966967      0.335667      0.335667      0.671335
     -1.956957      0.663439      0.663439      1.326878
     -1.946947      1.263811      1.263811      2.527622
     -1.936937      2.247923      2.247923      4.495846
     -1.926927      3.717482      3.717482      7.434963
     -1.916917      5.721226      5.721226     11.442452
     -1.906907      8.212171      8.212171     16.424342
     -1.896897     11.025098     11.025098     22.050195
     -1.886887     13.890352     13.890352     27.780705
     -1.876877     16.485917     16.485917     32.971834
     -1.866867     18.512640     18.512640     37.025281
     -1.856857     19.767978     19.767978     39.535956
     -1.846847     20.195623     20.195623     40.391246
     -1.836837     19.897054     19.897054     39.794108
     -1.826827     19.099582     19.099582     38.199164
     -1.816817     18.084002     18.084002     36.168003
     -1.806807     17.088558     17.088558     34.177116
     -1.796797     16.223056     16.223056     32.446113
     -1.786787     15.434273     15.434273     30.868545
     -1.776777     14.546939     14.546939     29.093878
     -1.766767     13.366114     13.366114     26.732228
     -1.756757     11.790507     11.790507     23.581015
     -1.746747      9.879550      9.879550     19.759100
     -1.736737      7.846070      7.846070     15.692139
     -1.726727      5.990279      5.990279     11.980558
     -1.716717      4.618184      4.618184      9.236369
     -1.706707      3.982256      3.982256      7.964512
     -1.696697      4.253850      4.253850      8.507699
     -1.686687      5.510162      5.510162     11.020324
     -1.676677      7.713344      7.713344     15.426688
     -1.666667     10.677508     10.677508     21.355016
     -1.656657     14.045300     14.045300     28.090601
     -1.646647     17.308572     17.308572     34.617143
     -1.636637     19.895062     19.895062     39.790124
     -1.626627     21.309621     21.309621     42.619242
