# EIG2DOS: Utility for SIESTA to obtain the electronic density of states
#  E. Artacho, Apr 1999, A. Garcia, Apr 2012
#  Nick R. Papior, Feb 2017
# ------------------------------------------
# Eigenvalues calculated from a non-polarized calculation
# Eigenvalues read from siesta.EIG
# Kpoint weights read from siesta.KP
# Using smearing parameter:   0.0500
# Using 1000 points in the energy range
# Selected bands: 1 to: 2981
# Emin, Emax in file for selected band(s):    -27.0375432    218.3252730
# Nbands, Nspin, Nk   =   2981     1     1
# E_F                 =    -4.2824 eV --> (shifted to ZERO)
# Broadening          =     0.0500 eV
#
#        E            N(up)  (=)   N(down)         Ntot
     -5.000000     41.754146     41.754146     83.508292
     -4.989990     43.415859     43.415859     86.831717
     -4.979980     44.598600     44.598600     89.197199
     -4.969970     45.095936     45.095936     90.191872
     -4.959960     44.688283     44.688283     89.376567
     -4.949950     43.258468     43.258468     86.516937
     -4.939940     40.878920     40.878920     81.757840
     -4.929930     37.842815     37.842815     75.685630
     -4.919920     34.643321     34.643321     69.286641
     -4.909910     31.917802     31.917802     63.835604
     -4.899900     30.362499     30.362499     60.724997
     -4.889890     30.605495     30.605495     61.210989
     -4.879880     33.029952     33.029952     66.059903
     -4.869870     37.578760     37.578760     75.157519
     -4.859860     43.624928     43.624928     87.249856
     -4.849850     50.011288     50.011288    100.022576
     -4.839840     55.310795     55.310795    110.621591
     -4.829830     58.246843     58.246843    116.493687
     -4.819820     58.107438     58.107438    116.214876
     -4.809810     54.964770     54.964770    109.929541
     -4.799800     49.600009     49.600009     99.200017
     -4.789790     43.182062     43.182062     86.364124
     -4.779780     36.864406     36.864406     73.728812
     -4.769770     31.477299     31.477299     62.954597
     -4.759760     27.409723     27.409723     54.819447
     -4.749750     24.664059     24.664059     49.328119
     -4.739740     22.998015     22.998015     45.996030
     -4.729730     22.067044     22.067044     44.134088
     -4.719720     21.520991     21.520991     43.041982
     -4.709710     21.051502     21.051502     42.103004
     -4.699700     20.410373     20.410373     40.820747
     -4.689690     19.423577     19.423577     38.847154
     -4.679680     18.017892     18.017892     36.035783
     -4.669670     16.261482     16.261482     32.522964
     -4.659660     14.401809     14.401809     28.803617
     -4.649650     12.873295     12.873295     25.746590
     -4.639640     12.250368     12.250368     24.500737
     -4.629630     13.137155     13.137155     26.274311
     -4.619620     16.005845     16.005845     32.011689
     -4.609610     21.016812     21.016812     42.033624
     -4.599600     27.873966     27.873966     55.747932
     -4.589590     35.781835     35.781835     71.563670
     -4.579580     43.560155     43.560155     87.120310
     -4.569570     49.923131     49.923131     99.846262
     -4.559560     53.853654     53.853654    107.707308
     -4.549550     54.936771     54.936771    109.873543
     -4.539540     53.508027     53.508027    107.016053
     -4.529530     50.539195     50.539195    101.078390
     -4.519520     47.297847     47.297847     94.595694
     -4.509510     44.918170     44.918170     89.836340
     -4.499499     44.055017     44.055017     88.110034
     -4.489489     44.745844     44.745844     89.491687
     -4.479479     46.504762     46.504762     93.009525
     -4.469469     48.572904     48.572904     97.145809
     -4.459459     50.197717     50.197717    100.395434
     -4.449449     50.829672     50.829672    101.659343
     -4.439439     50.190959     50.190959    100.381919
     -4.429429     48.245318     48.245318     96.490636
     -4.419419     45.138230     45.138230     90.276460
     -4.409409     41.162830     41.162830     82.325659
     -4.399399     36.755105     36.755105     73.510210
     -4.389389     32.474615     32.474615     64.949230
     -4.379379     28.922877     28.922877     57.845754
     -4.369369     26.596390     26.596390     53.192781
     -4.359359     25.730944     25.730944     51.461888
     -4.349349     26.220769     26.220769     52.441538
     -4.339339     27.666487     27.666487     55.332975
     -4.329329     29.538075     29.538075     59.076150
     -4.319319     31.378291     31.378291     62.756582
     -4.309309     32.955487     32.955487     65.910975
     -4.299299     34.306703     34.306703     68.613405
     -4.289289     35.666071     35.666071     71.332142
     -4.279279     37.317113     37.317113     74.634226
     -4.269269     39.425423     39.425423     78.850846
     -4.259259     41.907613     41.907613     83.815226
     -4.249249     44.384994     44.384994     88.769988
     -4.239239     46.255329     46.255329     92.510657
     -4.229229     46.881116     46.881116     93.762232
     -4.219219     45.837452     45.837452     91.674903
     -4.209209     43.113620     43.113620     86.227240
     -4.199199     39.161924     39.161924     78.323847
     -4.189189     34.753308     34.753308     69.506617
     -4.179179     30.700968     30.700968     61.401937
     -4.169169     27.585825     27.585825     55.171650
     -4.159159     25.612927     25.612927     51.225854
     -4.149149     24.650696     24.650696     49.301393
     -4.139139     24.407519     24.407519     48.815037
     -4.129129     24.638912     24.638912     49.277824
     -4.119119     25.277310     25.277310     50.554619
     -4.109109     26.423864     26.423864     52.847727
     -4.099099     28.210820     28.210820     56.421639
     -4.089089     30.608211     30.608211     61.216422
     -4.079079     33.285482     33.285482     66.570964
     -4.069069     35.624596     35.624596     71.249192
     -4.059059     36.909783     36.909783     73.819567
     -4.049049     36.619004     36.619004     73.238008
     -4.039039     34.672197     34.672197     69.344394
     -4.029029     31.502917     31.502917     63.005834
     -4.019019     27.913797     27.913797     55.827594
     -4.009009     24.794745     24.794745     49.589490
     -3.998999     22.849162     22.849162     45.698323
     -3.988989     22.448590     22.448590     44.897180
     -3.978979     23.645128     23.645128     47.290255
     -3.968969     26.280744     26.280744     52.561489
     -3.958959     30.100944     30.100944     60.201889
     -3.948949     34.815907     34.815907     69.631813
     -3.938939     40.115232     40.115232     80.230463
     -3.928929     45.679543     45.679543     91.359085
     -3.918919     51.218615     51.218615    102.437230
     -3.908909     56.520979     56.520979    113.041959
     -3.898899     61.467693     61.467693    122.935385
     -3.888889     65.974209     65.974209    131.948419
     -3.878879     69.874036     69.874036    139.748072
     -3.868869     72.811049     72.811049    145.622098
     -3.858859     74.224686     74.224686    148.449371
     -3.848849     73.475957     73.475957    146.951915
     -3.838839     70.087508     70.087508    140.175017
     -3.828829     63.998595     63.998595    127.997190
     -3.818819     55.710183     55.710183    111.420366
     -3.808809     46.236479     46.236479     92.472958
     -3.798799     36.867263     36.867263     73.734525
     -3.788789     28.831110     28.831110     57.662221
     -3.778779     22.986571     22.986571     45.973141
     -3.768769     19.643476     19.643476     39.286952
     -3.758759     18.553864     18.553864     37.107728
     -3.748749     19.049925     19.049925     38.099850
     -3.738739     20.270482     20.270482     40.540965
     -3.728729     21.409696     21.409696     42.819392
     -3.718719     21.929925     21.929925     43.859850
     -3.708709     21.693702     21.693702     43.387403
     -3.698699     20.984621     20.984621     41.969241
     -3.688689     20.406829     20.406829     40.813658
     -3.678679     20.680658     20.680658     41.361317
     -3.668669     22.385322     22.385322     44.770643
     -3.658659     25.727758     25.727758     51.455516
     -3.648649     30.422962     30.422962     60.845925
     -3.638639     35.741445     35.741445     71.482890
     -3.628629     40.716222     40.716222     81.432443
     -3.618619     44.431323     44.431323     88.862645
     -3.608609     46.276296     46.276296     92.552592
     -3.598599     46.072603     46.072603     92.145206
     -3.588589     44.046341     44.046341     88.092683
     -3.578579     40.692562     40.692562     81.385124
     -3.568569     36.606506     36.606506     73.213012
     -3.558559     32.339285     32.339285     64.678570
     -3.548549     28.299504     28.299504     56.599009
     -3.538539     24.701814     24.701814     49.403628
     -3.528529     21.564770     21.564770     43.129539
     -3.518519     18.763214     18.763214     37.526428
     -3.508509     16.126065     16.126065     32.252129
     -3.498498     13.544959     13.544959     27.089919
     -3.488488     11.046663     11.046663     22.093325
     -3.478478      8.797820      8.797820     17.595640
     -3.468468      7.044990      7.044990     14.089980
     -3.458458      6.021304      6.021304     12.042607
     -3.448448      5.857668      5.857668     11.715336
     -3.438438      6.525536      6.525536     13.051072
     -3.428428      7.824994      7.824994     15.649988
     -3.418418      9.424140      9.424140     18.848281
     -3.408408     10.947821     10.947821     21.895643
     -3.398398     12.097568     12.097568     24.195136
     -3.388388     12.763633     12.763633     25.527267
     -3.378378     13.080879     13.080879     26.161758
     -3.368368     13.397269     13.397269     26.794539
     -3.358358     14.162501     14.162501     28.325003
     -3.348348     15.780988     15.780988     31.561976
     -3.338338     18.483239     18.483239     36.966478
     -3.328328     22.248575     22.248575     44.497150
     -3.318318     26.781395     26.781395     53.562791
     -3.308308     31.530469     31.530469     63.060938
     -3.298298     35.752928     35.752928     71.505856
     -3.288288     38.639166     38.639166     77.278332
     -3.278278     39.501218     39.501218     79.002437
     -3.268268     37.981397     37.981397     75.962794
     -3.258258     34.194839     34.194839     68.389677
     -3.248248     28.724698     28.724698     57.449397
     -3.238238     22.453508     22.453508     44.907016
     -3.228228     16.299511     16.299511     32.599022
     -3.218218     10.973483     10.973483     21.946967
     -3.208208      6.849991      6.849991     13.699983
     -3.198198      3.978445      3.978445      7.956891
     -3.188188      2.193049      2.193049      4.386098
     -3.178178      1.253290      1.253290      2.506580
     -3.168168      0.959921      0.959921      1.919841
     -3.158158      1.222204      1.222204      2.444407
     -3.148148      2.076070      2.076070      4.152139
     -3.138138      3.660686      3.660686      7.321373
     -3.128128      6.159354      6.159354     12.318708
     -3.118118      9.711907      9.711907     19.423814
     -3.108108     14.316549     14.316549     28.633099
     -3.098098     19.754505     19.754505     39.509010
     -3.088088     25.576962     25.576962     51.153925
     -3.078078     31.177431     31.177431     62.354862
     -3.068068     35.934106     35.934106     71.868211
     -3.058058     39.365870     39.365870     78.731740
     -3.048048     41.231460     41.231460     82.462920
     -3.038038     41.530959     41.530959     83.061918
     -3.028028     40.427970     40.427970     80.855939
     -3.018018     38.158909     38.158909     76.317819
     -3.008008     34.995505     34.995505     69.991010
     -2.997998     31.276032     31.276032     62.552064
     -2.987988     27.458980     27.458980     54.917959
     -2.977978     24.128190     24.128190     48.256380
     -2.967968     21.909469     21.909469     43.818938
     -2.957958     21.319540     21.319540     42.639081
     -2.947948     22.613304     22.613304     45.226608
     -2.937938     25.696156     25.696156     51.392311
     -2.927928     30.131888     30.131888     60.263775
     -2.917918     35.233763     35.233763     70.467526
     -2.907908     40.203288     40.203288     80.406576
     -2.897898     44.282202     44.282202     88.564405
     -2.887888     46.893474     46.893474     93.786948
     -2.877878     47.750422     47.750422     95.500843
     -2.867868     46.908067     46.908067     93.816135
     -2.857858     44.731026     44.731026     89.462052
     -2.847848     41.771863     41.771863     83.543726
     -2.837838     38.591218     38.591218     77.182435
     -2.827828     35.585605     35.585605     71.171211
     -2.817818     32.895162     32.895162     65.790324
     -2.807808     30.430858     30.430858     60.861715
     -2.797798     28.002735     28.002735     56.005470
     -2.787788     25.479187     25.479187     50.958374
     -2.777778     22.892337     22.892337     45.784674
     -2.767768     20.436392     20.436392     40.872784
     -2.757758     18.367476     18.367476     36.734952
     -2.747748     16.870076     16.870076     33.740152
     -2.737738     15.973304     15.973304     31.946609
     -2.727728     15.567795     15.567795     31.135590
     -2.717718     15.509356     15.509356     31.018711
     -2.707708     15.738210     15.738210     31.476420
     -2.697698     16.330205     16.330205     32.660409
     -2.687688     17.439361     17.439361     34.878721
     -2.677678     19.164076     19.164076     38.328152
     -2.667668     21.424680     21.424680     42.849360
     -2.657658     23.939157     23.939157     47.878315
     -2.647648     26.323624     26.323624     52.647249
     -2.637638     28.262389     28.262389     56.524777
     -2.627628     29.644564     29.644564     59.289129
     -2.617618     30.585001     30.585001     61.170001
     -2.607608     31.323450     31.323450     62.646900
     -2.597598     32.073001     32.073001     64.146002
     -2.587588     32.911373     32.911373     65.822747
     -2.577578     33.764292     33.764292     67.528583
     -2.567568     34.459633     34.459633     68.919266
     -2.557558     34.793040     34.793040     69.586079
     -2.547548     34.565809     34.565809     69.131619
     -2.537538     33.605900     33.605900     67.211800
     -2.527528     31.809655     31.809655     63.619309
     -2.517518     29.218265     29.218265     58.436531
     -2.507508     26.092294     26.092294     52.184587
     -2.497497     22.919559     22.919559     45.839118
     -2.487487     20.316293     20.316293     40.632586
     -2.477477     18.843557     18.843557     37.687114
     -2.467467     18.816607     18.816607     37.633213
     -2.457457     20.197451     20.197451     40.394902
     -2.447447     22.624156     22.624156     45.248311
     -2.437437     25.566167     25.566167     51.132334
     -2.427427     28.535467     28.535467     57.070935
     -2.417417     31.256248     31.256248     62.512495
     -2.407407     33.714003     33.714003     67.428005
     -2.397397     36.061818     36.061818     72.123636
     -2.387387     38.431771     38.431771     76.863543
     -2.377377     40.748985     40.748985     81.497970
     -2.367367     42.649487     42.649487     85.298974
     -2.357357     43.556630     43.556630     87.113260
     -2.347347     42.894674     42.894674     85.789348
     -2.337337     40.348300     40.348300     80.696599
     -2.327327     36.049236     36.049236     72.098472
     -2.317317     30.602560     30.602560     61.205120
     -2.307307     24.940339     24.940339     49.880678
     -2.297297     20.067854     20.067854     40.135708
     -2.287287     16.805762     16.805762     33.611524
     -2.277277     15.615745     15.615745     31.231489
     -2.267267     16.546992     16.546992     33.093984
     -2.257257     19.290557     19.290557     38.581114
     -2.247247     23.300356     23.300356     46.600712
     -2.237237     27.934073     27.934073     55.868145
     -2.227227     32.574082     32.574082     65.148164
     -2.217217     36.701640     36.701640     73.403279
     -2.207207     39.917551     39.917551     79.835102
     -2.197197     41.927462     41.927462     83.854923
     -2.187187     42.528104     42.528104     85.056208
     -2.177177     41.626480     41.626480     83.252959
     -2.167167     39.292898     39.292898     78.585796
     -2.157157     35.808799     35.808799     71.617597
     -2.147147     31.653016     31.653016     63.306033
     -2.137137     27.396443     27.396443     54.792886
     -2.127127     23.533532     23.533532     47.067063
     -2.117117     20.329492     20.329492     40.658985
     -2.107107     17.764570     17.764570     35.529139
     -2.097097     15.605042     15.605042     31.210084
     -2.087087     13.558474     13.558474     27.116949
     -2.077077     11.427044     11.427044     22.854088
     -2.067067      9.184092      9.184092     18.368183
     -2.057057      6.952146      6.952146     13.904292
     -2.047047      4.916374      4.916374      9.832747
     -2.037037      3.231831      3.231831      6.463663
     -2.027027      1.969331      1.969331      3.938663
     -2.017017      1.111734      1.111734      2.223468
     -2.007007      0.584817      0.584817      1.169633
     -1.996997      0.297831      0.297831      0.595662
     -1.986987      0.175911      0.175911      0.351822
     -1.976977      0.178876      0.178876      0.357752
     -1.966967      0.309373      0.309373      0.618747
     -1.956957      0.614516      0.614516      1.229033
     -1.946947      1.181304      1.181304      2.362608
     -1.936937      2.121764      2.121764      4.243528
     -1.926927      3.543372      3.543372      7.086744
     -1.916917      5.506112      5.506112     11.012225
     -1.906907      7.977530      7.977530     15.955060
     -1.896897     10.804982     10.804982     21.609964
     -1.886887     13.722919     13.722919     27.445839
     -1.876877     16.400513     16.400513     32.801026
     -1.866867     18.517608     18.517608     37.035215
     -1.856857     19.844989     19.844989     39.689977
     -1.846847     20.303830     20.303830     40.607660
     -1.836837     19.986077     19.986077     39.972154
     -1.826827     19.126665     19.126665     38.253330
     -1.816817     18.029239     18.029239     36.058479
     -1.806807     16.962903     16.962903     33.925805
     -1.796797     16.066195     16.066195     32.132390
     -1.786787     15.302879     15.302879     30.605758
     -1.776777     14.497741     14.497741     28.995481
     -1.766767     13.441391     13.441391     26.882781
     -1.756757     12.013957     12.013957     24.027915
     -1.746747     10.266424     10.266424     20.532848
     -1.736737      8.423864      8.423864     16.847728
     -1.726727      6.818274      6.818274     13.636548
     -1.716717      5.789904      5.789904     11.579808
     -1.706707      5.598189      5.598189     11.196378
     -1.696697      6.363983      6.363983     12.727967
     -1.686687      8.044459      8.044459     16.088917
     -1.676677     10.434852     10.434852     20.869705
     -1.666667     13.194907     13.194907     26.389815
     -1.656657     15.900710     15.900710     31.801420
     -1.646647     18.117810     18.117810     36.235619
     -1.636637     19.482642     19.482642     38.965283
     -1.626627     19.774682     19.774682     39.549363
