# EIG2DOS: Utility for SIESTA to obtain the electronic density of states
#  E. Artacho, Apr 1999, A. Garcia, Apr 2012
#  Nick R. Papior, Feb 2017
# ------------------------------------------
# Eigenvalues calculated from a non-polarized calculation
# Eigenvalues read from siesta.EIG
# Kpoint weights read from siesta.KP
# Using smearing parameter:   0.0500
# Using 1000 points in the energy range
# Selected bands: 1 to: 2981
# Emin, Emax in file for selected band(s):    -27.0276508    218.3080920
# Nbands, Nspin, Nk   =   2981     1     1
# E_F                 =    -4.3063 eV --> (shifted to ZERO)
# Broadening          =     0.0500 eV
#
#        E            N(up)  (=)   N(down)         Ntot
     -5.000000     42.741514     42.741514     85.483028
     -4.989990     47.561601     47.561601     95.123202
     -4.979980     51.129720     51.129720    102.259439
     -4.969970     52.931751     52.931751    105.863502
     -4.959960     52.720463     52.720463    105.440925
     -4.949950     50.592838     50.592838    101.185676
     -4.939940     46.971479     46.971479     93.942957
     -4.929930     42.511617     42.511617     85.023233
     -4.919920     37.984988     37.984988     75.969977
     -4.909910     34.183158     34.183158     68.366317
     -4.899900     31.843938     31.843938     63.687876
     -4.889890     31.566623     31.566623     63.133246
     -4.879880     33.680117     33.680117     67.360233
     -4.869870     38.075172     38.075172     76.150344
     -4.859860     44.080360     44.080360     88.160720
     -4.849850     50.494529     50.494529    100.989059
     -4.839840     55.841530     55.841530    111.683059
     -4.829830     58.795742     58.795742    117.591484
     -4.819820     58.610087     58.610087    117.220173
     -4.809810     55.347656     55.347656    110.695313
     -4.799800     49.807466     49.807466     99.614932
     -4.789790     43.192359     43.192359     86.384718
     -4.779780     36.690770     36.690770     73.381541
     -4.769770     31.158563     31.158563     62.317127
     -4.759760     26.998621     26.998621     53.997242
     -4.749750     24.218101     24.218101     48.436202
     -4.739740     22.572936     22.572936     45.145872
     -4.729730     21.710746     21.710746     43.421493
     -4.719720     21.267513     21.267513     42.535026
     -4.709710     20.916828     20.916828     41.833657
     -4.699700     20.391919     20.391919     40.783838
     -4.689690     19.502862     19.502862     39.005725
     -4.679680     18.163827     18.163827     36.327655
     -4.669670     16.431956     16.431956     32.863912
     -4.659660     14.543830     14.543830     29.087661
     -4.649650     12.924720     12.924720     25.849441
     -4.639640     12.147138     12.147138     24.294275
     -4.629630     12.828223     12.828223     25.656447
     -4.619620     15.473936     15.473936     30.947871
     -4.609610     20.298020     20.298020     40.596041
     -4.599600     27.065375     27.065375     54.130750
     -4.589590     35.027108     35.027108     70.054216
     -4.579580     43.010725     43.010725     86.021449
     -4.569570     49.685262     49.685262     99.370524
     -4.559560     53.942445     53.942445    107.884890
     -4.549550     55.259126     55.259126    110.518251
     -4.539540     53.885154     53.885154    107.770309
     -4.529530     50.760741     50.760741    101.521482
     -4.519520     47.184499     47.184499     94.368999
     -4.509510     44.365370     44.365370     88.730739
     -4.499499     43.038260     43.038260     86.076521
     -4.489489     43.283808     43.283808     86.567616
     -4.479479     44.594724     44.594724     89.189448
     -4.469469     46.128976     46.128976     92.257953
     -4.459459     47.030700     47.030700     94.061400
     -4.449449     46.700337     46.700337     93.400675
     -4.439439     44.940968     44.940968     89.881936
     -4.429429     41.966748     41.966748     83.933496
     -4.419419     38.303825     38.303825     76.607649
     -4.409409     34.632093     34.632093     69.264185
     -4.399399     31.612722     31.612722     63.225445
     -4.389389     29.735392     29.735392     59.470785
     -4.379379     29.211553     29.211553     58.423105
     -4.369369     29.936200     29.936200     59.872401
     -4.359359     31.531942     31.531942     63.063884
     -4.349349     33.468807     33.468807     66.937613
     -4.339339     35.226079     35.226079     70.452158
     -4.329329     36.443419     36.443419     72.886838
     -4.319319     37.011357     37.011357     74.022714
     -4.309309     37.076350     37.076350     74.152699
     -4.299299     36.968953     36.968953     73.937907
     -4.289289     37.086799     37.086799     74.173597
     -4.279279     37.767414     37.767414     75.534829
     -4.269269     39.175836     39.175836     78.351672
     -4.259259     41.224248     41.224248     82.448496
     -4.249249     43.545277     43.545277     87.090555
     -4.239239     45.547614     45.547614     91.095227
     -4.229229     46.569699     46.569699     93.139398
     -4.219219     46.102714     46.102714     92.205428
     -4.209209     43.998583     43.998583     87.997165
     -4.199199     40.557536     40.557536     81.115073
     -4.189189     36.434701     36.434701     72.869402
     -4.179179     32.399428     32.399428     64.798857
     -4.169169     29.064338     29.064338     58.128677
     -4.159159     26.715715     26.715715     53.431430
     -4.149149     25.314486     25.314486     50.628972
     -4.139139     24.641807     24.641807     49.283613
     -4.129129     24.493824     24.493824     48.987647
     -4.119119     24.817787     24.817787     49.635574
     -4.109109     25.720707     25.720707     51.441414
     -4.099099     27.347575     27.347575     54.695151
     -4.089089     29.693104     29.693104     59.386207
     -4.079079     32.453947     32.453947     64.907894
     -4.069069     35.022820     35.022820     70.045639
     -4.059059     36.661114     36.661114     73.322228
     -4.049049     36.786659     36.786659     73.573318
     -4.039039     35.235799     35.235799     70.471598
     -4.029029     32.360019     32.360019     64.720037
     -4.019019     28.905020     28.905020     57.810041
     -4.009009     25.740957     25.740957     51.481913
     -3.998999     23.587105     23.587105     47.174210
     -3.988989     22.856639     22.856639     45.713277
     -3.978979     23.657491     23.657491     47.314982
     -3.968969     25.891588     25.891588     51.783177
     -3.958959     29.359235     29.359235     58.718470
     -3.948949     33.810702     33.810702     67.621404
     -3.938939     38.952735     38.952735     77.905470
     -3.928929     44.457295     44.457295     88.914591
     -3.918919     50.005882     50.005882    100.011764
     -3.908909     55.354185     55.354185    110.708369
     -3.898899     60.364262     60.364262    120.728525
     -3.888889     64.959048     64.959048    129.918095
     -3.878879     69.004599     69.004599    138.009198
     -3.868869     72.184897     72.184897    144.369794
     -3.858859     73.960311     73.960311    147.920621
     -3.848849     73.671380     73.671380    147.342759
     -3.838839     70.774357     70.774357    141.548714
     -3.828829     65.114017     65.114017    130.228034
     -3.818819     57.101442     57.101442    114.202884
     -3.808809     47.697578     47.697578     95.395156
     -3.798799     38.192462     38.192462     76.384923
     -3.788789     29.864613     29.864613     59.729227
     -3.778779     23.652494     23.652494     47.304988
     -3.768769     19.950649     19.950649     39.901297
     -3.758759     18.579442     18.579442     37.158884
     -3.748749     18.910391     18.910391     37.820783
     -3.738739     20.088685     20.088685     40.177369
     -3.728729     21.284776     21.284776     42.569552
     -3.718719     21.915314     21.915314     43.830627
     -3.708709     21.787143     21.787143     43.574287
     -3.698699     21.132609     21.132609     42.265218
     -3.688689     20.523119     20.523119     41.046237
     -3.678679     20.674788     20.674788     41.349576
     -3.668669     22.193367     22.193367     44.386733
     -3.658659     25.335601     25.335601     50.671202
     -3.648649     29.873833     29.873833     59.747667
     -3.638639     35.124768     35.124768     70.249535
     -3.628629     40.142165     40.142165     80.284330
     -3.618619     44.001201     44.001201     88.002401
     -3.608609     46.059690     46.059690     92.119380
     -3.598599     46.097365     46.097365     92.194731
     -3.588589     44.300782     44.300782     88.601565
     -3.578579     41.134742     41.134742     82.269484
     -3.568569     37.175759     37.175759     74.351519
     -3.558559     32.967920     32.967920     65.935841
     -3.548549     28.924405     28.924405     57.848809
     -3.538539     25.274834     25.274834     50.549667
     -3.528529     22.059090     22.059090     44.118180
     -3.518519     19.173008     19.173008     38.346016
     -3.508509     16.459632     16.459632     32.919265
     -3.498498     13.814896     13.814896     27.629792
     -3.488488     11.261857     11.261857     22.523713
     -3.478478      8.960393      8.960393     17.920786
     -3.468468      7.152200      7.152200     14.304399
     -3.458458      6.070192      6.070192     12.140384
     -3.448448      5.849776      5.849776     11.699553
     -3.438438      6.469738      6.469738     12.939476
     -3.428428      7.737377      7.737377     15.474754
     -3.418418      9.324536      9.324536     18.649072
     -3.408408     10.853502     10.853502     21.707004
     -3.398398     12.015963     12.015963     24.031925
     -3.388388     12.687061     12.687061     25.374122
     -3.378378     12.986126     12.986126     25.972252
     -3.368368     13.250903     13.250903     26.501807
     -3.358358     13.930148     13.930148     27.860296
     -3.348348     15.437271     15.437271     30.874541
     -3.338338     18.019818     18.019818     36.039636
     -3.328328     21.679857     21.679857     43.359714
     -3.318318     26.148542     26.148542     52.297084
     -3.308308     30.902752     30.902752     61.805505
     -3.298298     35.222545     35.222545     70.445090
     -3.288288     38.305256     38.305256     76.610512
     -3.278278     39.443644     39.443644     78.887288
     -3.268268     38.232873     38.232873     76.465746
     -3.258258     34.724891     34.724891     69.449782
     -3.248248     29.445437     29.445437     58.890873
     -3.238238     23.246282     23.246282     46.492565
     -3.228228     17.050432     17.050432     34.100864
     -3.218218     11.602031     11.602031     23.204062
     -3.208208      7.320373      7.320373     14.640746
     -3.198198      4.293225      4.293225      8.586450
     -3.188188      2.376154      2.376154      4.752309
     -3.178178      1.331268      1.331268      2.662535
     -3.168168      0.947495      0.947495      1.894990
     -3.158158      1.114336      1.114336      2.228672
     -3.148148      1.846567      1.846567      3.693134
     -3.138138      3.267208      3.267208      6.534415
     -3.128128      5.554753      5.554753     11.109507
     -3.118118      8.860484      8.860484     17.720968
     -3.108108     13.210738     13.210738     26.421475
     -3.098098     18.424926     18.424926     36.849852
     -3.088088     24.089880     24.089880     48.179760
     -3.078078     29.619923     29.619923     59.239845
     -3.068068     34.395820     34.395820     68.791641
     -3.058058     37.930063     37.930063     75.860127
     -3.048048     39.981307     39.981307     79.962613
     -3.038038     40.562011     40.562011     81.124022
     -3.028028     39.845618     39.845618     79.691236
     -3.018018     38.043876     38.043876     76.087751
     -3.008008     35.342985     35.342985     70.685970
     -2.997998     31.941225     31.941225     63.882449
     -2.987988     28.152027     28.152027     56.304053
     -2.977978     24.483242     24.483242     48.966483
     -2.967968     21.613456     21.613456     43.226912
     -2.957958     20.248914     20.248914     40.497827
     -2.947948     20.913845     20.913845     41.827690
     -2.937938     23.761157     23.761157     47.522315
     -2.927928     28.479130     28.479130     56.958260
     -2.917918     34.329889     34.329889     68.659778
     -2.907908     40.310089     40.310089     80.620179
     -2.897898     45.387817     45.387817     90.775633
     -2.887888     48.748359     48.748359     97.496718
     -2.877878     49.978429     49.978429     99.956858
     -2.867868     49.135220     49.135220     98.270440
     -2.857858     46.680755     46.680755     93.361510
     -2.847848     43.304477     43.304477     86.608954
     -2.837838     39.694815     39.694815     79.389630
     -2.827828     36.339515     36.339515     72.679030
     -2.817818     33.424912     33.424912     66.849824
     -2.807808     30.865557     30.865557     61.731114
     -2.797798     28.440697     28.440697     56.881393
     -2.787788     25.966993     25.966993     51.933985
     -2.777778     23.421967     23.421967     46.843934
     -2.767768     20.960590     20.960590     41.921181
     -2.757758     18.826059     18.826059     37.652117
     -2.747748     17.214269     17.214269     34.428539
     -2.737738     16.176274     16.176274     32.352548
     -2.727728     15.617890     15.617890     31.235780
     -2.717718     15.393837     15.393837     30.787674
     -2.707708     15.432272     15.432272     30.864544
     -2.697698     15.803726     15.803726     31.607451
     -2.687688     16.682313     16.682313     33.364627
     -2.677678     18.217267     18.217267     36.434535
     -2.667668     20.394779     20.394779     40.789558
     -2.657658     22.982351     22.982351     45.964703
     -2.647648     25.599381     25.599381     51.198761
     -2.637638     27.877699     27.877699     55.755398
     -2.627628     29.616891     29.616891     59.233783
     -2.617618     30.842470     30.842470     61.684941
     -2.607608     31.739642     31.739642     63.479285
     -2.597598     32.515637     32.515637     65.031275
     -2.587588     33.281343     33.281343     66.562685
     -2.577578     34.013414     34.013414     68.026828
     -2.567568     34.590535     34.590535     69.181070
     -2.557558     34.850480     34.850480     69.700960
     -2.547548     34.624012     34.624012     69.248024
     -2.537538     33.749578     33.749578     67.499155
     -2.527528     32.106789     32.106789     64.213578
     -2.517518     29.690784     29.690784     59.381567
     -2.507508     26.698202     26.698202     53.396405
     -2.497497     23.558413     23.558413     47.116826
     -2.487487     20.858749     20.858749     41.717499
     -2.477477     19.172860     19.172860     38.345721
     -2.467467     18.863884     18.863884     37.727768
     -2.457457     19.956674     19.956674     39.913348
     -2.447447     22.143098     22.143098     44.286196
     -2.437437     24.920508     24.920508     49.841016
     -2.427427     27.799639     27.799639     55.599277
     -2.417417     30.484629     30.484629     60.969258
     -2.407407     32.940115     32.940115     65.880231
     -2.397397     35.313815     35.313815     70.627629
     -2.387387     37.753890     37.753890     75.507780
     -2.377377     40.214915     40.214915     80.429830
     -2.367367     42.356895     42.356895     84.713790
     -2.357357     43.601267     43.601267     87.202534
     -2.347347     43.333348     43.333348     86.666697
     -2.337337     41.167192     41.167192     82.334383
     -2.327327     37.153363     37.153363     74.306727
     -2.317317     31.833231     31.833231     63.666461
     -2.307307     26.114491     26.114491     52.228982
     -2.297297     21.023379     21.023379     42.046757
     -2.287287     17.435537     17.435537     34.871074
     -2.277277     15.880115     15.880115     31.760229
     -2.267267     16.464983     16.464983     32.929966
     -2.257257     18.918461     18.918461     37.836922
     -2.247247     22.709371     22.709371     45.418741
     -2.237237     27.196448     27.196448     54.392897
     -2.227227     31.761372     31.761372     63.522743
     -2.217217     35.891493     35.891493     71.782986
     -2.207207     39.200020     39.200020     78.400041
     -2.197197     41.401118     41.401118     82.802235
     -2.187187     42.281749     42.281749     84.563498
     -2.177177     41.711671     41.711671     83.423343
     -2.167167     39.700455     39.700455     79.400909
     -2.157157     36.463555     36.463555     72.927111
     -2.147147     32.433549     32.433549     64.867098
     -2.137137     28.173787     28.173787     56.347573
     -2.127127     24.212311     24.212311     48.424622
     -2.117117     20.872861     20.872861     41.745723
     -2.107107     18.192647     18.192647     36.385293
     -2.097097     15.970339     15.970339     31.940678
     -2.087087     13.912967     13.912967     27.825933
     -2.077077     11.797648     11.797648     23.595295
     -2.067067      9.566113      9.566113     19.132225
     -2.057057      7.319251      7.319251     14.638502
     -2.047047      5.237802      5.237802     10.475605
     -2.037037      3.486664      3.486664      6.973329
     -2.027027      2.152277      2.152277      4.304554
     -2.017017      1.230846      1.230846      2.461692
     -2.007007      0.655117      0.655117      1.310234
     -1.996997      0.334970      0.334970      0.669940
     -1.986987      0.192107      0.192107      0.384215
     -1.976977      0.181328      0.181328      0.362655
     -1.966967      0.300250      0.300250      0.600499
     -1.956957      0.591634      0.591634      1.183267
     -1.946947      1.139105      1.139105      2.278210
     -1.936937      2.052709      2.052709      4.105418
     -1.926927      3.439976      3.439976      6.879951
     -1.916917      5.363572      5.363572     10.727144
     -1.906907      7.796436      7.796436     15.592872
     -1.896897     10.593306     10.593306     21.186612
     -1.886887     13.496539     13.496539     26.993079
     -1.876877     16.181875     16.181875     32.363751
     -1.866867     18.332468     18.332468     36.664935
     -1.856857     19.717480     19.717480     39.434960
     -1.846847     20.250644     20.250644     40.501288
     -1.836837     20.011391     20.011391     40.022781
     -1.826827     19.220113     19.220113     38.440225
     -1.816817     18.168697     18.168697     36.337393
     -1.806807     17.121675     17.121675     34.243350
     -1.796797     16.221465     16.221465     32.442929
     -1.786787     15.440833     15.440833     30.881666
     -1.776777     14.611866     14.611866     29.223732
     -1.766767     13.523193     13.523193     27.046386
     -1.756757     12.037820     12.037820     24.075640
     -1.746747     10.171266     10.171266     20.342531
     -1.736737      8.094768      8.094768     16.189537
     -1.726727      6.073729      6.073729     12.147458
     -1.716717      4.385623      4.385623      8.771246
     -1.706707      3.263128      3.263128      6.526257
     -1.696697      2.880564      2.880564      5.761128
     -1.686687      3.366802      3.366802      6.733604
     -1.676677      4.808737      4.808737      9.617473
     -1.666667      7.217404      7.217404     14.434808
     -1.656657     10.459438     10.459438     20.918876
     -1.646647     14.192532     14.192532     28.385064
     -1.636637     17.861889     17.861889     35.723779
     -1.626627     20.797679     20.797679     41.595359
