# EIG2DOS: Utility for SIESTA to obtain the electronic density of states
#  E. Artacho, Apr 1999, A. Garcia, Apr 2012
#  Nick R. Papior, Feb 2017
# ------------------------------------------
# Eigenvalues calculated from a non-polarized calculation
# Eigenvalues read from siesta.EIG
# Kpoint weights read from siesta.KP
# Using smearing parameter:   0.0500
# Using 1000 points in the energy range
# Selected bands: 1 to: 2981
# Emin, Emax in file for selected band(s):    -27.1895417    218.3464030
# Nbands, Nspin, Nk   =   2981     1     1
# E_F                 =    -4.2595 eV --> (shifted to ZERO)
# Broadening          =     0.0500 eV
#
#        E            N(up)  (=)   N(down)         Ntot
     -5.000000     33.767244     33.767244     67.534487
     -4.989990     37.331650     37.331650     74.663300
     -4.979980     40.667042     40.667042     81.334084
     -4.969970     43.164835     43.164835     86.329669
     -4.959960     44.329582     44.329582     88.659163
     -4.949950     43.919366     43.919366     87.838731
     -4.939940     42.019785     42.019785     84.039570
     -4.929930     39.034460     39.034460     78.068919
     -4.919920     35.610231     35.610231     71.220463
     -4.909910     32.530303     32.530303     65.060606
     -4.899900     30.595192     30.595192     61.190383
     -4.889890     30.486558     30.486558     60.973116
     -4.879880     32.603631     32.603631     65.207262
     -4.869870     36.893072     36.893072     73.786144
     -4.859860     42.742171     42.742171     85.484343
     -4.849850     49.026137     49.026137     98.052274
     -4.839840     54.356037     54.356037    108.712075
     -4.829830     57.474215     57.474215    114.948429
     -4.819820     57.647596     57.647596    115.295193
     -4.809810     54.885896     54.885896    109.771792
     -4.799800     49.887645     49.887645     99.775291
     -4.789790     43.750798     43.750798     87.501595
     -4.779780     37.593479     37.593479     75.186958
     -4.769770     32.250407     32.250407     64.500814
     -4.759760     28.141210     28.141210     56.282420
     -4.749750     25.305360     25.305360     50.610720
     -4.739740     23.529855     23.529855     47.059711
     -4.729730     22.487238     22.487238     44.974477
     -4.719720     21.834901     21.834901     43.669802
     -4.709710     21.267235     21.267235     42.534470
     -4.699700     20.537868     20.537868     41.075736
     -4.689690     19.476439     19.476439     38.952878
     -4.679680     18.017305     18.017305     36.034609
     -4.669670     16.241016     16.241016     32.482032
     -4.659660     14.410745     14.410745     28.821490
     -4.649650     12.975747     12.975747     25.951495
     -4.639640     12.519297     12.519297     25.038595
     -4.629630     13.646428     13.646428     27.292856
     -4.619620     16.828021     16.828021     33.656042
     -4.609610     22.235763     22.235763     44.471526
     -4.599600     29.615517     29.615517     59.231033
     -4.589590     38.251226     38.251226     76.502453
     -4.579580     47.058606     47.058606     94.117212
     -4.569570     54.810872     54.810872    109.621743
     -4.559560     60.445491     60.445491    120.890982
     -4.549550     63.355506     63.355506    126.711012
     -4.539540     63.558136     63.558136    127.116271
     -4.529530     61.668840     61.668840    123.337680
     -4.519520     58.679720     58.679720    117.359439
     -4.509510     55.618610     55.618610    111.237220
     -4.499499     53.215812     53.215812    106.431623
     -4.489489     51.703997     51.703997    103.407993
     -4.479479     50.819991     50.819991    101.639982
     -4.469469     49.989187     49.989187     99.978373
     -4.459459     48.597544     48.597544     97.195089
     -4.449449     46.230855     46.230855     92.461709
     -4.439439     42.795722     42.795722     85.591444
     -4.429429     38.506686     38.506686     77.013372
     -4.419419     33.786154     33.786154     67.572307
     -4.409409     29.145267     29.145267     58.290534
     -4.399399     25.090814     25.090814     50.181629
     -4.389389     22.061533     22.061533     44.123066
     -4.379379     20.371762     20.371762     40.743523
     -4.369369     20.149228     20.149228     40.298456
     -4.359359     21.284664     21.284664     42.569329
     -4.349349     23.432526     23.432526     46.865051
     -4.339339     26.090817     26.090817     52.181633
     -4.329329     28.747750     28.747750     57.495501
     -4.319319     31.041591     31.041591     62.083183
     -4.309309     32.866434     32.866434     65.732868
     -4.299299     34.378776     34.378776     68.757552
     -4.289289     35.901497     35.901497     71.802993
     -4.279279     37.759732     37.759732     75.519464
     -4.269269     40.104447     40.104447     80.208893
     -4.259259     42.785549     42.785549     85.571099
     -4.249249     45.330094     45.330094     90.660189
     -4.239239     47.056647     47.056647     94.113295
     -4.229229     47.307584     47.307584     94.615168
     -4.219219     45.718425     45.718425     91.436850
     -4.209209     42.403367     42.403367     84.806734
     -4.199199     37.956851     37.956851     75.913703
     -4.189189     33.255818     33.255818     66.511637
     -4.179179     29.151247     29.151247     58.302494
     -4.169169     26.195279     26.195279     52.390558
     -4.159159     24.524974     24.524974     49.049948
     -4.149149     23.934934     23.934934     47.869868
     -4.139139     24.075941     24.075941     48.151882
     -4.129129     24.666624     24.666624     49.333248
     -4.119119     25.615108     25.615108     51.230216
     -4.109109     27.000148     27.000148     54.000296
     -4.099099     28.928991     28.928991     57.857982
     -4.089089     31.348871     31.348871     62.697741
     -4.079079     33.919583     33.919583     67.839166
     -4.069069     36.036477     36.036477     72.072953
     -4.059059     37.022127     37.022127     74.044253
     -4.049049     36.409569     36.409569     72.819138
     -4.039039     34.176190     34.176190     68.352380
     -4.029029     30.802277     30.802277     61.604554
     -4.019019     27.120123     27.120123     54.240245
     -4.009009     24.032390     24.032390     48.064781
     -3.998999     22.240398     22.240398     44.480797
     -3.988989     22.098632     22.098632     44.197265
     -3.978979     23.625458     23.625458     47.250916
     -3.968969     26.613935     26.613935     53.227870
     -3.958959     30.754263     30.754263     61.508525
     -3.948949     35.709798     35.709798     71.419596
     -3.938939     41.146093     41.146093     82.292187
     -3.928929     46.748202     46.748202     93.496404
     -3.918919     52.251965     52.251965    104.503930
     -3.908909     57.477023     57.477023    114.954045
     -3.898899     62.322701     62.322701    124.645403
     -3.888889     66.700581     66.700581    133.401163
     -3.878879     70.423389     70.423389    140.846779
     -3.868869     73.115157     73.115157    146.230313
     -3.858859     74.217005     74.217005    148.434010
     -3.848849     73.123884     73.123884    146.247767
     -3.838839     69.417883     69.417883    138.835766
     -3.828829     63.101749     63.101749    126.203497
     -3.818819     54.719332     54.719332    109.438665
     -3.808809     45.292110     45.292110     90.584220
     -3.798799     36.082304     36.082304     72.164608
     -3.788789     28.269567     28.269567     56.539134
     -3.778779     22.659631     22.659631     45.319262
     -3.768769     19.519184     19.519184     39.038368
     -3.758759     18.573245     18.573245     37.146491
     -3.748749     19.143753     19.143753     38.287507
     -3.738739     20.373789     20.373789     40.747577
     -3.728729     21.473147     21.473147     42.946294
     -3.718719     21.927579     21.927579     43.855157
     -3.708709     21.626250     21.626250     43.252499
     -3.698699     20.877231     20.877231     41.754462
     -3.688689     20.301539     20.301539     40.603077
     -3.678679     20.624712     20.624712     41.249424
     -3.668669     22.418155     22.418155     44.836311
     -3.658659     25.869920     25.869920     51.739840
     -3.648649     30.669820     30.669820     61.339639
     -3.638639     36.063193     36.063193     72.126386
     -3.628629     41.063910     41.063910     82.127821
     -3.618619     44.747034     44.747034     89.494068
     -3.608609     46.504821     46.504821     93.009643
     -3.598599     46.172129     46.172129     92.344258
     -3.588589     43.996268     43.996268     87.992536
     -3.578579     40.497141     40.497141     80.994281
     -3.568569     36.293428     36.293428     72.586855
     -3.558559     31.953133     31.953133     63.906266
     -3.548549     27.891394     27.891394     55.782789
     -3.538539     24.318086     24.318086     48.636172
     -3.528529     21.238201     21.238201     42.476402
     -3.518519     18.509222     18.509222     37.018444
     -3.508509     15.944230     15.944230     31.888459
     -3.498498     13.424120     13.424120     26.848239
     -3.488488     10.970950     10.970950     21.941899
     -3.478478      8.751500      8.751500     17.503001
     -3.468468      7.015237      7.015237     14.030474
     -3.458458      5.999180      5.999180     11.998360
     -3.448448      5.838130      5.838130     11.676259
     -3.438438      6.507159      6.507159     13.014317
     -3.428428      7.809716      7.809716     15.619432
     -3.418418      9.416936      9.416936     18.833872
     -3.408408     10.956077     10.956077     21.912154
     -3.398398     12.129986     12.129986     24.259972
     -3.388388     12.828633     12.828633     25.657266
     -3.378378     13.184640     13.184640     26.369280
     -3.368368     13.541797     13.541797     27.083593
     -3.358358     14.344337     14.344337     28.688674
     -3.348348     15.991238     15.991238     31.982476
     -3.338338     18.709084     18.709084     37.418168
     -3.328328     22.475526     22.475526     44.951052
     -3.318318     26.994989     26.994989     53.989979
     -3.308308     31.716858     31.716858     63.433717
     -3.298298     35.899930     35.899930     71.799861
     -3.288288     38.741436     38.741436     77.482872
     -3.278278     39.573310     39.573310     79.146621
     -3.268268     38.079775     38.079775     76.159549
     -3.258258     34.445242     34.445242     68.890484
     -3.248248     29.346416     29.346416     58.692831
     -3.238238     23.768144     23.768144     47.536287
     -3.228228     18.709965     18.709965     37.419930
     -3.218218     14.901864     14.901864     29.803729
     -3.208208     12.635057     12.635057     25.270113
     -3.198198     11.754505     11.754505     23.509009
     -3.188188     11.794900     11.794900     23.589801
     -3.178178     12.199711     12.199711     24.399422
     -3.168168     12.548123     12.548123     25.096247
     -3.158158     12.719610     12.719610     25.439220
     -3.148148     12.945031     12.945031     25.890061
     -3.138138     13.724985     13.724985     27.449970
     -3.128128     15.635854     15.635854     31.271708
     -3.118118     19.081587     19.081587     38.163174
     -3.108108     24.073755     24.073755     48.147511
     -3.098098     30.124555     30.124555     60.249111
     -3.088088     36.310570     36.310570     72.621140
     -3.078078     41.508054     41.508054     83.016108
     -3.068068     44.727390     44.727390     89.454779
     -3.058058     45.418338     45.418338     90.836676
     -3.048048     43.616923     43.616923     87.233846
     -3.038038     39.872756     39.872756     79.745512
     -3.028028     35.002106     35.002106     70.004212
     -3.018018     29.795499     29.795499     59.590999
     -3.008008     24.818101     24.818101     49.636202
     -2.997998     20.373529     20.373529     40.747058
     -2.987988     16.604490     16.604490     33.208980
     -2.977978     13.638132     13.638132     27.276264
     -2.967968     11.681980     11.681980     23.363961
     -2.957958     11.023439     11.023439     22.046878
     -2.947948     11.942496     11.942496     23.884992
     -2.937938     14.582568     14.582568     29.165135
     -2.927928     18.833065     18.833065     37.666131
     -2.917918     24.270158     24.270158     48.540317
     -2.907908     30.187604     30.187604     60.375208
     -2.897898     35.725851     35.725851     71.451703
     -2.887888     40.073043     40.073043     80.146087
     -2.877878     42.675565     42.675565     85.351130
     -2.867868     43.378671     43.378671     86.757342
     -2.857858     42.436230     42.436230     84.872459
     -2.847848     40.380801     40.380801     80.761601
     -2.837838     37.807695     37.807695     75.615389
     -2.827828     35.166765     35.166765     70.333530
     -2.817818     32.650813     32.650813     65.301625
     -2.807808     30.220478     30.220478     60.440956
     -2.797798     27.737123     27.737123     55.474246
     -2.787788     25.123090     25.123090     50.246180
     -2.777778     22.460409     22.460409     44.920818
     -2.767768     19.978578     19.978578     39.957155
     -2.757758     17.947477     17.947477     35.894954
     -2.747748     16.545940     16.545940     33.091881
     -2.737738     15.788427     15.788427     31.576855
     -2.727728     15.553924     15.553924     31.107849
     -2.717718     15.694834     15.694834     31.389669
     -2.707708     16.150311     16.150311     32.300622
     -2.697698     16.983714     16.983714     33.967428
     -2.687688     18.313594     18.313594     36.627189
     -2.677678     20.181530     20.181530     40.363059
     -2.667668     22.448743     22.448743     44.897487
     -2.657658     24.800983     24.800983     49.601967
     -2.647648     26.871906     26.871906     53.743812
     -2.637638     28.414367     28.414367     56.828734
     -2.627628     29.413180     29.413180     58.826359
     -2.617618     30.069283     30.069283     60.138567
     -2.607608     30.669261     30.669261     61.338521
     -2.597598     31.425212     31.425212     62.850424
     -2.587588     32.377856     32.377856     64.755711
     -2.577578     33.399833     33.399833     66.799666
     -2.567568     34.265601     34.265601     68.531202
     -2.557558     34.725216     34.725216     69.450433
     -2.547548     34.547467     34.547467     69.094933
     -2.537538     33.547736     33.547736     67.095471
     -2.527528     31.636324     31.636324     63.272649
     -2.517518     28.894563     28.894563     57.789126
     -2.507508     25.637792     25.637792     51.275584
     -2.497497     22.403968     22.403968     44.807937
     -2.487487     19.837174     19.837174     39.674348
     -2.477477     18.496588     18.496588     36.993176
     -2.467467     18.670782     18.670782     37.341564
     -2.457457     20.283122     20.283122     40.566244
     -2.447447     22.934701     22.934701     45.869402
     -2.437437     26.068511     26.068511     52.137023
     -2.427427     29.182535     29.182535     58.365070
     -2.417417     31.995389     31.995389     63.990778
     -2.407407     34.488555     34.488555     68.977109
     -2.397397     36.807243     36.807243     73.614486
     -2.387387     39.071733     39.071733     78.143466
     -2.377377     41.198121     41.198121     82.396243
     -2.367367     42.826983     42.826983     85.653967
     -2.357357     43.408563     43.408563     86.817126
     -2.347347     42.416607     42.416607     84.833214
     -2.337337     39.596943     39.596943     79.193887
     -2.327327     35.135546     35.135546     70.271093
     -2.317317     29.667028     29.667028     59.334057
     -2.307307     24.119634     24.119634     48.239269
     -2.297297     19.465432     19.465432     38.930865
     -2.287287     16.475962     16.475962     32.951924
     -2.277277     15.563809     15.563809     31.127617
     -2.267267     16.740847     16.740847     33.481693
     -2.257257     19.676947     19.676947     39.353893
     -2.247247     23.818382     23.818382     47.636763
     -2.237237     28.522075     28.522075     57.044149
     -2.227227     33.169842     33.169842     66.339684
     -2.217217     37.239763     37.239763     74.479525
     -2.207207     40.329897     40.329897     80.659795
     -2.197197     42.151059     42.151059     84.302117
     -2.187187     42.520121     42.520121     85.040242
     -2.177177     41.380216     41.380216     82.760433
     -2.167167     38.845933     38.845933     77.691865
     -2.157157     35.236779     35.236779     70.473557
     -2.147147     31.049149     31.049149     62.098297
     -2.137137     26.844052     26.844052     53.688105
     -2.127127     23.082988     23.082988     46.165977
     -2.117117     19.989044     19.989044     39.978088
     -2.107107     17.507957     17.507957     35.015913
     -2.097097     15.390797     15.390797     30.781594
     -2.087087     13.350887     13.350887     26.701774
     -2.077077     11.209420     11.209420     22.418841
     -2.067067      8.960260      8.960260     17.920520
     -2.057057      6.738605      6.738605     13.477210
     -2.047047      4.731290      4.731290      9.462579
     -2.037037      3.086767      3.086767      6.173535
     -2.027027      1.866406      1.866406      3.732812
     -2.017017      1.045428      1.045428      2.090856
     -2.007007      0.545847      0.545847      1.091694
     -1.996997      0.276670      0.276670      0.553340
     -1.986987      0.164761      0.164761      0.329522
     -1.976977      0.172109      0.172109      0.344217
     -1.966967      0.303086      0.303086      0.606171
     -1.956957      0.605935      0.605935      1.211871
     -1.946947      1.168600      1.168600      2.337201
     -1.936937      2.104555      2.104555      4.209110
     -1.926927      3.523861      3.523861      7.047722
     -1.916917      5.490442      5.490442     10.980884
     -1.906907      7.976718      7.976718     15.953436
     -1.896897     10.835194     10.835194     21.670388
     -1.886887     13.806108     13.806108     27.612215
     -1.876877     16.568352     16.568352     33.136704
     -1.866867     18.822858     18.822858     37.645715
     -1.856857     20.382924     20.382924     40.765848
     -1.846847     21.240667     21.240667     42.481333
     -1.836837     21.582266     21.582266     43.164533
     -1.826827     21.734885     21.734885     43.469771
     -1.816817     22.046953     22.046953     44.093905
     -1.806807     22.733093     22.733093     45.466186
     -1.796797     23.746041     23.746041     47.492082
     -1.786787     24.746889     24.746889     49.493778
     -1.776777     25.211257     25.211257     50.422514
     -1.766767     24.639674     24.639674     49.279348
     -1.756757     22.776119     22.776119     45.552238
     -1.746747     19.726269     19.726269     39.452537
     -1.736737     15.920408     15.920408     31.840816
     -1.726727     11.951377     11.951377     23.902754
     -1.716717      8.378816      8.378816     16.757632
     -1.706707      5.591871      5.591871     11.183743
     -1.696697      3.772151      3.772151      7.544302
     -1.686687      2.937049      2.937049      5.874098
     -1.676677      3.008603      3.008603      6.017205
     -1.666667      3.857896      3.857896      7.715792
     -1.656657      5.307355      5.307355     10.614709
     -1.646647      7.109656      7.109656     14.219311
     -1.636637      8.941726      8.941726     17.883452
     -1.626627     10.445553     10.445553     20.891107
