# EIG2DOS: Utility for SIESTA to obtain the electronic density of states
#  E. Artacho, Apr 1999, A. Garcia, Apr 2012
#  Nick R. Papior, Feb 2017
# ------------------------------------------
# Eigenvalues calculated from a non-polarized calculation
# Eigenvalues read from siesta.EIG
# Kpoint weights read from siesta.KP
# Using smearing parameter:   0.0500
# Using 1000 points in the energy range
# Selected bands: 1 to: 2981
# Emin, Emax in file for selected band(s):    -27.5161927    218.3996100
# Nbands, Nspin, Nk   =   2981     1     1
# E_F                 =    -4.2076 eV --> (shifted to ZERO)
# Broadening          =     0.0500 eV
#
#        E            N(up)  (=)   N(down)         Ntot
     -5.000000     34.965057     34.965057     69.930113
     -4.989990     39.403858     39.403858     78.807716
     -4.979980     43.084180     43.084180     86.168360
     -4.969970     45.411136     45.411136     90.822272
     -4.959960     46.040408     46.040408     92.080816
     -4.949950     45.010714     45.010714     90.021427
     -4.939940     42.755993     42.755993     85.511987
     -4.929930     40.003856     40.003856     80.007712
     -4.919920     37.607843     37.607843     75.215687
     -4.909910     36.367243     36.367243     72.734486
     -4.899900     36.867772     36.867772     73.735545
     -4.889890     39.355107     39.355107     78.710214
     -4.879880     43.651027     43.651027     87.302054
     -4.869870     49.136267     49.136267     98.272535
     -4.859860     54.832523     54.832523    109.665046
     -4.849850     59.597264     59.597264    119.194529
     -4.839840     62.399186     62.399186    124.798372
     -4.829830     62.593428     62.593428    125.186855
     -4.819820     60.096537     60.096537    120.193075
     -4.809810     55.389939     55.389939    110.779879
     -4.799800     49.348453     49.348453     98.696906
     -4.789790     42.963838     42.963838     85.927675
     -4.779780     37.073220     37.073220     74.146441
     -4.769770     32.188149     32.188149     64.376299
     -4.759760     28.463400     28.463400     56.926800
     -4.749750     25.780419     25.780419     51.560838
     -4.739740     23.881647     23.881647     47.763295
     -4.729730     22.490727     22.490727     44.981453
     -4.719720     21.379694     21.379694     42.759388
     -4.709710     20.379738     20.379738     40.759476
     -4.699700     19.361690     19.361690     38.723379
     -4.689690     18.225235     18.225235     36.450470
     -4.679680     16.925320     16.925320     33.850640
     -4.669670     15.533811     15.533811     31.067622
     -4.659660     14.301016     14.301016     28.602032
     -4.649650     13.666849     13.666849     27.333697
     -4.639640     14.186240     14.186240     28.372481
     -4.629630     16.370410     16.370410     32.740821
     -4.619620     20.486682     20.486682     40.973364
     -4.609610     26.387947     26.387947     52.775895
     -4.599600     33.448009     33.448009     66.896017
     -4.589590     40.654482     40.654482     81.308964
     -4.579580     46.857086     46.857086     93.714172
     -4.569570     51.101338     51.101338    102.202675
     -4.559560     52.927372     52.927372    105.854745
     -4.549550     52.512647     52.512647    105.025293
     -4.539540     50.594249     50.594249    101.188498
     -4.529530     48.196838     48.196838     96.393675
     -4.519520     46.271937     46.271937     92.543874
     -4.509510     45.386610     45.386610     90.773220
     -4.499499     45.573100     45.573100     91.146200
     -4.489489     46.381408     46.381408     92.762816
     -4.479479     47.095586     47.095586     94.191173
     -4.469469     47.015406     47.015406     94.030811
     -4.459459     45.691090     45.691090     91.382181
     -4.449449     43.033129     43.033129     86.066259
     -4.439439     39.283086     39.283086     78.566172
     -4.429429     34.892367     34.892367     69.784734
     -4.419419     30.383696     30.383696     60.767391
     -4.409409     26.253349     26.253349     52.506698
     -4.399399     22.926477     22.926477     45.852955
     -4.389389     20.736780     20.736780     41.473559
     -4.379379     19.894397     19.894397     39.788793
     -4.369369     20.434681     20.434681     40.869362
     -4.359359     22.179041     22.179041     44.358083
     -4.349349     24.752936     24.752936     49.505871
     -4.339339     27.681019     27.681019     55.362038
     -4.329329     30.532332     30.532332     61.064665
     -4.319319     33.053140     33.053140     66.106281
     -4.309309     35.225557     35.225557     70.451114
     -4.299299     37.224215     37.224215     74.448429
     -4.289289     39.288387     39.288387     78.576773
     -4.279279     41.560252     41.560252     83.120504
     -4.269269     43.952363     43.952363     87.904727
     -4.259259     46.101144     46.101144     92.202288
     -4.249249     47.440509     47.440509     94.881018
     -4.239239     47.388876     47.388876     94.777752
     -4.229229     45.589814     45.589814     91.179628
     -4.219219     42.104956     42.104956     84.209912
     -4.209209     37.459908     37.459908     74.919815
     -4.199199     32.503368     32.503368     65.006736
     -4.189189     28.131241     28.131241     56.262483
     -4.179179     24.998079     24.998079     49.996157
     -4.169169     23.344046     23.344046     46.688093
     -4.159159     23.004137     23.004137     46.008273
     -4.149149     23.575660     23.575660     47.151320
     -4.139139     24.649641     24.649641     49.299281
     -4.129129     25.991737     25.991737     51.983475
     -4.119119     27.589976     27.589976     55.179951
     -4.109109     29.552084     29.552084     59.104169
     -4.099099     31.909437     31.909437     63.818875
     -4.089089     34.438464     34.438464     68.876928
     -4.079079     36.614530     36.614530     73.229060
     -4.069069     37.753185     37.753185     75.506370
     -4.059059     37.290448     37.290448     74.580896
     -4.049049     35.064905     35.064905     70.129810
     -4.039039     31.450250     31.450250     62.900500
     -4.029029     27.263628     27.263628     54.527255
     -4.019019     23.496559     23.496559     46.993119
     -4.009009     21.003953     21.003953     42.007907
     -3.998999     20.290945     20.290945     40.581891
     -3.988989     21.464846     21.464846     42.929691
     -3.978979     24.325406     24.325406     48.650812
     -3.968969     28.509902     28.509902     57.019803
     -3.958959     33.614520     33.614520     67.229040
     -3.948949     39.260697     39.260697     78.521394
     -3.938939     45.121400     45.121400     90.242800
     -3.928929     50.935040     50.935040    101.870081
     -3.918919     56.513856     56.513856    113.027712
     -3.908909     61.728367     61.728367    123.456733
     -3.898899     66.450239     66.450239    132.900478
     -3.888889     70.466684     70.466684    140.933367
     -3.878879     73.414753     73.414753    146.829506
     -3.868869     74.791727     74.791727    149.583453
     -3.858859     74.066776     74.066776    148.133551
     -3.848849     70.866349     70.866349    141.732698
     -3.838839     65.162015     65.162015    130.324030
     -3.828829     57.378657     57.378657    114.757315
     -3.818819     48.367899     48.367899     96.735797
     -3.808809     39.243178     39.243178     78.486356
     -3.798799     31.125866     31.125866     62.251732
     -3.788789     24.883827     24.883827     49.767653
     -3.778779     20.943384     20.943384     41.886768
     -3.768769     19.226383     19.226383     38.452766
     -3.758759     19.221470     19.221470     38.442939
     -3.748749     20.160295     20.160295     40.320589
     -3.738739     21.245911     21.245911     42.491822
     -3.728729     21.873866     21.873866     43.747731
     -3.718719     21.792483     21.792483     43.584965
     -3.708709     21.163170     21.163170     42.326340
     -3.698699     20.502239     20.502239     41.004477
     -3.688689     20.512570     20.512570     41.025141
     -3.678679     21.845077     21.845077     43.690155
     -3.668669     24.859214     24.859214     49.718429
     -3.658659     29.465044     29.465044     58.930088
     -3.648649     35.111831     35.111831     70.223663
     -3.638639     40.936356     40.936356     81.872712
     -3.628629     46.016212     46.016212     92.032423
     -3.618619     49.624980     49.624980     99.249959
     -3.608609     51.389076     51.389076    102.778152
     -3.598599     51.301751     51.301751    102.603502
     -3.588589     49.623483     49.623483     99.246967
     -3.578579     46.742538     46.742538     93.485076
     -3.568569     43.061677     43.061677     86.123355
     -3.558559     38.934581     38.934581     77.869163
     -3.548549     34.638178     34.638178     69.276356
     -3.538539     30.360710     30.360710     60.721421
     -3.528529     26.202571     26.202571     52.405142
     -3.518519     22.200392     22.200392     44.400783
     -3.508509     18.376893     18.376893     36.753787
     -3.498498     14.797658     14.797658     29.595316
     -3.488488     11.603916     11.603916     23.207831
     -3.478478      9.000640      9.000640     18.001279
     -3.468468      7.203636      7.203636     14.407272
     -3.458458      6.369203      6.369203     12.738405
     -3.448448      6.534659      6.534659     13.069317
     -3.438438      7.591340      7.591340     15.182680
     -3.428428      9.302079      9.302079     18.604158
     -3.418418     11.364467     11.364467     22.728935
     -3.408408     13.505395     13.505395     27.010789
     -3.398398     15.573192     15.573192     31.146385
     -3.388388     17.584466     17.584466     35.168932
     -3.378378     19.697968     19.697968     39.395936
     -3.368368     22.125382     22.125382     44.250764
     -3.358358     25.024399     25.024399     50.048798
     -3.348348     28.424629     28.424629     56.849258
     -3.338338     32.206288     32.206288     64.412577
     -3.328328     36.112085     36.112085     72.224170
     -3.318318     39.761049     39.761049     79.522097
     -3.308308     42.660555     42.660555     85.321111
     -3.298298     44.250356     44.250356     88.500712
     -3.288288     44.015480     44.015480     88.030960
     -3.278278     41.657645     41.657645     83.315291
     -3.268268     37.251554     37.251554     74.503107
     -3.258258     31.290739     31.290739     62.581478
     -3.248248     24.575643     24.575643     49.151286
     -3.238238     17.984587     17.984587     35.969173
     -3.228228     12.232959     12.232959     24.465918
     -3.218218      7.723869      7.723869     15.447738
     -3.208208      4.533761      4.533761      9.067522
     -3.198198      2.506170      2.506170      5.012341
     -3.188188      1.389148      1.389148      2.778297
     -3.178178      0.957261      0.957261      1.914523
     -3.168168      1.087948      1.087948      2.175896
     -3.158158      1.788165      1.788165      3.576329
     -3.148148      3.177583      3.177583      6.355165
     -3.138138      5.433240      5.433240     10.866479
     -3.128128      8.700316      8.700316     17.400633
     -3.118118     12.984009     12.984009     25.968019
     -3.108108     18.056207     18.056207     36.112414
     -3.098098     23.423890     23.423890     46.847781
     -3.088088     28.396602     28.396602     56.793204
     -3.078078     32.251675     32.251675     64.503349
     -3.068068     34.442986     34.442986     68.885972
     -3.058058     34.763930     34.763930     69.527860
     -3.048048     33.386862     33.386862     66.773725
     -3.038038     30.761169     30.761169     61.522337
     -3.028028     27.427252     27.427252     54.854503
     -3.018018     23.846111     23.846111     47.692221
     -3.008008     20.325675     20.325675     40.651351
     -2.997998     17.059691     17.059691     34.119381
     -2.987988     14.228172     14.228172     28.456344
     -2.977978     12.082042     12.082042     24.164084
     -2.967968     10.956828     10.956828     21.913656
     -2.957958     11.206680     11.206680     22.413359
     -2.947948     13.088370     13.088370     26.176739
     -2.937938     16.640621     16.640621     33.281241
     -2.927928     21.602126     21.602126     43.204251
     -2.917918     27.402101     27.402101     54.804201
     -2.907908     33.242087     33.242087     66.484175
     -2.897898     38.262660     38.262660     76.525320
     -2.887888     41.754861     41.754861     83.509723
     -2.877878     43.346985     43.346985     86.693969
     -2.867868     43.092470     43.092470     86.184940
     -2.857858     41.415746     41.415746     82.831493
     -2.847848     38.931608     38.931608     77.863216
     -2.837838     36.212907     36.212907     72.425814
     -2.827828     33.608209     33.608209     67.216419
     -2.817818     31.187240     31.187240     62.374480
     -2.807808     28.826840     28.826840     57.653680
     -2.797798     26.378214     26.378214     52.756429
     -2.787788     23.817711     23.817711     47.635421
     -2.777778     21.300015     21.300015     42.600030
     -2.767768     19.094120     19.094120     38.188241
     -2.757758     17.451960     17.451960     34.903921
     -2.747748     16.495928     16.495928     32.991856
     -2.737738     16.193137     16.193137     32.386275
     -2.727728     16.423295     16.423295     32.846589
     -2.717718     17.082959     17.082959     34.165919
     -2.707708     18.145063     18.145063     36.290126
     -2.697698     19.627118     19.627118     39.254236
     -2.687688     21.492479     21.492479     42.984958
     -2.677678     23.565810     23.565810     47.131620
     -2.667668     25.542271     25.542271     51.084542
     -2.657658     27.106123     27.106123     54.212245
     -2.647648     28.092199     28.092199     56.184398
     -2.637638     28.584188     28.584188     57.168375
     -2.627628     28.879082     28.879082     57.758164
     -2.617618     29.333805     29.333805     58.667609
     -2.607608     30.184864     30.184864     60.369728
     -2.597598     31.441591     31.441591     62.883182
     -2.587588     32.895866     32.895866     65.791731
     -2.577578     34.215174     34.215174     68.430348
     -2.567568     35.049156     35.049156     70.098311
     -2.557558     35.102064     35.102064     70.204129
     -2.547548     34.173742     34.173742     68.347485
     -2.537538     32.200041     32.200041     64.400083
     -2.527528     29.306828     29.306828     58.613655
     -2.517518     25.850979     25.850979     51.701957
     -2.507508     22.399542     22.399542     44.799084
     -2.497497     19.618692     19.618692     39.237383
     -2.487487     18.094327     18.094327     36.188654
     -2.477477     18.150937     18.150937     36.301873
     -2.467467     19.746166     19.746166     39.492332
     -2.457457     22.490605     22.490605     44.981210
     -2.447447     25.790706     25.790706     51.581412
     -2.437437     29.060353     29.060353     58.120705
     -2.427427     31.914890     31.914890     63.829780
     -2.417417     34.264756     34.264756     68.529512
     -2.407407     36.266162     36.266162     72.532323
     -2.397397     38.149414     38.149414     76.298828
     -2.387387     40.005026     40.005026     80.010053
     -2.377377     41.635356     41.635356     83.270712
     -2.367367     42.557519     42.557519     85.115038
     -2.357357     42.174912     42.174912     84.349825
     -2.347347     40.048522     40.048522     80.097044
     -2.337337     36.140949     36.140949     72.281899
     -2.327327     30.913462     30.913462     61.826924
     -2.317317     25.229832     25.229832     50.459663
     -2.307307     20.117009     20.117009     40.234019
     -2.297297     16.493144     16.493144     32.986289
     -2.287287     14.967293     14.967293     29.934587
     -2.277277     15.759206     15.759206     31.518412
     -2.267267     18.726014     18.726014     37.452028
     -2.257257     23.449909     23.449909     46.899818
     -2.247247     29.341101     29.341101     58.682202
     -2.237237     35.727245     35.727245     71.454489
     -2.227227     41.918516     41.918516     83.837033
     -2.217217     47.252196     47.252196     94.504393
     -2.207207     51.132276     51.132276    102.264551
     -2.197197     53.084044     53.084044    106.168088
     -2.187187     52.833056     52.833056    105.666112
     -2.177177     50.391493     50.391493    100.782986
     -2.167167     46.107126     46.107126     92.214252
     -2.157157     40.624530     40.624530     81.249060
     -2.147147     34.739485     34.739485     69.478971
     -2.137137     29.184609     29.184609     58.369219
     -2.127127     24.432135     24.432135     48.864270
     -2.117117     20.602620     20.602620     41.205241
     -2.107107     17.517915     17.517915     35.035830
     -2.097097     14.861957     14.861957     29.723913
     -2.087087     12.360989     12.360989     24.721977
     -2.077077      9.896756      9.896756     19.793512
     -2.067067      7.515681      7.515681     15.031363
     -2.057057      5.357518      5.357518     10.715037
     -2.047047      3.560973      3.560973      7.121945
     -2.037037      2.198021      2.198021      4.396043
     -2.027027      1.257605      1.257605      2.515211
     -2.017017      0.668470      0.668470      1.336941
     -2.007007      0.337140      0.337140      0.674279
     -1.996997      0.180996      0.180996      0.361993
     -1.986987      0.148463      0.148463      0.296925
     -1.976977      0.228075      0.228075      0.456151
     -1.966967      0.451174      0.451174      0.902349
     -1.956957      0.889984      0.889984      1.779967
     -1.946947      1.648027      1.648027      3.296053
     -1.936937      2.837582      2.837582      5.675164
     -1.926927      4.542377      4.542377      9.084753
     -1.916917      6.772663      6.772663     13.545325
     -1.906907      9.429402      9.429402     18.858803
     -1.896897     12.297005     12.297005     24.594009
     -1.886887     15.075282     15.075282     30.150564
     -1.876877     17.444440     17.444440     34.888881
     -1.866867     19.142252     19.142252     38.284504
     -1.856857     20.028510     20.028510     40.057021
     -1.846847     20.118143     20.118143     40.236286
     -1.836837     19.573511     19.573511     39.147023
     -1.826827     18.654153     18.654153     37.308306
     -1.816817     17.631955     17.631955     35.263909
     -1.806807     16.695496     16.695496     33.390992
     -1.796797     15.882330     15.882330     31.764659
     -1.786787     15.076102     15.076102     30.152203
     -1.776777     14.077599     14.077599     28.155198
     -1.766767     12.717563     12.717563     25.435125
     -1.756757     10.952907     10.952907     21.905813
     -1.746747      8.897747      8.897747     17.795493
     -1.736737      6.780506      6.780506     13.561011
     -1.726727      4.860135      4.860135      9.720270
     -1.716717      3.350521      3.350521      6.701043
     -1.706707      2.386090      2.386090      4.772179
     -1.696697      2.029292      2.029292      4.058583
     -1.686687      2.295079      2.295079      4.590157
     -1.676677      3.162655      3.162655      6.325309
     -1.666667      4.560325      4.560325      9.120649
     -1.656657      6.333972      6.333972     12.667944
     -1.646647      8.228726      8.228726     16.457452
     -1.636637      9.914418      9.914418     19.828836
     -1.626627     11.065119     11.065119     22.130239
