# EIG2DOS: Utility for SIESTA to obtain the electronic density of states
#  E. Artacho, Apr 1999, A. Garcia, Apr 2012
#  Nick R. Papior, Feb 2017
# ------------------------------------------
# Eigenvalues calculated from a non-polarized calculation
# Eigenvalues read from siesta.EIG
# Kpoint weights read from siesta.KP
# Using smearing parameter:   0.0500
# Using 1000 points in the energy range
# Selected bands: 1 to: 2981
# Emin, Emax in file for selected band(s):    -27.1683676    218.3449880
# Nbands, Nspin, Nk   =   2981     1     1
# E_F                 =    -4.2601 eV --> (shifted to ZERO)
# Broadening          =     0.0500 eV
#
#        E            N(up)  (=)   N(down)         Ntot
     -5.000000     36.527261     36.527261     73.054522
     -4.989990     39.555204     39.555204     79.110408
     -4.979980     41.895555     41.895555     83.791110
     -4.969970     43.139685     43.139685     86.279370
     -4.959960     43.065818     43.065818     86.131637
     -4.949950     41.689182     41.689182     83.378365
     -4.939940     39.260128     39.260128     78.520255
     -4.929930     36.225721     36.225721     72.451442
     -4.919920     33.176866     33.176866     66.353733
     -4.909910     30.789960     30.789960     61.579920
     -4.899900     29.748948     29.748948     59.497896
     -4.889890     30.621600     30.621600     61.243200
     -4.879880     33.683633     33.683633     67.367266
     -4.869870     38.735796     38.735796     77.471593
     -4.859860     45.010003     45.010003     90.020006
     -4.849850     51.262700     51.262700    102.525400
     -4.839840     56.081824     56.081824    112.163648
     -4.829830     58.316681     58.316681    116.633362
     -4.819820     57.451566     57.451566    114.903132
     -4.809810     53.751067     53.751067    107.502134
     -4.799800     48.114283     48.114283     96.228567
     -4.789790     41.721059     41.721059     83.442117
     -4.779780     35.644431     35.644431     71.288863
     -4.769770     30.589747     30.589747     61.179493
     -4.759760     26.826606     26.826606     53.653211
     -4.749750     24.276492     24.276492     48.552984
     -4.739740     22.666404     22.666404     45.332808
     -4.729730     21.667670     21.667670     43.335340
     -4.719720     20.980076     20.980076     41.960152
     -4.709710     20.361125     20.361125     40.722251
     -4.699700     19.623949     19.623949     39.247899
     -4.689690     18.635058     18.635058     37.270115
     -4.679680     17.336016     17.336016     34.672033
     -4.669670     15.792432     15.792432     31.584863
     -4.659660     14.247463     14.247463     28.494926
     -4.649650     13.140835     13.140835     26.281670
     -4.639640     13.059111     13.059111     26.118222
     -4.629630     14.606900     14.606900     29.213799
     -4.619620     18.220644     18.220644     36.441289
     -4.609610     23.976532     23.976532     47.953064
     -4.599600     31.464148     31.464148     62.928296
     -4.589590     39.796535     39.796535     79.593069
     -4.579580     47.791714     47.791714     95.583428
     -4.569570     54.290902     54.290902    108.581804
     -4.559560     58.503570     58.503570    117.007140
     -4.549550     60.237075     60.237075    120.474151
     -4.539540     59.909848     59.909848    119.819696
     -4.529530     58.346085     58.346085    116.692170
     -4.519520     56.449542     56.449542    112.899085
     -4.509510     54.897330     54.897330    109.794660
     -4.499499     53.964690     53.964690    107.929381
     -4.489489     53.517636     53.517636    107.035273
     -4.479479     53.138877     53.138877    106.277755
     -4.469469     52.315224     52.315224    104.630448
     -4.459459     50.615191     50.615191    101.230381
     -4.449449     47.809409     47.809409     95.618817
     -4.439439     43.917137     43.917137     87.834275
     -4.429429     39.188442     39.188442     78.376885
     -4.419419     34.046627     34.046627     68.093254
     -4.409409     29.015465     29.015465     58.030929
     -4.399399     24.643213     24.643213     49.286426
     -4.389389     21.421618     21.421618     42.843236
     -4.379379     19.697078     19.697078     39.394156
     -4.369369     19.586818     19.586818     39.173636
     -4.359359     20.932676     20.932676     41.865352
     -4.349349     23.327876     23.327876     46.655753
     -4.339339     26.227169     26.227169     52.454339
     -4.329329     29.109050     29.109050     58.218101
     -4.319319     31.627405     31.627405     63.254810
     -4.309309     33.690933     33.690933     67.381866
     -4.299299     35.441873     35.441873     70.883746
     -4.289289     37.148966     37.148966     74.297932
     -4.279279     39.058520     39.058520     78.117041
     -4.269269     41.253698     41.253698     82.507397
     -4.259259     43.565695     43.565695     87.131390
     -4.249249     45.571896     45.571896     91.143791
     -4.239239     46.701126     46.701126     93.402252
     -4.229229     46.431783     46.431783     92.863566
     -4.219219     44.517342     44.517342     89.034683
     -4.209209     41.136076     41.136076     82.272151
     -4.199199     36.876660     36.876660     73.753320
     -4.189189     32.547092     32.547092     65.094184
     -4.179179     28.890552     28.890552     57.781103
     -4.169169     26.345297     26.345297     52.690594
     -4.159159     24.959940     24.959940     49.919880
     -4.149149     24.488720     24.488720     48.977439
     -4.139139     24.598962     24.598962     49.197923
     -4.129129     25.074729     25.074729     50.149459
     -4.119119     25.912906     25.912906     51.825813
     -4.109109     27.266001     27.266001     54.532001
     -4.099099     29.262549     29.262549     58.525098
     -4.089089     31.802046     31.802046     63.604093
     -4.079079     34.447082     34.447082     68.894164
     -4.069069     36.498494     36.498494     72.996989
     -4.059059     37.245447     37.245447     74.490893
     -4.049049     36.277364     36.277364     72.554728
     -4.039039     33.695630     33.695630     67.391259
     -4.029029     30.109555     30.109555     60.219110
     -4.019019     26.419769     26.419769     52.839539
     -4.009009     23.506966     23.506966     47.013933
     -3.998999     21.981560     21.981560     43.963119
     -3.988989     22.092795     22.092795     44.185590
     -3.978979     23.791529     23.791529     47.583059
     -3.968969     26.862110     26.862110     53.724221
     -3.958959     31.030722     31.030722     62.061445
     -3.948949     36.010149     36.010149     72.020298
     -3.938939     41.503519     41.503519     83.007037
     -3.928929     47.213307     47.213307     94.426615
     -3.918919     52.875663     52.875663    105.751327
     -3.908909     58.295127     58.295127    116.590255
     -3.898899     63.335058     63.335058    126.670116
     -3.888889     67.844513     67.844513    135.689025
     -3.878879     71.554555     71.554555    143.109109
     -3.868869     74.015725     74.015725    148.031450
     -3.858859     74.642624     74.642624    149.285247
     -3.848849     72.880077     72.880077    145.760153
     -3.838839     68.436199     68.436199    136.872398
     -3.828829     61.480345     61.480345    122.960690
     -3.818819     52.706890     52.706890    105.413779
     -3.808809     43.220049     43.220049     86.440098
     -3.798799     34.272781     34.272781     68.545562
     -3.788789     26.953716     26.953716     53.907432
     -3.778779     21.931099     21.931099     43.862198
     -3.768769     19.330815     19.330815     38.661631
     -3.758759     18.770056     18.770056     37.540112
     -3.748749     19.517991     19.517991     39.035983
     -3.738739     20.726676     20.726676     41.453351
     -3.728729     21.669346     21.669346     43.338692
     -3.718719     21.930552     21.930552     43.861105
     -3.708709     21.505723     21.505723     43.011447
     -3.698699     20.785021     20.785021     41.570042
     -3.688689     20.419581     20.419581     40.839162
     -3.678679     21.098282     21.098282     42.196563
     -3.668669     23.295259     23.295259     46.590518
     -3.658659     27.070078     27.070078     54.140156
     -3.648649     31.997771     31.997771     63.995542
     -3.638639     37.265681     37.265681     74.531362
     -3.628629     41.907850     41.907850     83.815700
     -3.618619     45.086652     45.086652     90.173304
     -3.608609     46.311606     46.311606     92.623213
     -3.598599     45.521549     45.521549     91.043097
     -3.588589     43.026196     43.026196     86.052393
     -3.578579     39.361573     39.361573     78.723145
     -3.568569     35.128468     35.128468     70.256936
     -3.558559     30.859003     30.859003     61.718007
     -3.548549     26.925731     26.925731     53.851461
     -3.538539     23.496301     23.496301     46.992602
     -3.528529     20.541143     20.541143     41.082285
     -3.518519     17.899438     17.899438     35.798875
     -3.508509     15.387810     15.387810     30.775621
     -3.498498     12.910003     12.910003     25.820006
     -3.488488     10.519163     10.519163     21.038326
     -3.478478      8.407016      8.407016     16.814033
     -3.468468      6.830717      6.830717     13.661435
     -3.458458      6.013497      6.013497     12.026994
     -3.448448      6.057390      6.057390     12.114779
     -3.438438      6.893467      6.893467     13.786934
     -3.428428      8.281992      8.281992     16.563985
     -3.418418      9.866755      9.866755     19.733509
     -3.408408     11.277469     11.277469     22.554938
     -3.398398     12.255633     12.255633     24.511267
     -3.388388     12.759750     12.759750     25.519500
     -3.378378     13.002530     13.002530     26.005061
     -3.368368     13.395974     13.395974     26.791949
     -3.358358     14.420485     14.420485     28.840971
     -3.348348     16.466579     16.466579     32.933159
     -3.338338     19.702298     19.702298     39.404597
     -3.328328     23.998069     23.998069     47.996138
     -3.318318     28.915252     28.915252     57.830504
     -3.308308     33.755480     33.755480     67.510960
     -3.298298     37.673684     37.673684     75.347369
     -3.288288     39.856199     39.856199     79.712398
     -3.278278     39.738403     39.738403     79.476807
     -3.268268     37.195059     37.195059     74.390119
     -3.258258     32.618130     32.618130     65.236260
     -3.248248     26.830586     26.830586     53.661173
     -3.238238     20.859123     20.859123     41.718245
     -3.228228     15.655699     15.655699     31.311398
     -3.218218     11.873068     11.873068     23.746136
     -3.208208      9.759325      9.759325     19.518650
     -3.198198      9.177081      9.177081     18.354162
     -3.188188      9.713865      9.713865     19.427731
     -3.178178     10.843018     10.843018     21.686036
     -3.168168     12.100534     12.100534     24.201067
     -3.158158     13.242106     13.242106     26.484211
     -3.148148     14.335035     14.335035     28.670071
     -3.138138     15.740029     15.740029     31.480058
     -3.128128     17.965236     17.965236     35.930473
     -3.118118     21.426662     21.426662     42.853325
     -3.108108     26.201558     26.201558     52.403115
     -3.098098     31.883785     31.883785     63.767570
     -3.088088     37.622665     37.622665     75.245330
     -3.078078     42.353178     42.353178     84.706356
     -3.068068     45.135629     45.135629     90.271257
     -3.058058     45.462752     45.462752     90.925504
     -3.048048     43.399853     43.399853     86.799707
     -3.038038     39.502724     39.502724     79.005449
     -3.028028     34.568581     34.568581     69.137161
     -3.018018     29.353414     29.353414     58.706828
     -3.008008     24.389390     24.389390     48.778779
     -2.997998     19.963014     19.963014     39.926029
     -2.987988     16.219688     16.219688     32.439375
     -2.977978     13.301927     13.301927     26.603854
     -2.967968     11.432939     11.432939     22.865879
     -2.957958     10.905838     10.905838     21.811676
     -2.947948     11.992252     11.992252     23.984504
     -2.937938     14.814932     14.814932     29.629864
     -2.927928     19.235163     19.235163     38.470326
     -2.917918     24.799083     24.799083     49.598167
     -2.907908     30.773929     30.773929     61.547859
     -2.897898     36.282516     36.282516     72.565032
     -2.887888     40.509342     40.509342     81.018684
     -2.877878     42.914679     42.914679     85.829357
     -2.867868     43.375150     43.375150     86.750300
     -2.857858     42.188195     42.188195     84.376390
     -2.847848     39.931877     39.931877     79.863754
     -2.837838     37.236668     37.236668     74.473336
     -2.827828     34.567917     34.567917     69.135835
     -2.817818     32.112166     32.112166     64.224332
     -2.807808     29.807932     29.807932     59.615864
     -2.797798     27.488699     27.488699     54.977397
     -2.787788     25.051559     25.051559     50.103119
     -2.777778     22.558586     22.558586     45.117171
     -2.767768     20.222408     20.222408     40.444815
     -2.757758     18.297044     18.297044     36.594089
     -2.747748     16.949352     16.949352     33.898705
     -2.737738     16.193639     16.193639     32.387278
     -2.727728     15.927579     15.927579     31.855157
     -2.717718     16.039002     16.039002     32.078004
     -2.707708     16.504459     16.504459     33.008919
     -2.697698     17.405102     17.405102     34.810205
     -2.687688     18.842704     18.842704     37.685407
     -2.677678     20.811559     20.811559     41.623117
     -2.667668     23.119811     23.119811     46.239622
     -2.657658     25.426879     25.426879     50.853757
     -2.647648     27.386730     27.386730     54.773461
     -2.637638     28.811787     28.811787     57.623574
     -2.627628     29.753419     29.753419     59.506839
     -2.617618     30.448220     30.448220     60.896440
     -2.607608     31.167310     31.167310     62.334620
     -2.597598     32.064870     32.064870     64.129739
     -2.587588     33.110414     33.110414     66.220828
     -2.577578     34.121647     34.121647     68.243293
     -2.567568     34.848535     34.848535     69.697070
     -2.557558     35.045452     35.045452     70.090904
     -2.547548     34.508212     34.508212     69.016424
     -2.537538     33.100939     33.100939     66.201877
     -2.527528     30.806067     30.806067     61.612135
     -2.517518     27.793462     27.793462     55.586925
     -2.507508     24.460223     24.460223     48.920447
     -2.497497     21.386191     21.386191     42.772381
     -2.487487     19.191956     19.191956     38.383912
     -2.477477     18.346615     18.346615     36.693229
     -2.467467     19.009323     19.009323     38.018647
     -2.457457     20.979397     20.979397     41.958794
     -2.447447     23.781491     23.781491     47.562982
     -2.437437     26.851478     26.851478     53.702956
     -2.427427     29.743153     29.743153     59.486306
     -2.417417     32.265327     32.265327     64.530655
     -2.407407     34.488206     34.488206     68.976411
     -2.397397     36.615952     36.615952     73.231905
     -2.387387     38.784890     38.784890     77.569779
     -2.377377     40.886150     40.886150     81.772300
     -2.367367     42.508063     42.508063     85.016125
     -2.357357     43.043685     43.043685     86.087370
     -2.347347     41.930446     41.930446     83.860893
     -2.337337     38.918168     38.918168     77.836335
     -2.327327     34.238915     34.238915     68.477830
     -2.317317     28.595790     28.595790     57.191580
     -2.307307     22.976200     22.976200     45.952401
     -2.297297     18.376321     18.376321     36.752642
     -2.287287     15.551086     15.551086     31.102172
     -2.277277     14.870744     14.870744     29.741489
     -2.267267     16.302854     16.302854     32.605709
     -2.257257     19.488672     19.488672     38.977344
     -2.247247     23.864889     23.864889     47.729779
     -2.237237     28.788356     28.788356     57.576712
     -2.227227     33.636217     33.636217     67.272434
     -2.217217     37.868071     37.868071     75.736143
     -2.207207     41.051408     41.051408     82.102815
     -2.197197     42.867027     42.867027     85.734053
     -2.187187     43.119898     43.119898     86.239796
     -2.177177     41.772106     41.772106     83.544212
     -2.167167     38.987380     38.987380     77.974760
     -2.157157     35.148138     35.148138     70.296275
     -2.147147     30.801959     30.801959     61.603918
     -2.137137     26.527885     26.527885     53.055770
     -2.127127     22.767114     22.767114     45.534228
     -2.117117     19.698436     19.698436     39.396873
     -2.107107     17.224790     17.224790     34.449580
     -2.097097     15.077723     15.077723     30.155446
     -2.087087     12.980606     12.980606     25.961212
     -2.077077     10.783663     10.783663     21.567327
     -2.067067      8.509965      8.509965     17.019929
     -2.057057      6.308981      6.308981     12.617963
     -2.047047      4.362730      4.362730      8.725461
     -2.037037      2.801899      2.801899      5.603798
     -2.027027      1.667508      1.667508      3.335016
     -2.017017      0.920126      0.920126      1.840252
     -2.007007      0.476071      0.476071      0.952141
     -1.996997      0.246680      0.246680      0.493360
     -1.986987      0.166565      0.166565      0.333130
     -1.976977      0.208607      0.208607      0.417214
     -1.966967      0.389625      0.389625      0.779251
     -1.956957      0.769901      0.769901      1.539803
     -1.946947      1.445275      1.445275      2.890550
     -1.936937      2.527234      2.527234      5.054467
     -1.926927      4.108259      4.108259      8.216517
     -1.916917      6.217549      6.217549     12.435098
     -1.906907      8.782234      8.782234     17.564469
     -1.896897     11.613955     11.613955     23.227910
     -1.886887     14.434393     14.434393     28.868787
     -1.876877     16.937491     16.937491     33.874983
     -1.866867     18.869952     18.869952     37.739904
     -1.856857     20.104587     20.104587     40.209175
     -1.846847     20.684344     20.684344     41.368688
     -1.836837     20.821699     20.821699     41.643399
     -1.826827     20.844054     20.844054     41.688109
     -1.816817     21.085871     21.085871     42.171742
     -1.806807     21.750380     21.750380     43.500760
     -1.796797     22.792511     22.792511     45.585022
     -1.786787     23.887518     23.887518     47.775035
     -1.776777     24.523767     24.523767     49.047533
     -1.766767     24.196534     24.196534     48.393068
     -1.756757     22.618196     22.618196     45.236391
     -1.746747     19.843254     19.843254     39.686509
     -1.736737     16.250417     16.250417     32.500834
     -1.726727     12.401199     12.401199     24.802399
     -1.716717      8.854778      8.854778     17.709555
     -1.706707      6.026606      6.026606     12.053212
     -1.696697      4.136803      4.136803      8.273606
     -1.686687      3.237120      3.237120      6.474239
     -1.676677      3.268834      3.268834      6.537669
     -1.666667      4.104115      4.104115      8.208230
     -1.656657      5.551989      5.551989     11.103978
     -1.646647      7.345055      7.345055     14.690111
     -1.636637      9.142763      9.142763     18.285526
     -1.626627     10.580213     10.580213     21.160426
