# EIG2DOS: Utility for SIESTA to obtain the electronic density of states
#  E. Artacho, Apr 1999, A. Garcia, Apr 2012
#  Nick R. Papior, Feb 2017
# ------------------------------------------
# Eigenvalues calculated from a non-polarized calculation
# Eigenvalues read from siesta.EIG
# Kpoint weights read from siesta.KP
# Using smearing parameter:   0.0500
# Using 1000 points in the energy range
# Selected bands: 1 to: 2981
# Emin, Emax in file for selected band(s):    -27.1873646    218.3562670
# Nbands, Nspin, Nk   =   2981     1     1
# E_F                 =    -4.2490 eV --> (shifted to ZERO)
# Broadening          =     0.0500 eV
#
#        E            N(up)  (=)   N(down)         Ntot
     -5.000000     33.350261     33.350261     66.700522
     -4.989990     37.324538     37.324538     74.649076
     -4.979980     40.797366     40.797366     81.594732
     -4.969970     43.249127     43.249127     86.498254
     -4.959960     44.269792     44.269792     88.539583
     -4.949950     43.690887     43.690887     87.381774
     -4.939940     41.653319     41.653319     83.306638
     -4.929930     38.594233     38.594233     77.188466
     -4.919920     35.172415     35.172415     70.344830
     -4.909910     32.165192     32.165192     64.330384
     -4.899900     30.354506     30.354506     60.709012
     -4.889890     30.395151     30.395151     60.790301
     -4.879880     32.654904     32.654904     65.309808
     -4.869870     37.049307     37.049307     74.098613
     -4.859860     42.942217     42.942217     85.884435
     -4.849850     49.201160     49.201160     98.402320
     -4.839840     54.449593     54.449593    108.899185
     -4.829830     57.459019     57.459019    114.918039
     -4.819820     57.531517     57.531517    115.063033
     -4.809810     54.704516     54.704516    109.409032
     -4.799800     49.687484     49.687484     99.374969
     -4.789790     43.571398     43.571398     87.142796
     -4.779780     37.455803     37.455803     74.911606
     -4.769770     32.154366     32.154366     64.308732
     -4.759760     28.070335     28.070335     56.140669
     -4.749750     25.234614     25.234614     50.469227
     -4.739740     23.433622     23.433622     46.867244
     -4.729730     22.346415     22.346415     44.692830
     -4.719720     21.642662     21.642662     43.285325
     -4.709710     21.032374     21.032374     42.064747
     -4.699700     20.284357     20.284357     40.568713
     -4.689690     19.239297     19.239297     38.478594
     -4.679680     17.837222     17.837222     35.674445
     -4.669670     16.161404     16.161404     32.322809
     -4.659660     14.479431     14.479431     28.958861
     -4.649650     13.250004     13.250004     26.500008
     -4.639640     13.069475     13.069475     26.138951
     -4.629630     14.552319     14.552319     29.104637
     -4.619620     18.164010     18.164010     36.328021
     -4.609610     24.044929     24.044929     48.089857
     -4.599600     31.877435     31.877435     63.754870
     -4.589590     40.852372     40.852372     81.704743
     -4.579580     49.777486     49.777486     99.554972
     -4.569570     57.331257     57.331257    114.662514
     -4.559560     62.407001     62.407001    124.814003
     -4.549550     64.437974     64.437974    128.875948
     -4.539540     63.576719     63.576719    127.153437
     -4.529530     60.641563     60.641563    121.283126
     -4.519520     56.832089     56.832089    113.664179
     -4.509510     53.315757     53.315757    106.631514
     -4.499499     50.848636     50.848636    101.697273
     -4.489489     49.579011     49.579011     99.158022
     -4.479479     49.097448     49.097448     98.194895
     -4.469469     48.685197     48.685197     97.370393
     -4.459459     47.633380     47.633380     95.266759
     -4.449449     45.495982     45.495982     90.991964
     -4.439439     42.195809     42.195809     84.391618
     -4.429429     37.984962     37.984962     75.969924
     -4.419419     33.322645     33.322645     66.645290
     -4.409409     28.745319     28.745319     57.490639
     -4.399399     24.772159     24.772159     49.544318
     -4.389389     21.843543     21.843543     43.687086
     -4.379379     20.266779     20.266779     40.533557
     -4.369369     20.155837     20.155837     40.311674
     -4.359359     21.384636     21.384636     42.769273
     -4.349349     23.593869     23.593869     47.187738
     -4.339339     26.277479     26.277479     52.554958
     -4.329329     28.933067     28.933067     57.866134
     -4.319319     31.219911     31.219911     62.439822
     -4.309309     33.057303     33.057303     66.114605
     -4.299299     34.620541     34.620541     69.241083
     -4.289289     36.235025     36.235025     72.470050
     -4.279279     38.206696     38.206696     76.413391
     -4.269269     40.647606     40.647606     81.295212
     -4.259259     43.359808     43.359808     86.719616
     -4.249249     45.831428     45.831428     91.662856
     -4.239239     47.370035     47.370035     94.740071
     -4.229229     47.345902     47.345902     94.691805
     -4.219219     45.456454     45.456454     90.912908
     -4.209209     41.890510     41.890510     83.781019
     -4.199199     37.301145     37.301145     74.602291
     -4.189189     32.586101     32.586101     65.172201
     -4.179179     28.575228     28.575228     57.150456
     -4.169169     25.772032     25.772032     51.544065
     -4.159159     24.261188     24.261188     48.522376
     -4.149149     23.801655     23.801655     47.603310
     -4.139139     24.033942     24.033942     48.067883
     -4.129129     24.687329     24.687329     49.374658
     -4.119119     25.688695     25.688695     51.377389
     -4.109109     27.129403     27.129403     54.258806
     -4.099099     29.113879     29.113879     58.227758
     -4.089089     31.570834     31.570834     63.141668
     -4.079079     34.135090     34.135090     68.270181
     -4.069069     36.185307     36.185307     72.370615
     -4.059059     37.048235     37.048235     74.096470
     -4.049049     36.284827     36.284827     72.569654
     -4.039039     33.914698     33.914698     67.829396
     -4.029029     30.457561     30.457561     60.915122
     -4.019019     26.766808     26.766808     53.533615
     -4.009009     23.741938     23.741938     47.483876
     -3.998999     22.062268     22.062268     44.124536
     -3.988989     22.053424     22.053424     44.106848
     -3.978979     23.709215     23.709215     47.418430
     -3.968969     26.807904     26.807904     53.615808
     -3.958959     31.034369     31.034369     62.068738
     -3.948949     36.053401     36.053401     72.106803
     -3.938939     41.536623     41.536623     83.073247
     -3.928929     47.178434     47.178434     94.356869
     -3.918919     52.724446     52.724446    105.448892
     -3.908909     57.998550     57.998550    115.997101
     -3.898899     62.891642     62.891642    125.783285
     -3.888889     67.290999     67.290999    134.581997
     -3.878879     70.974889     70.974889    141.949778
     -3.868869     73.537495     73.537495    147.074990
     -3.858859     74.412197     74.412197    148.824394
     -3.848849     73.018878     73.018878    146.037756
     -3.838839     68.993878     68.993878    137.987757
     -3.828829     62.406604     62.406604    124.813209
     -3.818819     53.857248     53.857248    107.714496
     -3.808809     44.395134     44.395134     88.790268
     -3.798799     35.275413     35.275413     70.550825
     -3.788789     27.641852     27.641852     55.283704
     -3.778779     22.249492     22.249492     44.498983
     -3.768769     19.314950     19.314950     38.629901
     -3.758759     18.525726     18.525726     37.051453
     -3.748749     19.185165     19.185165     38.370331
     -3.738739     20.437758     20.437758     40.875517
     -3.728729     21.511639     21.511639     43.023278
     -3.718719     21.921795     21.921795     43.843589
     -3.708709     21.589619     21.589619     43.179238
     -3.698699     20.849784     20.849784     41.699568
     -3.688689     20.336510     20.336510     40.673020
     -3.678679     20.770199     20.770199     41.540397
     -3.668669     22.698744     22.698744     45.397487
     -3.658659     26.274380     26.274380     52.548760
     -3.648649     31.150018     31.150018     62.300037
     -3.638639     36.545605     36.545605     73.091210
     -3.628629     41.469733     41.469733     82.939466
     -3.618619     45.012845     45.012845     90.025689
     -3.608609     46.595803     46.595803     93.191606
     -3.598599     46.084349     46.084349     92.168698
     -3.588589     43.750356     43.750356     87.500712
     -3.578579     40.128935     40.128935     80.257870
     -3.568569     35.846051     35.846051     71.692102
     -3.558559     31.471460     31.471460     62.942921
     -3.548549     27.417405     27.417405     54.834810
     -3.538539     23.885973     23.885973     47.771946
     -3.528529     20.870122     20.870122     41.740244
     -3.518519     18.213777     18.213777     36.427554
     -3.508509     15.718800     15.718800     31.437600
     -3.498498     13.260086     13.260086     26.520171
     -3.488488     10.859274     10.859274     21.718547
     -3.478478      8.686302      8.686302     17.372605
     -3.468468      6.994295      6.994295     13.988589
     -3.458458      6.021727      6.021727     12.043455
     -3.448448      5.901220      5.901220     11.802440
     -3.438438      6.602252      6.602252     13.204504
     -3.428428      7.921232      7.921232     15.842464
     -3.418418      9.524131      9.524131     19.048263
     -3.408408     11.038442     11.038442     22.076885
     -3.398398     12.174631     12.174631     24.349263
     -3.388388     12.836742     12.836742     25.673484
     -3.378378     13.174104     13.174104     26.348208
     -3.368368     13.544740     13.544740     27.089479
     -3.358358     14.400342     14.400342     28.800683
     -3.348348     16.138210     16.138210     32.276419
     -3.338338     18.973464     18.973464     37.946928
     -3.328328     22.863126     22.863126     45.726252
     -3.318318     27.484676     27.484676     54.969351
     -3.308308     32.261693     32.261693     64.523386
     -3.298298     36.441666     36.441666     72.883333
     -3.288288     39.241077     39.241077     78.482154
     -3.278278     40.051588     40.051588     80.103176
     -3.268268     38.650226     38.650226     77.300453
     -3.258258     35.316040     35.316040     70.632081
     -3.248248     30.771925     30.771925     61.543851
     -3.238238     25.949794     25.949794     51.899589
     -3.228228     21.673765     21.673765     43.347531
     -3.218218     18.404528     18.404528     36.809055
     -3.208208     16.155792     16.155792     32.311583
     -3.198198     14.603051     14.603051     29.206103
     -3.188188     13.312778     13.312778     26.625555
     -3.178178     11.976902     11.976902     23.953804
     -3.168168     10.557302     10.557302     21.114603
     -3.158158      9.304419      9.304419     18.608838
     -3.148148      8.672596      8.672596     17.345193
     -3.138138      9.181666      9.181666     18.363331
     -3.128128     11.266839     11.266839     22.533677
     -3.118118     15.138632     15.138632     30.277265
     -3.108108     20.667650     20.667650     41.335300
     -3.098098     27.322793     27.322793     54.645586
     -3.088088     34.206984     34.206984     68.413968
     -3.078078     40.222038     40.222038     80.444075
     -3.068068     44.342017     44.342017     88.684034
     -3.058058     45.906024     45.906024     91.812049
     -3.048048     44.805750     44.805750     89.611500
     -3.038038     41.477501     41.477501     82.955002
     -3.028028     36.703643     36.703643     73.407286
     -3.018018     31.327323     31.327323     62.654647
     -3.008008     26.021731     26.021731     52.043462
     -2.997998     21.207667     21.207667     42.415334
     -2.987988     17.117505     17.117505     34.235011
     -2.977978     13.925539     13.925539     27.851077
     -2.967968     11.848035     11.848035     23.696069
     -2.957958     11.155995     11.155995     22.311990
     -2.947948     12.101132     12.101132     24.202263
     -2.937938     14.795848     14.795848     29.591696
     -2.927928     19.101107     19.101107     38.202214
     -2.917918     24.570653     24.570653     49.141307
     -2.907908     30.484712     30.484712     60.969423
     -2.897898     35.981061     35.981061     71.962122
     -2.887888     40.255899     40.255899     80.511799
     -2.877878     42.771382     42.771382     85.542765
     -2.867868     43.390913     43.390913     86.781826
     -2.857858     42.382985     42.382985     84.765971
     -2.847848     40.286919     40.286919     80.573837
     -2.837838     37.695714     37.695714     75.391427
     -2.827828     35.050211     35.050211     70.100421
     -2.817818     32.532485     32.532485     65.064970
     -2.807808     30.096218     30.096218     60.192436
     -2.797798     27.602928     27.602928     55.205855
     -2.787788     24.981691     24.981691     49.963382
     -2.777778     22.323694     22.323694     44.647388
     -2.767768     19.864762     19.864762     39.729525
     -2.757758     17.875354     17.875354     35.750707
     -2.747748     16.530619     16.530619     33.061237
     -2.737738     15.841984     15.841984     31.683969
     -2.727728     15.690471     15.690471     31.380941
     -2.717718     15.935021     15.935021     31.870041
     -2.707708     16.518654     16.518654     33.037307
     -2.697698     17.495491     17.495491     34.990983
     -2.687688     18.955498     18.955498     37.910996
     -2.677678     20.897272     20.897272     41.794543
     -2.667668     23.141860     23.141860     46.283719
     -2.657658     25.359463     25.359463     50.718927
     -2.647648     27.206381     27.206381     54.412762
     -2.637638     28.491660     28.491660     56.983319
     -2.627628     29.267696     29.267696     58.535392
     -2.617618     29.786642     29.786642     59.573284
     -2.607608     30.351908     30.351908     60.703817
     -2.597598     31.158017     31.158017     62.316033
     -2.587588     32.207840     32.207840     64.415681
     -2.577578     33.332909     33.332909     66.665819
     -2.567568     34.273942     34.273942     68.547884
     -2.557558     34.757937     34.757937     69.515873
     -2.547548     34.542456     34.542456     69.084911
     -2.537538     33.446631     33.446631     66.893261
     -2.527528     31.402893     31.402893     62.805786
     -2.517518     28.531143     28.531143     57.062287
     -2.507508     25.191106     25.191106     50.382212
     -2.497497     21.954828     21.954828     43.909656
     -2.487487     19.476577     19.476577     38.953153
     -2.477477     18.297828     18.297828     36.595655
     -2.467467     18.668843     18.668843     37.337686
     -2.457457     20.468462     20.468462     40.936924
     -2.447447     23.261744     23.261744     46.523487
     -2.437437     26.473421     26.473421     52.946843
     -2.427427     29.602299     29.602299     59.204597
     -2.417417     32.381181     32.381181     64.762362
     -2.407407     34.809887     34.809887     69.619774
     -2.397397     37.047765     37.047765     74.095529
     -2.387387     39.220854     39.220854     78.441708
     -2.377377     41.243743     41.243743     82.487485
     -2.367367     42.753414     42.753414     85.506828
     -2.357357     43.201016     43.201016     86.402031
     -2.347347     42.070403     42.070403     84.140807
     -2.337337     39.126829     39.126829     78.253657
     -2.327327     34.579724     34.579724     69.159448
     -2.317317     29.082605     29.082605     58.165209
     -2.307307     23.570513     23.570513     47.141026
     -2.297297     19.007797     19.007797     38.015594
     -2.287287     16.147591     16.147591     32.295182
     -2.277277     15.380910     15.380910     30.761821
     -2.267267     16.701701     16.701701     33.403403
     -2.257257     19.768328     19.768328     39.536657
     -2.247247     24.020315     24.020315     48.040630
     -2.237237     28.808727     28.808727     57.617454
     -2.227227     33.507590     33.507590     67.015179
     -2.217217     37.585775     37.585775     75.171551
     -2.207207     40.634727     40.634727     81.269455
     -2.197197     42.366629     42.366629     84.733259
     -2.187187     42.611313     42.611313     85.222627
     -2.177177     41.335569     41.335569     82.671139
     -2.167167     38.682352     38.682352     77.364704
     -2.157157     34.995080     34.995080     69.990160
     -2.147147     30.781115     30.781115     61.562231
     -2.137137     26.595684     26.595684     53.191367
     -2.127127     22.880756     22.880756     45.761513
     -2.117117     19.834861     19.834861     39.669722
     -2.107107     17.384473     17.384473     34.768946
     -2.097097     15.273684     15.273684     30.547367
     -2.087087     13.221669     13.221669     26.443339
     -2.077077     11.062946     11.062946     22.125892
     -2.067067      8.804461      8.804461     17.608921
     -2.057057      6.588445      6.588445     13.176890
     -2.047047      4.601176      4.601176      9.202353
     -2.037037      2.985281      2.985281      5.970563
     -2.027027      1.794920      1.794920      3.589840
     -2.017017      0.999867      0.999867      1.999734
     -2.007007      0.519725      0.519725      1.039451
     -1.996997      0.263807      0.263807      0.527614
     -1.986987      0.160991      0.160991      0.321981
     -1.976977      0.176156      0.176156      0.352312
     -1.966967      0.317177      0.317177      0.634354
     -1.956957      0.636823      0.636823      1.273646
     -1.946947      1.229778      1.229778      2.459557
     -1.936937      2.220846      2.220846      4.441692
     -1.926927      3.740133      3.740133      7.480266
     -1.916917      5.886156      5.886156     11.772311
     -1.906907      8.685884      8.685884     17.371768
     -1.896897     12.065838     12.065838     24.131675
     -1.886887     15.845315     15.845315     31.690630
     -1.876877     19.752862     19.752862     39.505724
     -1.866867     23.458457     23.458457     46.916914
     -1.856857     26.614329     26.614329     53.228658
     -1.846847     28.904392     28.904392     57.808784
     -1.836837     30.103670     30.103670     60.207340
     -1.826827     30.136470     30.136470     60.272939
     -1.816817     29.104732     29.104732     58.209464
     -1.806807     27.257943     27.257943     54.515887
     -1.796797     24.904608     24.904608     49.809215
     -1.786787     22.305772     22.305772     44.611544
     -1.776777     19.609175     19.609175     39.218351
     -1.766767     16.858493     16.858493     33.716986
     -1.756757     14.061950     14.061950     28.123900
     -1.746747     11.267411     11.267411     22.534823
     -1.736737      8.594419      8.594419     17.188839
     -1.726727      6.210744      6.210744     12.421489
     -1.716717      4.279794      4.279794      8.559589
     -1.706707      2.917852      2.917852      5.835704
     -1.696697      2.183138      2.183138      4.366275
     -1.686687      2.090343      2.090343      4.180686
     -1.676677      2.626203      2.626203      5.252406
     -1.666667      3.744309      3.744309      7.488617
     -1.656657      5.336624      5.336624     10.673248
     -1.646647      7.202097      7.202097     14.404195
     -1.636637      9.044512      9.044512     18.089024
     -1.626627     10.522876     10.522876     21.045753
