# EIG2DOS: Utility for SIESTA to obtain the electronic density of states
#  E. Artacho, Apr 1999, A. Garcia, Apr 2012
#  Nick R. Papior, Feb 2017
# ------------------------------------------
# Eigenvalues calculated from a non-polarized calculation
# Eigenvalues read from siesta.EIG
# Kpoint weights read from siesta.KP
# Using smearing parameter:   0.0500
# Using 1000 points in the energy range
# Selected bands: 1 to: 2981
# Emin, Emax in file for selected band(s):    -27.0981158    218.3602640
# Nbands, Nspin, Nk   =   2981     1     1
# E_F                 =    -4.2463 eV --> (shifted to ZERO)
# Broadening          =     0.0500 eV
#
#        E            N(up)  (=)   N(down)         Ntot
     -5.000000     33.363793     33.363793     66.727585
     -4.989990     37.432655     37.432655     74.865309
     -4.979980     41.060246     41.060246     82.120492
     -4.969970     43.650967     43.650967     87.301933
     -4.959960     44.745249     44.745249     89.490498
     -4.949950     44.157378     44.157378     88.314756
     -4.939940     42.039571     42.039571     84.079142
     -4.929930     38.858222     38.858222     77.716443
     -4.919920     35.307235     35.307235     70.614471
     -4.909910     32.195581     32.195581     64.391162
     -4.899900     30.327439     30.327439     60.654879
     -4.889890     30.366368     30.366368     60.732736
     -4.879880     32.672469     32.672469     65.344938
     -4.869870     37.137056     37.137056     74.274112
     -4.859860     43.088865     43.088865     86.177730
     -4.849850     49.361397     49.361397     98.722794
     -4.839840     54.559584     54.559584    109.119169
     -4.829830     57.461494     57.461494    114.922987
     -4.819820     57.399707     57.399707    114.799414
     -4.809810     54.453910     54.453910    108.907820
     -4.799800     49.370306     49.370306     98.740612
     -4.789790     43.257330     43.257330     86.514660
     -4.779780     37.208386     37.208386     74.416773
     -4.769770     32.012854     32.012854     64.025708
     -4.759760     28.042565     28.042565     56.085130
     -4.749750     25.300903     25.300903     50.601806
     -4.739740     23.557699     23.557699     47.115398
     -4.729730     22.487998     22.487998     44.975996
     -4.719720     21.767125     21.767125     43.534250
     -4.709710     21.115171     21.115171     42.230342
     -4.699700     20.310460     20.310460     40.620920
     -4.689690     19.199634     19.199634     38.399268
     -4.679680     17.724325     17.724325     35.448650
     -4.669670     15.965351     15.965351     31.930701
     -4.659660     14.183938     14.183938     28.367875
     -4.649650     12.828003     12.828003     25.656006
     -4.639640     12.477380     12.477380     24.954761
     -4.629630     13.721672     13.721672     27.443344
     -4.619620     16.989053     16.989053     33.978106
     -4.609610     22.367881     22.367881     44.735762
     -4.599600     29.482181     29.482181     58.964361
     -4.589590     37.487970     37.487970     74.975941
     -4.579580     45.233976     45.233976     90.467951
     -4.569570     51.569600     51.569600    103.139199
     -4.559560     55.704333     55.704333    111.408667
     -4.549550     57.471333     57.471333    114.942665
     -4.539540     57.366452     57.366452    114.732905
     -4.529530     56.327384     56.327384    112.654768
     -4.519520     55.341105     55.341105    110.682210
     -4.509510     55.052681     55.052681    110.105363
     -4.499499     55.545404     55.545404    111.090808
     -4.489489     56.373429     56.373429    112.746858
     -4.479479     56.804985     56.804985    113.609971
     -4.469469     56.144464     56.144464    112.288929
     -4.459459     53.987895     53.987895    107.975789
     -4.449449     50.323964     50.323964    100.647928
     -4.439439     45.479785     45.479785     90.959569
     -4.429429     39.977704     39.977704     79.955408
     -4.419419     34.388013     34.388013     68.776026
     -4.409409     29.234140     29.234140     58.468279
     -4.399399     24.956647     24.956647     49.913294
     -4.389389     21.902504     21.902504     43.805008
     -4.379379     20.299886     20.299886     40.599771
     -4.369369     20.207064     20.207064     40.414127
     -4.359359     21.463847     21.463847     42.927694
     -4.349349     23.693599     23.693599     47.387199
     -4.339339     26.385521     26.385521     52.771042
     -4.329329     29.041376     29.041376     58.082752
     -4.319319     31.329198     31.329198     62.658396
     -4.309309     33.176474     33.176474     66.352949
     -4.299299     34.761426     34.761426     69.522852
     -4.289289     36.404546     36.404546     72.809092
     -4.279279     38.399732     38.399732     76.799463
     -4.269269     40.843510     40.843510     81.687021
     -4.259259     43.524224     43.524224     87.048447
     -4.249249     45.923230     45.923230     91.846460
     -4.239239     47.351606     47.351606     94.703213
     -4.229229     47.193844     47.193844     94.387688
     -4.219219     45.169562     45.169562     90.339123
     -4.209209     41.492546     41.492546     82.985091
     -4.199199     36.837518     36.837518     73.675036
     -4.189189     32.115396     32.115396     64.230791
     -4.179179     28.157881     28.157881     56.315762
     -4.169169     25.458972     25.458972     50.917943
     -4.159159     24.085208     24.085208     48.170415
     -4.149149     23.773817     23.773817     47.547633
     -4.139139     24.146095     24.146095     48.292190
     -4.129129     24.919547     24.919547     49.839094
     -4.119119     26.017692     26.017692     52.035384
     -4.109109     27.532801     27.532801     55.065601
     -4.099099     29.567293     29.567293     59.134585
     -4.089089     32.039843     32.039843     64.079686
     -4.079079     34.568997     34.568997     69.137994
     -4.069069     36.520211     36.520211     73.040423
     -4.059059     37.221892     37.221892     74.443784
     -4.049049     36.257863     36.257863     72.515726
     -4.039039     33.687603     33.687603     67.375206
     -4.029029     30.074370     30.074370     60.148740
     -4.019019     26.303631     26.303631     52.607262
     -4.009009     23.286305     23.286305     46.572610
     -3.998999     21.692528     21.692528     43.385056
     -3.988989     21.824967     21.824967     43.649935
     -3.978979     23.649131     23.649131     47.298261
     -3.968969     26.915948     26.915948     53.831896
     -3.958959     31.287622     31.287622     62.575244
     -3.948949     36.413464     36.413464     72.826928
     -3.938939     41.959187     41.959187     83.918374
     -3.928929     47.624244     47.624244     95.248489
     -3.918919     53.168681     53.168681    106.337362
     -3.908909     58.434307     58.434307    116.868615
     -3.898899     63.324252     63.324252    126.648504
     -3.888889     67.723759     67.723759    135.447518
     -3.878879     71.392101     71.392101    142.784201
     -3.868869     73.894395     73.894395    147.788790
     -3.858859     74.640266     74.640266    149.280531
     -3.848849     73.047952     73.047952    146.095904
     -3.838839     68.782632     68.782632    137.565264
     -3.828829     61.966440     61.966440    123.932881
     -3.818819     53.256580     53.256580    106.513160
     -3.808809     43.740951     43.740951     87.481901
     -3.798799     34.680651     34.680651     69.361301
     -3.788789     27.193114     27.193114     54.386229
     -3.778779     21.987261     21.987261     43.974523
     -3.768769     19.230728     19.230728     38.461457
     -3.758759     18.573151     18.573151     37.146301
     -3.748749     19.298699     19.298699     38.597398
     -3.738739     20.552801     20.552801     41.105601
     -3.728729     21.581701     21.581701     43.163402
     -3.718719     21.929834     21.929834     43.859669
     -3.708709     21.551467     21.551467     43.102934
     -3.698699     20.808466     20.808466     41.616932
     -3.688689     20.347933     20.347933     40.695865
     -3.678679     20.883189     20.883189     41.766377
     -3.668669     22.935117     22.935117     45.870234
     -3.658659     26.616197     26.616197     53.232395
     -3.648649     31.539946     31.539946     63.079892
     -3.638639     36.901875     36.901875     73.803750
     -3.628629     41.710994     41.710994     83.421988
     -3.618619     45.083398     45.083398     90.166797
     -3.608609     46.481334     46.481334     92.962668
     -3.598599     45.812806     45.812806     91.625612
     -3.588589     43.379445     43.379445     86.758889
     -3.578579     39.726747     39.726747     79.453493
     -3.568569     35.472397     35.472397     70.944794
     -3.558559     31.165119     31.165119     62.330239
     -3.548549     27.191238     27.191238     54.382475
     -3.538539     23.729505     23.729505     47.459010
     -3.528529     20.757870     20.757870     41.515740
     -3.518519     18.116560     18.116560     36.233120
     -3.508509     15.614440     15.614440     31.228880
     -3.498498     13.139977     13.139977     26.279954
     -3.488488     10.728935     10.728935     21.457870
     -3.478478      8.560622      8.560622     17.121244
     -3.468468      6.890297      6.890297     13.780593
     -3.458458      5.952086      5.952086     11.904172
     -3.448448      5.870581      5.870581     11.741162
     -3.438438      6.606765      6.606765     13.213529
     -3.428428      7.950639      7.950639     15.901278
     -3.418418      9.565522      9.565522     19.131043
     -3.408408     11.080815     11.080815     22.161630
     -3.398398     12.213261     12.213261     24.426523
     -3.388388     12.876098     12.876098     25.752196
     -3.378378     13.228215     13.228215     26.456431
     -3.368368     13.634676     13.634676     27.269352
     -3.358358     14.549388     14.549388     29.098776
     -3.348348     16.365699     16.365699     32.731398
     -3.338338     19.287824     19.287824     38.575648
     -3.328328     23.254224     23.254224     46.508447
     -3.318318     27.915933     27.915933     55.831866
     -3.308308     32.663560     32.663560     65.327121
     -3.298298     36.708397     36.708397     73.416794
     -3.288288     39.230797     39.230797     78.461594
     -3.278278     39.586374     39.586374     79.172748
     -3.268268     37.512324     37.512324     75.024647
     -3.258258     33.242345     33.242345     66.484691
     -3.248248     27.459874     27.459874     54.919747
     -3.238238     21.095030     21.095030     42.190059
     -3.228228     15.052662     15.052662     30.105323
     -3.218218      9.990334      9.990334     19.980668
     -3.208208      6.227837      6.227837     12.455674
     -3.198198      3.794872      3.794872      7.589744
     -3.188188      2.561271      2.561271      5.122542
     -3.178178      2.374520      2.374520      4.749040
     -3.168168      3.148631      3.148631      6.297262
     -3.158158      4.883359      4.883359      9.766719
     -3.148148      7.622950      7.622950     15.245900
     -3.138138     11.381094     11.381094     22.762188
     -3.128128     16.064469     16.064469     32.128938
     -3.118118     21.423800     21.423800     42.847600
     -3.108108     27.051347     27.051347     54.102694
     -3.098098     32.430323     32.430323     64.860646
     -3.088088     37.028144     37.028144     74.056287
     -3.078078     40.412298     40.412298     80.824596
     -3.068068     42.354636     42.354636     84.709272
     -3.058058     42.881747     42.881747     85.763494
     -3.048048     42.238024     42.238024     84.476049
     -3.038038     40.763111     40.763111     81.526221
     -3.028028     38.735966     38.735966     77.471932
     -3.018018     36.270422     36.270422     72.540845
     -3.008008     33.328975     33.328975     66.657950
     -2.997998     29.853670     29.853670     59.707340
     -2.987988     25.938001     25.938001     51.876003
     -2.977978     21.935421     21.935421     43.870841
     -2.967968     18.437936     18.437936     36.875873
     -2.957958     16.132077     16.132077     32.264154
     -2.947948     15.597579     15.597579     31.195157
     -2.937938     17.126684     17.126684     34.253368
     -2.927928     20.618224     20.618224     41.236449
     -2.917918     25.569277     25.569277     51.138555
     -2.907908     31.165643     31.165643     62.331286
     -2.897898     36.456476     36.456476     72.912953
     -2.887888     40.577335     40.577335     81.154670
     -2.877878     42.961209     42.961209     85.922419
     -2.867868     43.465846     43.465846     86.931692
     -2.857858     42.365307     42.365307     84.730615
     -2.847848     40.204465     40.204465     80.408930
     -2.837838     37.575083     37.575083     75.150166
     -2.827828     34.909209     34.909209     69.818418
     -2.817818     32.377018     32.377018     64.754036
     -2.807808     29.923788     29.923788     59.847576
     -2.797798     27.410740     27.410740     54.821479
     -2.787788     24.774377     24.774377     49.548753
     -2.777778     22.115711     22.115711     44.231421
     -2.767768     19.675692     19.675692     39.351385
     -2.757758     17.720732     17.720732     35.441465
     -2.747748     16.413722     16.413722     32.827444
     -2.737738     15.751482     15.751482     31.502963
     -2.727728     15.605374     15.605374     31.210748
     -2.717718     15.834227     15.834227     31.668455
     -2.707708     16.390164     16.390164     32.780328
     -2.697698     17.341230     17.341230     34.682460
     -2.687688     18.790615     18.790615     37.581230
     -2.677678     20.745659     20.745659     41.491318
     -2.667668     23.030647     23.030647     46.061294
     -2.657658     25.314345     25.314345     50.628691
     -2.647648     27.247995     27.247995     54.495990
     -2.637638     28.632352     28.632352     57.264704
     -2.627628     29.508379     29.508379     59.016759
     -2.617618     30.114515     30.114515     60.229029
     -2.607608     30.740480     30.740480     61.480959
     -2.597598     31.570392     31.570392     63.140784
     -2.587588     32.602690     32.602690     65.205380
     -2.577578     33.671033     33.671033     67.342067
     -2.567568     34.523164     34.523164     69.046327
     -2.557558     34.895560     34.895560     69.791121
     -2.547548     34.556576     34.556576     69.113152
     -2.537538     33.338214     33.338214     66.676427
     -2.527528     31.188907     31.188907     62.377815
     -2.517518     28.246356     28.246356     56.492713
     -2.507508     24.885085     24.885085     49.770170
     -2.497497     21.682595     21.682595     43.365190
     -2.487487     19.285259     19.285259     38.570519
     -2.477477     18.214738     18.214738     36.429476
     -2.467467     18.696474     18.696474     37.392947
     -2.457457     20.588769     20.588769     41.177539
     -2.447447     23.447553     23.447553     46.895106
     -2.437437     26.701398     26.701398     53.402796
     -2.427427     29.861408     29.861408     59.722816
     -2.417417     32.673081     32.673081     65.346163
     -2.407407     35.141645     35.141645     70.283289
     -2.397397     37.420430     37.420430     74.840860
     -2.387387     39.618621     39.618621     79.237242
     -2.377377     41.627978     41.627978     83.255957
     -2.367367     43.064864     43.064864     86.129728
     -2.357357     43.371821     43.371821     86.743641
     -2.347347     42.044279     42.044279     84.088558
     -2.337337     38.881099     38.881099     77.762198
     -2.327327     34.139545     34.139545     68.279089
     -2.317317     28.519222     28.519222     57.038444
     -2.307307     22.982352     22.982352     45.964705
     -2.297297     18.491811     18.491811     36.983622
     -2.287287     15.773139     15.773139     31.546278
     -2.277277     15.176569     15.176569     30.353139
     -2.267267     16.658485     16.658485     33.316969
     -2.257257     19.855052     19.855052     39.710105
     -2.247247     24.202115     24.202115     48.404231
     -2.237237     29.059558     29.059558     58.119116
     -2.227227     33.811505     33.811505     67.623010
     -2.217217     37.928026     37.928026     75.856052
     -2.207207     40.989457     40.989457     81.978915
     -2.197197     42.690243     42.690243     85.380485
     -2.187187     42.847799     42.847799     85.695598
     -2.177177     41.433228     41.433228     82.866456
     -2.167167     38.614118     38.614118     77.228237
     -2.157157     34.771396     34.771396     69.542791
     -2.147147     30.447506     30.447506     60.895012
     -2.137137     26.215396     26.215396     52.430791
     -2.127127     22.511145     22.511145     45.022289
     -2.117117     19.509429     19.509429     39.018859
     -2.107107     17.108559     17.108559     34.217118
     -2.097097     15.033525     15.033525     30.067050
     -2.087087     12.999498     12.999498     25.998995
     -2.077077     10.849039     10.849039     21.698077
     -2.067067      8.600889      8.600889     17.201779
     -2.057057      6.405118      6.405118     12.810237
     -2.047047      4.448701      4.448701      8.897401
     -2.037037      2.869377      2.869377      5.738754
     -2.027027      1.714682      1.714682      3.429365
     -2.017017      0.949364      0.949364      1.898728
     -2.007007      0.491023      0.491023      0.982045
     -1.996997      0.249660      0.249660      0.499321
     -1.986987      0.156417      0.156417      0.312834
     -1.976977      0.178901      0.178901      0.357802
     -1.966967      0.327311      0.327311      0.654621
     -1.956957      0.655259      0.655259      1.310518
     -1.946947      1.254733      1.254733      2.509467
     -1.936937      2.240435      2.240435      4.480870
     -1.926927      3.719021      3.719021      7.438042
     -1.916917      5.745247      5.745247     11.490494
     -1.906907      8.277267      8.277267     16.554534
     -1.896897     11.150949     11.150949     22.301898
     -1.886887     14.091153     14.091153     28.182307
     -1.876877     16.765049     16.765049     33.530099
     -1.866867     18.865228     18.865228     37.730456
     -1.856857     20.198037     20.198037     40.396075
     -1.846847     20.749875     20.749875     41.499750
     -1.836837     20.708242     20.708242     41.416484
     -1.826827     20.421475     20.421475     40.842950
     -1.816817     20.293669     20.293669     40.587338
     -1.806807     20.634833     20.634833     41.269667
     -1.796797     21.516791     21.516791     43.033582
     -1.786787     22.703213     22.703213     45.406426
     -1.776777     23.704720     23.704720     47.409440
     -1.766767     23.954237     23.954237     47.908475
     -1.756757     23.031863     23.031863     46.063727
     -1.746747     20.835627     20.835627     41.671254
     -1.736737     17.620183     17.620183     35.240366
     -1.726727     13.895660     13.895660     27.791320
     -1.716717     10.248799     10.248799     20.497598
     -1.706707      7.175930      7.175930     14.351860
     -1.696697      4.991578      4.991578      9.983156
     -1.686687      3.822066      3.822066      7.644132
     -1.676677      3.648034      3.648034      7.296068
     -1.666667      4.347957      4.347957      8.695915
     -1.656657      5.716073      5.716073     11.432147
     -1.646647      7.462609      7.462609     14.925218
     -1.636637      9.227306      9.227306     18.454613
     -1.626627     10.633843     10.633843     21.267685
