# EIG2DOS: Utility for SIESTA to obtain the electronic density of states
#  E. Artacho, Apr 1999, A. Garcia, Apr 2012
#  Nick R. Papior, Feb 2017
# ------------------------------------------
# Eigenvalues calculated from a non-polarized calculation
# Eigenvalues read from siesta.EIG
# Kpoint weights read from siesta.KP
# Using smearing parameter:   0.0500
# Using 1000 points in the energy range
# Selected bands: 1 to: 2981
# Emin, Emax in file for selected band(s):    -27.0813058    218.3291120
# Nbands, Nspin, Nk   =   2981     1     1
# E_F                 =    -4.2789 eV --> (shifted to ZERO)
# Broadening          =     0.0500 eV
#
#        E            N(up)  (=)   N(down)         Ntot
     -5.000000     44.275226     44.275226     88.550452
     -4.989990     45.877074     45.877074     91.754147
     -4.979980     46.608307     46.608307     93.216615
     -4.969970     46.430265     46.430265     92.860531
     -4.959960     45.316556     45.316556     90.633113
     -4.949950     43.302834     43.302834     86.605668
     -4.939940     40.540247     40.540247     81.080494
     -4.929930     37.329308     37.329308     74.658616
     -4.919920     34.125183     34.125183     68.250366
     -4.909910     31.512179     31.512179     63.024359
     -4.899900     30.138609     30.138609     60.277217
     -4.889890     30.595237     30.595237     61.190474
     -4.879880     33.233506     33.233506     66.467012
     -4.869870     37.963427     37.963427     75.926854
     -4.859860     44.123379     44.123379     88.246757
     -4.849850     50.528017     50.528017    101.056033
     -4.839840     55.741315     55.741315    111.482630
     -4.829830     58.505475     58.505475    117.010949
     -4.819820     58.152160     58.152160    116.304320
     -4.809810     54.806992     54.806992    109.613985
     -4.799800     49.294416     49.294416     98.588832
     -4.789790     42.802185     42.802185     85.604370
     -4.779780     36.476224     36.476224     72.952448
     -4.769770     31.122021     31.122021     62.244042
     -4.759760     27.099912     27.099912     54.199824
     -4.749750     24.390206     24.390206     48.780413
     -4.739740     22.739780     22.739780     45.479559
     -4.729730     21.804478     21.804478     43.608957
     -4.719720     21.243259     21.243259     42.486518
     -4.709710     20.761681     20.761681     41.523363
     -4.699700     20.125304     20.125304     40.250607
     -4.689690     19.168845     19.168845     38.337691
     -4.679680     17.820205     17.820205     35.640411
     -4.669670     16.142343     16.142343     32.284686
     -4.659660     14.375918     14.375918     28.751835
     -4.649650     12.952237     12.952237     25.904474
     -4.639640     12.448452     12.448452     24.896904
     -4.629630     13.473980     13.473980     26.947960
     -4.619620     16.500857     16.500857     33.001715
     -4.609610     21.675072     21.675072     43.350144
     -4.599600     28.668198     28.668198     57.336396
     -4.589590     36.640709     36.640709     73.281417
     -4.579580     44.373062     44.373062     88.746124
     -4.569570     50.565525     50.565525    101.131050
     -4.559560     54.226251     54.226251    108.452502
     -4.549550     55.002577     55.002577    110.005153
     -4.539540     53.310016     53.310016    106.620032
     -4.529530     50.190705     50.190705    100.381409
     -4.519520     46.952233     46.952233     93.904465
     -4.509510     44.734489     44.734489     89.468978
     -4.499499     44.174962     44.174962     88.349924
     -4.489489     45.284504     45.284504     90.569008
     -4.479479     47.543258     47.543258     95.086515
     -4.469469     50.136635     50.136635    100.273270
     -4.459459     52.216211     52.216211    104.432423
     -4.449449     53.096840     53.096840    106.193679
     -4.439439     52.361049     52.361049    104.722098
     -4.429429     49.892956     49.892956     99.785912
     -4.419419     45.877957     45.877957     91.755915
     -4.409409     40.782895     40.782895     81.565791
     -4.399399     35.300950     35.300950     70.601900
     -4.389389     30.237159     30.237159     60.474318
     -4.379379     26.335592     26.335592     52.671183
     -4.369369     24.091741     24.091741     48.183483
     -4.359359     23.621760     23.621760     47.243520
     -4.349349     24.649735     24.649735     49.299471
     -4.339339     26.626482     26.626482     53.252964
     -4.329329     28.933998     28.933998     57.867996
     -4.319319     31.092270     31.092270     62.184541
     -4.309309     32.889097     32.889097     65.778195
     -4.299299     34.393267     34.393267     68.786534
     -4.289289     35.861372     35.861372     71.722744
     -4.279279     37.582765     37.582765     75.165530
     -4.269269     39.716982     39.716982     79.433964
     -4.259259     42.173166     42.173166     84.346332
     -4.249249     44.573525     44.573525     89.147050
     -4.239239     46.329920     46.329920     92.659839
     -4.229229     46.830705     46.830705     93.661410
     -4.219219     45.681824     45.681824     91.363649
     -4.209209     42.898846     42.898846     85.797692
     -4.199199     38.946920     38.946920     77.893841
     -4.189189     34.591750     34.591750     69.183499
     -4.179179     30.624980     30.624980     61.249959
     -4.169169     27.597513     27.597513     55.195027
     -4.159159     25.686728     25.686728     51.373456
     -4.149149     24.745253     24.745253     49.490506
     -4.139139     24.482385     24.482385     48.964770
     -4.129129     24.669893     24.669893     49.339787
     -4.119119     25.264743     25.264743     50.529486
     -4.109109     26.390320     26.390320     52.780641
     -4.099099     28.188499     28.188499     56.376997
     -4.089089     30.621053     30.621053     61.242105
     -4.079079     33.334703     33.334703     66.669406
     -4.069069     35.685955     35.685955     71.371910
     -4.059059     36.945250     36.945250     73.890500
     -4.049049     36.597083     36.597083     73.194166
     -4.039039     34.585422     34.585422     69.170843
     -4.029029     31.372275     31.372275     62.744551
     -4.019019     27.777833     27.777833     55.555667
     -4.009009     24.690434     24.690434     49.380868
     -3.998999     22.796093     22.796093     45.592186
     -3.988989     22.444762     22.444762     44.889524
     -3.978979     23.674635     23.674635     47.349269
     -3.968969     26.326699     26.326699     52.653398
     -3.958959     30.155581     30.155581     60.311161
     -3.948949     34.883768     34.883768     69.767537
     -3.938939     40.210712     40.210712     80.421424
     -3.928929     45.822462     45.822462     91.644925
     -3.918919     51.429809     51.429809    102.859617
     -3.908909     56.816601     56.816601    113.633201
     -3.898899     61.850050     61.850050    123.700100
     -3.888889     66.420135     66.420135    132.840270
     -3.878879     70.326881     70.326881    140.653763
     -3.868869     73.184630     73.184630    146.369261
     -3.858859     74.423462     74.423462    148.846924
     -3.848849     73.426519     73.426519    146.853038
     -3.838839     69.767959     69.767959    139.535919
     -3.828829     63.451088     63.451088    126.902176
     -3.818819     55.029617     55.029617    110.059234
     -3.808809     45.540518     45.540518     91.081035
     -3.798799     36.261529     36.261529     72.523058
     -3.788789     28.383653     28.383653     56.767306
     -3.778779     22.718750     22.718750     45.437499
     -3.768769     19.535896     19.535896     39.071793
     -3.758759     18.560981     18.560981     37.121961
     -3.748749     19.116765     19.116765     38.233529
     -3.738739     20.347388     20.347388     40.694776
     -3.728729     21.463379     21.463379     42.926758
     -3.718719     21.950055     21.950055     43.900110
     -3.708709     21.694223     21.694223     43.388445
     -3.698699     20.998979     20.998979     41.997958
     -3.688689     20.477143     20.477143     40.954286
     -3.678679     20.842667     20.842667     41.685334
     -3.668669     22.653186     22.653186     45.306372
     -3.658659     26.084257     26.084257     52.168514
     -3.648649     30.819897     30.819897     61.639794
     -3.638639     36.111545     36.111545     72.223090
     -3.628629     40.992662     40.992662     81.985325
     -3.618619     44.567008     44.567008     89.134016
     -3.608609     46.255046     46.255046     92.510092
     -3.598599     45.908727     45.908727     91.817454
     -3.588589     43.774982     43.774982     87.549964
     -3.578579     40.356884     40.356884     80.713768
     -3.568569     36.247297     36.247297     72.494594
     -3.558559     31.989203     31.989203     63.978406
     -3.548549     27.981067     27.981067     55.962134
     -3.538539     24.427339     24.427339     48.854679
     -3.528529     21.337434     21.337434     42.674868
     -3.518519     18.579380     18.579380     37.158761
     -3.508509     15.978890     15.978890     31.957779
     -3.498498     13.428364     13.428364     26.856728
     -3.488488     10.958178     10.958178     21.916356
     -3.478478      8.739236      8.739236     17.478472
     -3.468468      7.020717      7.020717     14.041435
     -3.458458      6.035209      6.035209     12.070418
     -3.448448      5.909492      5.909492     11.818983
     -3.438438      6.608087      6.608087     13.216174
     -3.428428      7.923337      7.923337     15.846674
     -3.418418      9.517751      9.517751     19.035502
     -3.408408     11.015826     11.015826     22.031653
     -3.398398     12.125762     12.125762     24.251524
     -3.388388     12.750792     12.750792     25.501583
     -3.378378     13.041861     13.041861     26.083723
     -3.368368     13.361667     13.361667     26.723334
     -3.358358     14.169199     14.169199     28.338398
     -3.348348     15.869836     15.869836     31.739671
     -3.338338     18.684870     18.684870     37.369740
     -3.328328     22.573335     22.573335     45.146669
     -3.318318     27.209541     27.209541     54.419083
     -3.308308     32.007908     32.007908     64.015815
     -3.298298     36.197485     36.197485     72.394971
     -3.288288     38.959433     38.959433     77.918867
     -3.278278     39.623570     39.623570     79.247140
     -3.268268     37.874647     37.874647     75.749294
     -3.258258     33.881021     33.881021     67.762042
     -3.248248     28.270471     28.270471     56.540942
     -3.238238     21.946376     21.946376     43.892752
     -3.228228     15.820249     15.820249     31.640497
     -3.218218     10.576521     10.576521     21.153042
     -3.208208      6.557783      6.557783     13.115566
     -3.198198      3.788623      3.788623      7.577245
     -3.188188      2.093008      2.093008      4.186017
     -3.178178      1.237323      1.237323      2.474646
     -3.168168      1.047176      1.047176      2.094352
     -3.158158      1.476339      1.476339      2.952678
     -3.148148      2.626596      2.626596      5.253191
     -3.138138      4.720725      4.720725      9.441450
     -3.128128      8.026617      8.026617     16.053235
     -3.118118     12.734119     12.734119     25.468238
     -3.108108     18.806609     18.806609     37.613217
     -3.098098     25.859832     25.859832     51.719664
     -3.088088     33.138905     33.138905     66.277809
     -3.078078     39.645470     39.645470     79.290940
     -3.068068     44.403687     44.403687     88.807373
     -3.058058     46.772275     46.772275     93.544549
     -3.048048     46.661497     46.661497     93.322993
     -3.038038     44.541259     44.541259     89.082518
     -3.028028     41.226850     41.226850     82.453700
     -3.018018     37.546763     37.546763     75.093526
     -3.008008     34.058897     34.058897     68.117794
     -2.997998     30.947767     30.947767     61.895534
     -2.987988     28.129271     28.129271     56.258542
     -2.977978     25.478451     25.478451     50.956901
     -2.967968     23.042628     23.042628     46.085256
     -2.957958     21.127203     21.127203     42.254406
     -2.947948     20.217581     20.217581     40.435163
     -2.937938     20.781344     20.781344     41.562688
     -2.927928     23.043539     23.043539     46.087079
     -2.917918     26.832779     26.832779     53.665558
     -2.907908     31.564075     31.564075     63.128151
     -2.897898     36.371763     36.371763     72.743526
     -2.887888     40.349531     40.349531     80.699062
     -2.877878     42.812168     42.812168     85.624336
     -2.867868     43.481453     43.481453     86.962906
     -2.857858     42.525476     42.525476     85.050952
     -2.847848     40.439559     40.439559     80.879119
     -2.837838     37.823909     37.823909     75.647819
     -2.827828     35.156820     35.156820     70.313640
     -2.817818     32.660199     32.660199     65.320397
     -2.807808     30.306090     30.306090     60.612179
     -2.797798     27.942274     27.942274     55.884548
     -2.787788     25.457972     25.457972     50.915944
     -2.777778     22.896644     22.896644     45.793287
     -2.767768     20.458852     20.458852     40.917705
     -2.757758     18.403893     18.403893     36.807786
     -2.747748     16.917356     16.917356     33.834713
     -2.737738     16.029280     16.029280     32.058559
     -2.727728     15.633214     15.633214     31.266429
     -2.717718     15.590521     15.590521     31.181041
     -2.707708     15.847333     15.847333     31.694666
     -2.697698     16.481248     16.481248     32.962495
     -2.687688     17.639975     17.639975     35.279949
     -2.677678     19.407638     19.407638     38.815275
     -2.667668     21.687815     21.687815     43.375630
     -2.657658     24.187943     24.187943     48.375887
     -2.647648     26.526674     26.526674     53.053347
     -2.637638     28.404291     28.404291     56.808581
     -2.627628     29.732175     29.732175     59.464349
     -2.617618     30.642969     30.642969     61.285939
     -2.607608     31.381744     31.381744     62.763487
     -2.597598     32.153522     32.153522     64.307044
     -2.587588     33.020125     33.020125     66.040251
     -2.577578     33.890894     33.890894     67.781789
     -2.567568     34.581486     34.581486     69.162972
     -2.557558     34.880567     34.880567     69.761135
     -2.547548     34.587777     34.587777     69.175554
     -2.537538     33.536249     33.536249     67.072498
     -2.527528     31.636574     31.636574     63.273147
     -2.517518     28.952798     28.952798     57.905597
     -2.507508     25.771209     25.771209     51.542418
     -2.497497     22.598611     22.598611     45.197223
     -2.487487     20.054958     20.054958     40.109917
     -2.477477     18.687353     18.687353     37.374706
     -2.467467     18.784669     18.784669     37.569338
     -2.457457     20.280269     20.280269     40.560539
     -2.447447     22.791242     22.791242     45.582484
     -2.437437     25.779036     25.779036     51.558073
     -2.427427     28.759788     28.759788     57.519577
     -2.417417     31.468708     31.468708     62.937416
     -2.407407     33.902806     33.902806     67.805612
     -2.397397     36.222634     36.222634     72.445267
     -2.387387     38.561955     38.561955     77.123909
     -2.377377     40.842338     40.842338     81.684676
     -2.367367     42.693134     42.693134     85.386268
     -2.357357     43.531513     43.531513     87.063026
     -2.347347     42.780783     42.780783     85.561567
     -2.337337     40.133795     40.133795     80.267589
     -2.327327     35.739606     35.739606     71.479212
     -2.317317     30.224437     30.224437     60.448875
     -2.307307     24.536665     24.536665     49.073329
     -2.297297     19.685996     19.685996     39.371991
     -2.287287     16.484427     16.484427     32.968855
     -2.277277     15.377001     15.377001     30.754002
     -2.267267     16.396237     16.396237     32.792475
     -2.257257     19.222511     19.222511     38.445022
     -2.247247     23.306193     23.306193     46.612387
     -2.237237     28.005167     28.005167     56.010334
     -2.227227     32.700785     32.700785     65.401571
     -2.217217     36.869091     36.869091     73.738181
     -2.207207     40.102570     40.102570     80.205141
     -2.197197     42.100028     42.100028     84.200055
     -2.187187     42.658061     42.658061     85.316122
     -2.177177     41.692775     41.692775     83.385550
     -2.167167     39.290747     39.290747     78.581494
     -2.157157     35.750881     35.750881     71.501762
     -2.147147     31.563706     31.563706     63.127412
     -2.137137     27.301564     27.301564     54.603129
     -2.127127     23.450390     23.450390     46.900780
     -2.117117     20.261735     20.261735     40.523470
     -2.107107     17.703883     17.703883     35.407765
     -2.097097     15.538154     15.538154     31.076308
     -2.087087     13.475389     13.475389     26.950779
     -2.077077     11.326285     11.326285     22.652571
     -2.067067      9.072900      9.072900     18.145800
     -2.057057      6.842535      6.842535     13.685071
     -2.047047      4.819850      4.819850      9.639700
     -2.037037      3.155550      3.155550      6.311099
     -2.027027      1.914980      1.914980      3.829961
     -2.017017      1.076752      1.076752      2.153504
     -2.007007      0.564649      0.564649      1.129297
     -1.996997      0.288038      0.288038      0.576076
     -1.986987      0.173566      0.173566      0.347133
     -1.976977      0.183271      0.183271      0.366541
     -1.966967      0.322267      0.322267      0.644534
     -1.956957      0.640018      0.640018      1.280036
     -1.946947      1.225184      1.225184      2.450368
     -1.936937      2.189874      2.189874      4.379747
     -1.926927      3.639100      3.639100      7.278199
     -1.916917      5.627459      5.627459     11.254918
     -1.906907      8.115107      8.115107     16.230213
     -1.896897     10.942418     10.942418     21.884836
     -1.886887     13.840416     13.840416     27.680833
     -1.876877     16.480758     16.480758     32.961517
     -1.866867     18.551823     18.551823     37.103645
     -1.856857     19.836511     19.836511     39.673021
     -1.846847     20.267592     20.267592     40.535184
     -1.836837     19.944090     19.944090     39.888180
     -1.826827     19.101254     19.101254     38.202508
     -1.816817     18.036858     18.036858     36.073716
     -1.806807     17.011922     17.011922     34.023844
     -1.796797     16.162093     16.162093     32.324187
     -1.786787     15.463212     15.463212     30.926425
     -1.776777     14.776263     14.776263     29.552526
     -1.766767     13.955356     13.955356     27.910712
     -1.756757     12.961891     12.961891     25.923782
     -1.746747     11.918274     11.918274     23.836547
     -1.736737     11.066263     11.066263     22.132526
     -1.726727     10.649936     10.649936     21.299872
     -1.716717     10.787569     10.787569     21.575138
     -1.706707     11.403948     11.403948     22.807897
     -1.696697     12.261282     12.261282     24.522564
     -1.686687     13.072045     13.072045     26.144091
     -1.676677     13.630931     13.630931     27.261862
     -1.666667     13.891917     13.891917     27.783833
     -1.656657     13.948431     13.948431     27.896861
     -1.646647     13.932974     13.932974     27.865948
     -1.636637     13.902286     13.902286     27.804571
     -1.626627     13.783081     13.783081     27.566163
