# EIG2DOS: Utility for SIESTA to obtain the electronic density of states
#  E. Artacho, Apr 1999, A. Garcia, Apr 2012
#  Nick R. Papior, Feb 2017
# ------------------------------------------
# Eigenvalues calculated from a non-polarized calculation
# Eigenvalues read from siesta.EIG
# Kpoint weights read from siesta.KP
# Using smearing parameter:   0.0500
# Using 1000 points in the energy range
# Selected bands: 1 to: 2981
# Emin, Emax in file for selected band(s):    -27.2576989    218.3744580
# Nbands, Nspin, Nk   =   2981     1     1
# E_F                 =    -4.2231 eV --> (shifted to ZERO)
# Broadening          =     0.0500 eV
#
#        E            N(up)  (=)   N(down)         Ntot
     -5.000000     32.614906     32.614906     65.229812
     -4.989990     37.346149     37.346149     74.692297
     -4.979980     41.646953     41.646953     83.293907
     -4.969970     44.794210     44.794210     89.588420
     -4.959960     46.211901     46.211901     92.423803
     -4.949950     45.661325     45.661325     91.322650
     -4.939940     43.325087     43.325087     86.650174
     -4.929930     39.766907     39.766907     79.533814
     -4.919920     35.805022     35.805022     71.610043
     -4.909910     32.355794     32.355794     64.711589
     -4.899900     30.281508     30.281508     60.563017
     -4.889890     30.241664     30.241664     60.483329
     -4.879880     32.538961     32.538961     65.077922
     -4.869870     36.982489     36.982489     73.964977
     -4.859860     42.833909     42.833909     85.667817
     -4.849850     48.910163     48.910163     97.820326
     -4.839840     53.862424     53.862424    107.724849
     -4.829830     56.557894     56.557894    113.115788
     -4.819820     56.418179     56.418179    112.836358
     -4.809810     53.569455     53.569455    107.138910
     -4.799800     48.742970     48.742970     97.485939
     -4.789790     42.982347     42.982347     85.964693
     -4.779780     37.296763     37.296763     74.593526
     -4.769770     32.402058     32.402058     64.804116
     -4.759760     28.624458     28.624458     57.248917
     -4.749750     25.953940     25.953940     51.907880
     -4.739740     24.177497     24.177497     48.354995
     -4.729730     23.016184     23.016184     46.032368
     -4.719720     22.218946     22.218946     44.437891
     -4.709710     21.603725     21.603725     43.207449
     -4.699700     21.062640     21.062640     42.125281
     -4.689690     20.556402     20.556402     41.112804
     -4.679680     20.115202     20.115202     40.230404
     -4.669670     19.846829     19.846829     39.693658
     -4.659660     19.939723     19.939723     39.879447
     -4.649650     20.647983     20.647983     41.295966
     -4.639640     22.253766     22.253766     44.507533
     -4.629630     25.008397     25.008397     50.016793
     -4.619620     29.052078     29.052078     58.104157
     -4.609610     34.315283     34.315283     68.630566
     -4.599600     40.426481     40.426481     80.852962
     -4.589590     46.682702     46.682702     93.365403
     -4.579580     52.146997     52.146997    104.293994
     -4.569570     55.890718     55.890718    111.781435
     -4.559560     57.311285     57.311285    114.622570
     -4.549550     56.384998     56.384998    112.769995
     -4.539540     53.718064     53.718064    107.436127
     -4.529530     50.347653     50.347653    100.695305
     -4.519520     47.368421     47.368421     94.736841
     -4.509510     45.545500     45.545500     91.091000
     -4.499499     45.076243     45.076243     90.152487
     -4.489489     45.586115     45.586115     91.172230
     -4.479479     46.335513     46.335513     92.671027
     -4.469469     46.529308     46.529308     93.058615
     -4.459459     45.594955     45.594955     91.189911
     -4.449449     43.331201     43.331201     86.662401
     -4.439439     39.901878     39.901878     79.803756
     -4.429429     35.719486     35.719486     71.438972
     -4.419419     31.297946     31.297946     62.595892
     -4.409409     27.141217     27.141217     54.282434
     -4.399399     23.688708     23.688708     47.377415
     -4.389389     21.292884     21.292884     42.585769
     -4.379379     20.190155     20.190155     40.380310
     -4.369369     20.450411     20.450411     40.900823
     -4.359359     21.930870     21.930870     43.861740
     -4.349349     24.280794     24.280794     48.561588
     -4.339339     27.025372     27.025372     54.050745
     -4.329329     29.710816     29.710816     59.421632
     -4.319319     32.051447     32.051447     64.102894
     -4.309309     34.011386     34.011386     68.022772
     -4.299299     35.781811     35.781811     71.563621
     -4.289289     37.660162     37.660162     75.320323
     -4.279279     39.876210     39.876210     79.752420
     -4.269269     42.429735     42.429735     84.859469
     -4.259259     45.005628     45.005628     90.011257
     -4.249249     47.015015     47.015015     94.030029
     -4.239239     47.771517     47.771517     95.543033
     -4.229229     46.753128     46.753128     93.506257
     -4.219219     43.845331     43.845331     87.690662
     -4.209209     39.447779     39.447779     78.895558
     -4.199199     34.378081     34.378081     68.756162
     -4.189189     29.603602     29.603602     59.207205
     -4.179179     25.920571     25.920571     51.841141
     -4.169169     23.724797     23.724797     47.449594
     -4.159159     22.966250     22.966250     45.932501
     -4.149149     23.284994     23.284994     46.569989
     -4.139139     24.243125     24.243125     48.486250
     -4.129129     25.534353     25.534353     51.068706
     -4.119119     27.075546     27.075546     54.151093
     -4.109109     28.945227     28.945227     57.890453
     -4.099099     31.207560     31.207560     62.415120
     -4.089089     33.720263     33.720263     67.440526
     -4.079079     36.043608     36.043608     72.087215
     -4.069069     37.526254     37.526254     75.052507
     -4.059059     37.551034     37.551034     75.102068
     -4.049049     35.826794     35.826794     71.653587
     -4.039039     32.573076     32.573076     65.146152
     -4.029029     28.495080     28.495080     56.990160
     -4.019019     24.559133     24.559133     49.118265
     -4.009009     21.682529     21.682529     43.365059
     -3.998999     20.482694     20.482694     40.965389
     -3.988989     21.178339     21.178339     42.356678
     -3.978979     23.642968     23.642968     47.285936
     -3.968969     27.540055     27.540055     55.080109
     -3.958959     32.456177     32.456177     64.912355
     -3.948949     37.986081     37.986081     75.972161
     -3.938939     43.773295     43.773295     87.546591
     -3.928929     49.532784     49.532784     99.065568
     -3.918919     55.067786     55.067786    110.135573
     -3.908909     60.264663     60.264663    120.529327
     -3.898899     65.041389     65.041389    130.082778
     -3.888889     69.251929     69.251929    138.503858
     -3.878879     72.591390     72.591390    145.182780
     -3.868869     74.569367     74.569367    149.138735
     -3.858859     74.597684     74.597684    149.195368
     -3.848849     72.181377     72.181377    144.362754
     -3.838839     67.141599     67.141599    134.283198
     -3.828829     59.771859     59.771859    119.543717
     -3.818819     50.850874     50.850874    101.701747
     -3.808809     41.494427     41.494427     82.988854
     -3.798799     32.894352     32.894352     65.788705
     -3.788789     26.033891     26.033891     52.067781
     -3.778779     21.470116     21.470116     42.940232
     -3.768769     19.242238     19.242238     38.484475
     -3.758759     18.919048     18.919048     37.838097
     -3.748749     19.759264     19.759264     39.518528
     -3.738739     20.934943     20.934943     41.869885
     -3.728729     21.760494     21.760494     43.520988
     -3.718719     21.873391     21.873391     43.746781
     -3.708709     21.323749     21.323749     42.647497
     -3.698699     20.547519     20.547519     41.095038
     -3.688689     20.222680     20.222680     40.445359
     -3.678679     21.038916     21.038916     42.077831
     -3.668669     23.443388     23.443388     46.886775
     -3.658659     27.446011     27.446011     54.892023
     -3.648649     32.561378     32.561378     65.122755
     -3.638639     37.921910     37.921910     75.843820
     -3.628629     42.528448     42.528448     85.056896
     -3.618619     45.542380     45.542380     91.084760
     -3.608609     46.505138     46.505138     93.010276
     -3.598599     45.410740     45.410740     90.821480
     -3.588589     42.630946     42.630946     85.261892
     -3.578579     38.753434     38.753434     77.506867
     -3.568569     34.407812     34.407812     68.815624
     -3.558559     30.127935     30.127935     60.255870
     -3.548549     26.265224     26.265224     52.530448
     -3.538539     22.953507     22.953507     45.907015
     -3.528529     20.128571     20.128571     40.257141
     -3.518519     17.603390     17.603390     35.206779
     -3.508509     15.180810     15.180810     30.361621
     -3.498498     12.761889     12.761889     25.523778
     -3.488488     10.403714     10.403714     20.807427
     -3.478478      8.304003      8.304003     16.608006
     -3.468468      6.725502      6.725502     13.451005
     -3.458458      5.896800      5.896800     11.793600
     -3.448448      5.926713      5.926713     11.853427
     -3.438438      6.755764      6.755764     13.511528
     -3.428428      8.155702      8.155702     16.311404
     -3.418418      9.781201      9.781201     19.562403
     -3.408408     11.269064     11.269064     22.538128
     -3.398398     12.362579     12.362579     24.725158
     -3.388388     13.018874     13.018874     26.037749
     -3.378378     13.452536     13.452536     26.905073
     -3.368368     14.090411     14.090411     28.180822
     -3.358358     15.450898     15.450898     30.901795
     -3.348348     17.990946     17.990946     35.981892
     -3.338338     21.966021     21.966021     43.932043
     -3.328328     27.327613     27.327613     54.655226
     -3.318318     33.665141     33.665141     67.330281
     -3.308308     40.204593     40.204593     80.409187
     -3.298298     45.895154     45.895154     91.790307
     -3.288288     49.612121     49.612121     99.224241
     -3.278278     50.455124     50.455124    100.910247
     -3.268268     48.045755     48.045755     96.091510
     -3.258258     42.688444     42.688444     85.376888
     -3.248248     35.300808     35.300808     70.601616
     -3.238238     27.131541     27.131541     54.263082
     -3.228228     19.393152     19.393152     38.786304
     -3.218218     12.970109     12.970109     25.940219
     -3.208208      8.303894      8.303894     16.607787
     -3.198198      5.453197      5.453197     10.906393
     -3.188188      4.248563      4.248563      8.497126
     -3.178178      4.444272      4.444272      8.888545
     -3.168168      5.807448      5.807448     11.614896
     -3.158158      8.138709      8.138709     16.277418
     -3.148148     11.255415     11.255415     22.510830
     -3.138138     14.972706     14.972706     29.945413
     -3.128128     19.096610     19.096610     38.193220
     -3.118118     23.419376     23.419376     46.838752
     -3.108108     27.701779     27.701779     55.403558
     -3.098098     31.645992     31.645992     63.291985
     -3.088088     34.888343     34.888343     69.776687
     -3.078078     37.045473     37.045473     74.090947
     -3.068068     37.816703     37.816703     75.633407
     -3.058058     37.098158     37.098158     74.196316
     -3.048048     35.039688     35.039688     70.079377
     -3.038038     32.000592     32.000592     64.001184
     -3.028028     28.422256     28.422256     56.844511
     -3.018018     24.690171     24.690171     49.380341
     -3.008008     21.062969     21.062969     42.125938
     -2.997998     17.698692     17.698692     35.397384
     -2.987988     14.744740     14.744740     29.489481
     -2.977978     12.422703     12.422703     24.845406
     -2.967968     11.050739     11.050739     22.101478
     -2.957958     10.987304     10.987304     21.974608
     -2.947948     12.519614     12.519614     25.039228
     -2.937938     15.739583     15.739583     31.479165
     -2.927928     20.450875     20.450875     40.901751
     -2.917918     26.142926     26.142926     52.285853
     -2.907908     32.054387     32.054387     64.108773
     -2.897898     37.325332     37.325332     74.650664
     -2.887888     41.204169     41.204169     82.408339
     -2.877878     43.243450     43.243450     86.486899
     -2.867868     43.408849     43.408849     86.817698
     -2.857858     42.051112     42.051112     84.102225
     -2.847848     39.746491     39.746491     79.492983
     -2.837838     37.071720     37.071720     74.143440
     -2.827828     34.412153     34.412153     68.824306
     -2.817818     31.885733     31.885733     63.771465
     -2.807808     29.406372     29.406372     58.812743
     -2.797798     26.838859     26.838859     53.677718
     -2.787788     24.152894     24.152894     48.305789
     -2.777778     21.491097     21.491097     42.982194
     -2.767768     19.120105     19.120105     38.240210
     -2.757758     17.303387     17.303387     34.606774
     -2.747748     16.178544     16.178544     32.357088
     -2.737738     15.714866     15.714866     31.429733
     -2.727728     15.772994     15.772994     31.545988
     -2.717718     16.220961     16.220961     32.441922
     -2.707708     17.022999     17.022999     34.045998
     -2.697698     18.235934     18.235934     36.471869
     -2.687688     19.913239     19.913239     39.826478
     -2.677678     21.985907     21.985907     43.971814
     -2.667668     24.212951     24.212951     48.425903
     -2.657658     26.251672     26.251672     52.503344
     -2.647648     27.815091     27.815091     55.630182
     -2.637638     28.818868     28.818868     57.637736
     -2.627628     29.421205     29.421205     58.842411
     -2.617618     29.928042     29.928042     59.856083
     -2.607608     30.623084     30.623084     61.246168
     -2.597598     31.624744     31.624744     63.249488
     -2.587588     32.842224     32.842224     65.684448
     -2.577578     34.029801     34.029801     68.059601
     -2.567568     34.881612     34.881612     69.763224
     -2.557558     35.108657     35.108657     70.217314
     -2.547548     34.483533     34.483533     68.967067
     -2.537538     32.878701     32.878701     65.757402
     -2.527528     30.322506     30.322506     60.645013
     -2.517518     27.059135     27.059135     54.118269
     -2.507508     23.564181     23.564181     47.128361
     -2.497497     20.472485     20.472485     40.944970
     -2.487487     18.419662     18.419662     36.839324
     -2.477477     17.851526     17.851526     35.703052
     -2.467467     18.881166     18.881166     37.762331
     -2.457457     21.257726     21.257726     42.515452
     -2.447447     24.464330     24.464330     48.928659
     -2.437437     27.907567     27.907567     55.815133
     -2.427427     31.120567     31.120567     62.241134
     -2.417417     33.892808     33.892808     67.785616
     -2.407407     36.268949     36.268949     72.537899
     -2.397397     38.417163     38.417163     76.834325
     -2.387387     40.430863     40.430863     80.861726
     -2.377377     42.166208     42.166208     84.332417
     -2.367367     43.208733     43.208733     86.417467
     -2.357357     43.003927     43.003927     86.007854
     -2.347347     41.102670     41.102670     82.205341
     -2.337337     37.406773     37.406773     74.813546
     -2.327327     32.292492     32.292492     64.584984
     -2.317317     26.549619     26.549619     53.099239
     -2.307307     21.166299     21.166299     42.332598
     -2.297297     17.059282     17.059282     34.118563
     -2.287287     14.858148     14.858148     29.716296
     -2.277277     14.805838     14.805838     29.611676
     -2.267267     16.775197     16.775197     33.550393
     -2.257257     20.359862     20.359862     40.719724
     -2.247247     24.989955     24.989955     49.979910
     -2.237237     30.037109     30.037109     60.074218
     -2.227227     34.892288     34.892288     69.784575
     -2.217217     39.014673     39.014673     78.029347
     -2.207207     41.960346     41.960346     83.920692
     -2.197197     43.405970     43.405970     86.811940
     -2.187187     43.181756     43.181756     86.363512
     -2.177177     41.314954     41.314954     82.629909
     -2.167167     38.063118     38.063118     76.126236
     -2.157157     33.900128     33.900128     67.800256
     -2.147147     29.426493     29.426493     58.852986
     -2.137137     25.213727     25.213727     50.427453
     -2.127127     21.640062     21.640062     43.280124
     -2.117117     18.795744     18.795744     37.591488
     -2.107107     16.508199     16.508199     33.016398
     -2.097097     14.473705     14.473705     28.947409
     -2.087087     12.424365     12.424365     24.848730
     -2.077077     10.245827     10.245827     20.491653
     -2.067067      7.998220      7.998220     15.996440
     -2.057057      5.851433      5.851433     11.702865
     -2.047047      3.986849      3.986849      7.973698
     -2.037037      2.520648      2.520648      5.041295
     -2.027027      1.476694      1.476694      2.953388
     -2.017017      0.804383      0.804383      1.608765
     -2.007007      0.418509      0.418509      0.837018
     -1.996997      0.238991      0.238991      0.477983
     -1.986987      0.219703      0.219703      0.439406
     -1.976977      0.366522      0.366522      0.733045
     -1.966967      0.748232      0.748232      1.496464
     -1.956957      1.499698      1.499698      2.999397
     -1.946947      2.809311      2.809311      5.618622
     -1.936937      4.878921      4.878921      9.757842
     -1.926927      7.851122      7.851122     15.702244
     -1.916917     11.717302     11.717302     23.434604
     -1.906907     16.242460     16.242460     32.484919
     -1.896897     20.952835     20.952835     41.905670
     -1.886887     25.215534     25.215534     50.431067
     -1.876877     28.397580     28.397580     56.795160
     -1.866867     30.047974     30.047974     60.095948
     -1.856857     30.029508     30.029508     60.059016
     -1.846847     28.549155     28.549155     57.098310
     -1.836837     26.081371     26.081371     52.162742
     -1.826827     23.218945     23.218945     46.437890
     -1.816817     20.503583     20.503583     41.007165
     -1.806807     18.286033     18.286033     36.572065
     -1.796797     16.654199     16.654199     33.308398
     -1.786787     15.450403     15.450403     30.900807
     -1.776777     14.372060     14.372060     28.744120
     -1.766767     13.116976     13.116976     26.233953
     -1.756757     11.512456     11.512456     23.024912
     -1.746747      9.574712      9.574712     19.149424
     -1.736737      7.482053      7.482053     14.964106
     -1.726727      5.489719      5.489719     10.979437
     -1.716717      3.838106      3.838106      7.676211
     -1.706707      2.697037      2.697037      5.394073
     -1.696697      2.157427      2.157427      4.314854
     -1.686687      2.251060      2.251060      4.502120
     -1.676677      2.967222      2.967222      5.934444
     -1.666667      4.245541      4.245541      8.491082
     -1.656657      5.948421      5.948421     11.896841
     -1.646647      7.838765      7.838765     15.677531
     -1.636637      9.595086      9.595086     19.190172
     -1.626627     10.880404     10.880404     21.760808
