# EIG2DOS: Utility for SIESTA to obtain the electronic density of states
#  E. Artacho, Apr 1999, A. Garcia, Apr 2012
#  Nick R. Papior, Feb 2017
# ------------------------------------------
# Eigenvalues calculated from a non-polarized calculation
# Eigenvalues read from siesta.EIG
# Kpoint weights read from siesta.KP
# Using smearing parameter:   0.0500
# Using 1000 points in the energy range
# Selected bands: 1 to: 2981
# Emin, Emax in file for selected band(s):    -27.0361876    218.3117370
# Nbands, Nspin, Nk   =   2981     1     1
# E_F                 =    -4.2978 eV --> (shifted to ZERO)
# Broadening          =     0.0500 eV
#
#        E            N(up)  (=)   N(down)         Ntot
     -5.000000     45.825750     45.825750     91.651501
     -4.989990     48.875499     48.875499     97.750999
     -4.979980     50.412515     50.412515    100.825030
     -4.969970     50.361109     50.361109    100.722219
     -4.959960     48.846598     48.846598     97.693195
     -4.949950     46.149619     46.149619     92.299238
     -4.939940     42.653295     42.653295     85.306589
     -4.929930     38.808598     38.808598     77.617196
     -4.919920     35.125090     35.125090     70.250179
     -4.909910     32.171014     32.171014     64.342027
     -4.899900     30.548456     30.548456     61.096912
     -4.889890     30.806198     30.806198     61.612397
     -4.879880     33.276700     33.276700     66.553401
     -4.869870     37.875901     37.875901     75.751802
     -4.859860     43.961778     43.961778     87.923555
     -4.849850     50.364821     50.364821    100.729642
     -4.839840     55.646362     55.646362    111.292725
     -4.829830     58.523181     58.523181    117.046361
     -4.819820     58.287130     58.287130    116.574261
     -4.809810     55.025819     55.025819    110.051637
     -4.799800     49.542226     49.542226     99.084451
     -4.789790     43.024977     43.024977     86.049953
     -4.779780     36.638654     36.638654     73.277308
     -4.769770     31.214905     31.214905     62.429809
     -4.759760     27.137961     27.137961     54.275922
     -4.749750     24.403998     24.403998     48.807997
     -4.739740     22.765699     22.765699     45.531397
     -4.729730     21.874643     21.874643     43.749286
     -4.719720     21.376812     21.376812     42.753624
     -4.709710     20.959409     20.959409     41.918817
     -4.699700     20.369516     20.369516     40.739033
     -4.689690     19.428514     19.428514     38.857029
     -4.679680     18.058485     18.058485     36.116970
     -4.669670     16.322196     16.322196     32.644392
     -4.659660     14.461026     14.461026     28.922052
     -4.649650     12.904053     12.904053     25.808106
     -4.639640     12.223871     12.223871     24.447742
     -4.629630     13.029491     13.029491     26.058983
     -4.619620     15.806818     15.806818     31.613636
     -4.609610     20.738069     20.738069     41.476138
     -4.599600     27.552297     27.552297     55.104594
     -4.589590     35.473785     35.473785     70.947570
     -4.579580     43.326834     43.326834     86.653669
     -4.569570     49.808924     49.808924     99.617848
     -4.559560     53.866922     53.866922    107.733845
     -4.549550     55.041470     55.041470    110.082939
     -4.539540     53.630980     53.630980    107.261961
     -4.529530     50.590365     50.590365    101.180730
     -4.519520     47.194202     47.194202     94.388404
     -4.509510     44.599473     44.599473     89.198946
     -4.499499     43.483301     43.483301     86.966603
     -4.489489     43.888609     43.888609     87.777217
     -4.479479     45.312322     45.312322     90.624645
     -4.469469     46.968621     46.968621     93.937242
     -4.459459     48.100206     48.100206     96.200413
     -4.449449     48.213355     48.213355     96.426710
     -4.439439     47.166477     47.166477     94.332953
     -4.429429     45.116209     45.116209     90.232418
     -4.419419     42.384522     42.384522     84.769045
     -4.409409     39.329473     39.329473     78.658946
     -4.399399     36.275656     36.275656     72.551313
     -4.389389     33.507012     33.507012     67.014025
     -4.379379     31.279827     31.279827     62.559654
     -4.369369     29.807965     29.807965     59.615930
     -4.359359     29.207996     29.207996     58.415992
     -4.349349     29.439163     29.439163     58.878326
     -4.339339     30.292528     30.292528     60.585057
     -4.329329     31.457981     31.457981     62.915963
     -4.319319     32.646499     32.646499     65.292999
     -4.309309     33.707158     33.707158     67.414317
     -4.299299     34.679730     34.679730     69.359461
     -4.289289     35.758407     35.758407     71.516815
     -4.279279     37.183090     37.183090     74.366179
     -4.269269     39.099715     39.099715     78.199429
     -4.259259     41.438512     41.438512     82.877025
     -4.249249     43.857873     43.857873     87.715747
     -4.239239     45.792323     45.792323     91.584647
     -4.229229     46.614346     46.614346     93.228692
     -4.219219     45.867110     45.867110     91.734220
     -4.209209     43.471576     43.471576     86.943151
     -4.199199     39.799515     39.799515     79.599029
     -4.189189     35.559165     35.559165     71.118330
     -4.179179     31.538990     31.538990     63.077980
     -4.169169     28.334752     28.334752     56.669503
     -4.159159     26.191553     26.191553     52.383107
     -4.149149     25.023102     25.023102     50.046204
     -4.139139     24.573262     24.573262     49.146524
     -4.129129     24.618252     24.618252     49.236503
     -4.119119     25.100258     25.100258     50.200515
     -4.109109     26.126765     26.126765     52.253531
     -4.099099     27.838609     27.838609     55.677219
     -4.089089     30.217051     30.217051     60.434101
     -4.079079     32.940435     32.940435     65.880869
     -4.069069     35.390107     35.390107     70.780215
     -4.059059     36.835373     36.835373     73.670746
     -4.049049     36.725967     36.725967     73.451935
     -4.039039     34.947124     34.947124     69.894247
     -4.029029     31.900444     31.900444     63.800888
     -4.019019     28.366704     28.366704     56.733409
     -4.009009     25.227133     25.227133     50.454265
     -3.998999     23.189105     23.189105     46.378210
     -3.988989     22.638753     22.638753     45.277506
     -3.978979     23.651044     23.651044     47.302087
     -3.968969     26.095938     26.095938     52.191877
     -3.958959     29.747064     29.747064     59.494128
     -3.948949     34.336339     34.336339     68.672678
     -3.938939     39.562920     39.562920     79.125839
     -3.928929     45.102680     45.102680     90.205360
     -3.918919     50.649751     50.649751    101.299501
     -3.908909     55.974462     55.974462    111.948924
     -3.898899     60.947168     60.947168    121.894337
     -3.888889     65.487042     65.487042    130.974084
     -3.878879     69.445172     69.445172    138.890344
     -3.868869     72.487656     72.487656    144.975311
     -3.858859     74.066507     74.066507    148.133014
     -3.848849     73.533766     73.533766    147.067531
     -3.838839     70.379281     70.379281    140.758562
     -3.828829     64.495417     64.495417    128.990834
     -3.818819     56.339417     56.339417    112.678834
     -3.808809     46.901058     46.901058     93.802117
     -3.798799     37.472396     37.472396     74.944792
     -3.788789     29.307482     29.307482     58.614965
     -3.778779     23.302588     23.302588     46.605177
     -3.768769     19.805076     19.805076     39.610151
     -3.758759     18.595112     18.595112     37.190225
     -3.748749     19.019316     19.019316     38.038631
     -3.738739     20.217035     20.217035     40.434071
     -3.728729     21.371429     21.371429     42.742858
     -3.718719     21.926137     21.926137     43.852274
     -3.708709     21.721988     21.721988     43.443976
     -3.698699     21.023167     21.023167     42.046335
     -3.688689     20.421805     20.421805     40.843610
     -3.678679     20.637350     20.637350     41.274700
     -3.668669     22.260277     22.260277     44.520554
     -3.658659     25.518270     25.518270     51.036541
     -3.648649     30.150465     30.150465     60.300930
     -3.638639     35.447191     35.447191     70.894381
     -3.628629     40.450556     40.450556     80.901112
     -3.618619     44.240503     44.240503     88.481006
     -3.608609     46.191629     46.191629     92.383258
     -3.598599     46.105130     46.105130     92.210260
     -3.588589     44.187473     44.187473     88.374946
     -3.578579     40.918812     40.918812     81.837623
     -3.568569     36.885942     36.885942     73.771884
     -3.558559     32.638097     32.638097     65.276193
     -3.548549     28.587864     28.587864     57.175727
     -3.538539     24.958332     24.958332     49.916665
     -3.528529     21.778636     21.778636     43.557272
     -3.518519     18.933427     18.933427     37.866853
     -3.508509     16.258194     16.258194     32.516388
     -3.498498     13.646967     13.646967     27.293935
     -3.488488     11.125554     11.125554     22.251108
     -3.478478      8.858171      8.858171     17.716342
     -3.468468      7.089242      7.089242     14.178485
     -3.458458      6.050928      6.050928     12.101857
     -3.448448      5.874244      5.874244     11.748489
     -3.438438      6.531199      6.531199     13.062397
     -3.428428      7.822183      7.822183     15.644365
     -3.418418      9.414844      9.414844     18.829688
     -3.408408     10.932613     10.932613     21.865227
     -3.398398     12.074781     12.074781     24.149562
     -3.388388     12.729058     12.729058     25.458116
     -3.378378     13.028263     13.028263     26.056526
     -3.368368     13.319595     13.319595     26.639191
     -3.358358     14.053638     14.053638     28.107277
     -3.348348     15.637208     15.637208     31.274416
     -3.338338     18.304442     18.304442     36.608883
     -3.328328     22.039600     22.039600     44.079201
     -3.318318     26.553851     26.553851     53.107702
     -3.308308     31.304587     31.304587     62.609174
     -3.298298     35.557599     35.557599     71.115197
     -3.288288     38.507912     38.507912     77.015823
     -3.278278     39.463579     39.463579     78.927157
     -3.268268     38.052427     38.052427     76.104855
     -3.258258     34.367815     34.367815     68.735630
     -3.248248     28.971408     28.971408     57.942816
     -3.238238     22.732668     22.732668     45.465336
     -3.228228     16.569431     16.569431     33.138862
     -3.218218     11.203110     11.203110     22.406220
     -3.208208      7.024006      7.024006     14.048013
     -3.198198      4.095659      4.095659      8.191317
     -3.188188      2.260356      2.260356      4.520712
     -3.178178      1.278444      1.278444      2.556889
     -3.168168      0.945544      0.945544      1.891088
     -3.158158      1.162091      1.162091      2.324183
     -3.148148      1.953993      1.953993      3.907987
     -3.138138      3.451610      3.451610      6.903219
     -3.128128      5.832649      5.832649     11.665298
     -3.118118      9.235258      9.235258     18.470516
     -3.108108     13.658195     13.658195     27.316390
     -3.098098     18.881806     18.881806     37.763612
     -3.088088     24.452508     24.452508     48.905016
     -3.078078     29.759361     29.759361     59.518722
     -3.068068     34.190801     34.190801     68.381601
     -3.058058     37.310648     37.310648     74.621296
     -3.048048     38.968067     38.968067     77.936134
     -3.038038     39.282455     39.282455     78.564911
     -3.028028     38.515316     38.515316     77.030633
     -3.018018     36.913698     36.913698     73.827395
     -3.008008     34.630217     34.630217     69.260433
     -2.997998     31.771815     31.771815     63.543629
     -2.987988     28.537000     28.537000     57.074000
     -2.977978     25.335398     25.335398     50.670797
     -2.967968     22.790571     22.790571     45.581143
     -2.957958     21.599077     21.599077     43.198153
     -2.947948     22.303337     22.303337     44.606674
     -2.937938     25.080618     25.080618     50.161236
     -2.927928     29.638019     29.638019     59.276037
     -2.917918     35.253150     35.253150     70.506301
     -2.907908     40.943958     40.943958     81.887916
     -2.897898     45.711246     45.711246     91.422492
     -2.887888     48.780939     48.780939     97.561878
     -2.877878     49.777729     49.777729     99.555458
     -2.867868     48.783011     48.783011     97.566021
     -2.857858     46.263107     46.263107     92.526214
     -2.847848     42.892499     42.892499     85.784997
     -2.837838     39.331435     39.331435     78.662870
     -2.827828     36.035358     36.035358     72.070716
     -2.817818     33.163938     33.163938     66.327876
     -2.807808     30.618557     30.618557     61.237114
     -2.797798     28.181926     28.181926     56.363853
     -2.787788     25.687439     25.687439     51.374877
     -2.777778     23.133669     23.133669     46.267339
     -2.767768     20.690467     20.690467     41.380933
     -2.757758     18.603082     18.603082     37.206164
     -2.747748     17.057506     17.057506     34.115013
     -2.737738     16.090711     16.090711     32.181422
     -2.727728     15.600117     15.600117     31.200234
     -2.717718     15.443159     15.443159     30.886319
     -2.707708     15.558719     15.558719     31.117439
     -2.697698     16.025647     16.025647     32.051295
     -2.687688     17.012655     17.012655     34.025310
     -2.677678     18.645624     18.645624     37.291249
     -2.667668     20.876819     20.876819     41.753637
     -2.657658     23.445587     23.445587     46.891173
     -2.647648     25.965305     25.965305     51.930609
     -2.637638     28.090167     28.090167     56.180334
     -2.627628     29.662119     29.662119     59.324238
     -2.617618     30.750588     30.750588     61.501176
     -2.607608     31.568516     31.568516     63.137032
     -2.597598     32.327149     32.327149     64.654297
     -2.587588     33.122135     33.122135     66.244270
     -2.577578     33.906167     33.906167     67.812334
     -2.567568     34.534081     34.534081     69.068161
     -2.557558     34.823897     34.823897     69.647794
     -2.547548     34.592381     34.592381     69.184762
     -2.537538     33.672910     33.672910     67.345821
     -2.527528     31.953596     31.953596     63.907192
     -2.517518     29.453361     29.453361     58.906723
     -2.507508     26.402279     26.402279     52.804559
     -2.497497     23.260216     23.260216     46.520432
     -2.487487     20.628408     20.628408     41.256816
     -2.477477     19.070537     19.070537     38.141073
     -2.467467     18.919125     18.919125     37.838249
     -2.457457     20.159958     20.159958     40.319916
     -2.447447     22.452707     22.452707     44.905414
     -2.437437     25.280885     25.280885     50.561771
     -2.427427     28.162451     28.162451     56.324901
     -2.417417     30.822841     30.822841     61.645682
     -2.407407     33.248901     33.248901     66.497802
     -2.397397     35.598655     35.598655     71.197310
     -2.387387     38.012740     38.012740     76.025480
     -2.377377     40.424584     40.424584     80.849168
     -2.367367     42.471945     42.471945     84.943891
     -2.357357     43.567557     43.567557     87.135114
     -2.347347     43.110786     43.110786     86.221572
     -2.337337     40.751173     40.751173     81.502345
     -2.327327     36.584472     36.584472     73.168944
     -2.317317     31.190268     31.190268     62.380537
     -2.307307     25.493868     25.493868     50.987736
     -2.297297     20.513950     20.513950     41.027900
     -2.287287     17.098928     17.098928     34.197856
     -2.277277     15.742573     15.742573     31.485147
     -2.267267     16.520780     16.520780     33.041560
     -2.257257     19.140224     19.140224     38.280448
     -2.247247     23.059239     23.059239     46.118478
     -2.237237     27.633272     27.633272     55.266544
     -2.227227     32.242239     32.242239     64.484478
     -2.217217     36.369325     36.369325     72.738651
     -2.207207     39.621563     39.621563     79.243125
     -2.197197     41.709989     41.709989     83.419978
     -2.187187     42.428640     42.428640     84.857281
     -2.177177     41.669111     41.669111     83.338221
     -2.167167     39.475329     39.475329     78.950658
     -2.157157     36.099697     36.099697     72.199394
     -2.147147     32.000473     32.000473     64.000946
     -2.137137     27.744631     27.744631     55.489263
     -2.127127     23.840247     23.840247     47.680494
     -2.117117     20.576758     20.576758     41.153516
     -2.107107     17.958237     17.958237     35.916474
     -2.097097     15.765021     15.765021     31.530042
     -2.087087     13.705609     13.705609     27.411217
     -2.077077     11.573279     11.573279     23.146557
     -2.067067      9.329625      9.329625     18.659250
     -2.057057      7.088941      7.088941     14.177882
     -2.047047      5.034456      5.034456     10.068912
     -2.037037      3.324523      3.324523      6.649045
     -2.027027      2.035373      2.035373      4.070747
     -2.017017      1.154481      1.154481      2.308963
     -2.007007      0.609973      0.609973      1.219946
     -1.996997      0.311239      0.311239      0.622478
     -1.986987      0.182195      0.182195      0.364389
     -1.976977      0.180990      0.180990      0.361979
     -1.966967      0.308708      0.308708      0.617416
     -1.956957      0.611184      0.611184      1.222368
     -1.946947      1.174388      1.174388      2.348777
     -1.936937      2.109498      2.109498      4.218995
     -1.926927      3.523327      3.523327      7.046654
     -1.916917      5.475545      5.475545     10.951090
     -1.906907      7.934025      7.934025     15.868049
     -1.896897     10.747478     10.747478     21.494955
     -1.886887     13.653004     13.653004     27.306008
     -1.876877     16.323583     16.323583     32.647167
     -1.866867     18.443195     18.443195     36.886390
     -1.856857     19.785562     19.785562     39.571125
     -1.846847     20.271910     20.271910     40.543820
     -1.836837     19.990399     19.990399     39.980798
     -1.826827     19.168918     19.168918     38.337836
     -1.816817     18.102932     18.102932     36.205864
     -1.806807     17.054958     17.054958     34.109917
     -1.796797     16.160472     16.160472     32.320944
     -1.786787     15.383678     15.383678     30.767355
     -1.776777     14.551077     14.551077     29.102155
     -1.766767     13.452262     13.452262     26.904524
     -1.756757     11.958718     11.958718     23.917435
     -1.746747     10.100796     10.100796     20.201592
     -1.736737      8.069563      8.069563     16.139125
     -1.726727      6.155082      6.155082     12.310164
     -1.716717      4.664001      4.664001      9.328003
     -1.706707      3.857816      3.857816      7.715632
     -1.696697      3.925307      3.925307      7.850615
     -1.686687      4.972536      4.972536      9.945073
     -1.676677      7.003881      7.003881     14.007762
     -1.666667      9.883745      9.883745     19.767490
     -1.656657     13.297919     13.297919     26.595839
     -1.646647     16.753917     16.753917     33.507834
     -1.636637     19.653301     19.653301     39.306601
     -1.626627     21.435112     21.435112     42.870223
