# EIG2DOS: Utility for SIESTA to obtain the electronic density of states
#  E. Artacho, Apr 1999, A. Garcia, Apr 2012
#  Nick R. Papior, Feb 2017
# ------------------------------------------
# Eigenvalues calculated from a non-polarized calculation
# Eigenvalues read from siesta.EIG
# Kpoint weights read from siesta.KP
# Using smearing parameter:   0.0500
# Using 1000 points in the energy range
# Selected bands: 1 to: 2981
# Emin, Emax in file for selected band(s):    -27.2016951    218.3545340
# Nbands, Nspin, Nk   =   2981     1     1
# E_F                 =    -4.2506 eV --> (shifted to ZERO)
# Broadening          =     0.0500 eV
#
#        E            N(up)  (=)   N(down)         Ntot
     -5.000000     33.374523     33.374523     66.749047
     -4.989990     37.499273     37.499273     74.998546
     -4.979980     41.263072     41.263072     82.526145
     -4.969970     44.000183     44.000183     88.000366
     -4.959960     45.195647     45.195647     90.391295
     -4.949950     44.635618     44.635618     89.271235
     -4.939940     42.472956     42.472956     84.945912
     -4.929930     39.195571     39.195571     78.391141
     -4.919920     35.527264     35.527264     71.054528
     -4.909910     32.303543     32.303543     64.607085
     -4.899900     30.344205     30.344205     60.688409
     -4.889890     30.315192     30.315192     60.630384
     -4.879880     32.568387     32.568387     65.136775
     -4.869870     36.982815     36.982815     73.965630
     -4.859860     42.879136     42.879136     85.758272
     -4.849850     49.093425     49.093425     98.186850
     -4.839840     54.244603     54.244603    108.489205
     -4.829830     57.129944     57.129944    114.259888
     -4.819820     57.096303     57.096303    114.192606
     -4.809810     54.224549     54.224549    108.449097
     -4.799800     49.247663     49.247663     98.495325
     -4.789790     43.252193     43.252193     86.504387
     -4.779780     37.309542     37.309542     74.619084
     -4.769770     32.193311     32.193311     64.386622
     -4.759760     28.267725     28.267725     56.535449
     -4.749750     25.535553     25.535553     51.071106
     -4.739740     23.771186     23.771186     47.542372
     -4.729730     22.658117     22.658117     45.316234
     -4.719720     21.882751     21.882751     43.765503
     -4.709710     21.176758     21.176758     42.353517
     -4.699700     20.327638     20.327638     40.655275
     -4.689690     19.186447     19.186447     38.372894
     -4.679680     17.694330     17.694330     35.388660
     -4.669670     15.930047     15.930047     31.860093
     -4.659660     14.158513     14.158513     28.317026
     -4.649650     12.847843     12.847843     25.695687
     -4.639640     12.626267     12.626267     25.252533
     -4.629630     14.166719     14.166719     28.333439
     -4.619620     18.008109     18.008109     36.016218
     -4.609610     24.345945     24.345945     48.691890
     -4.599600     32.852135     32.852135     65.704270
     -4.589590     42.605485     42.605485     85.210970
     -4.579580     52.207535     52.207535    104.415069
     -4.569570     60.102286     60.102286    120.204572
     -4.559560     65.022880     65.022880    130.045759
     -4.549550     66.401858     66.401858    132.803715
     -4.539540     64.564549     64.564549    129.129098
     -4.529530     60.603953     60.603953    121.207906
     -4.519520     55.977131     55.977131    111.954262
     -4.509510     51.991553     51.991553    103.983107
     -4.499499     49.394611     49.394611     98.789222
     -4.489489     48.219506     48.219506     96.439012
     -4.479479     47.914216     47.914216     95.828431
     -4.469469     47.657198     47.657198     95.314397
     -4.459459     46.703184     46.703184     93.406369
     -4.449449     44.622826     44.622826     89.245651
     -4.439439     41.376109     41.376109     82.752218
     -4.429429     37.243882     37.243882     74.487764
     -4.419419     32.692587     32.692587     65.385173
     -4.409409     28.246934     28.246934     56.493868
     -4.399399     24.406023     24.406023     48.812046
     -4.389389     21.592632     21.592632     43.185263
     -4.379379     20.105379     20.105379     40.210758
     -4.369369     20.059858     20.059858     40.119717
     -4.359359     21.339790     21.339790     42.679579
     -4.349349     23.599971     23.599971     47.199942
     -4.339339     26.348279     26.348279     52.696557
     -4.329329     29.091586     29.091586     58.183171
     -4.319319     31.489911     31.489911     62.979822
     -4.309309     33.452423     33.452423     66.904846
     -4.299299     35.133753     35.133753     70.267507
     -4.289289     36.831752     36.831752     73.663505
     -4.279279     38.824656     38.824656     77.649312
     -4.269269     41.204788     41.204788     82.409576
     -4.259259     43.769347     43.769347     87.538693
     -4.249249     46.019481     46.019481     92.038961
     -4.239239     47.291460     47.291460     94.582919
     -4.229229     46.993399     46.993399     93.986798
     -4.219219     44.861477     44.861477     89.722954
     -4.209209     41.117197     41.117197     82.234395
     -4.199199     36.436189     36.436189     72.872378
     -4.189189     31.727143     31.727143     63.454285
     -4.179179     27.818879     27.818879     55.637759
     -4.169169     25.201689     25.201689     50.403378
     -4.159159     23.935750     23.935750     47.871499
     -4.149149     23.748250     23.748250     47.496500
     -4.139139     24.248258     24.248258     48.496515
     -4.129129     25.142085     25.142085     50.284171
     -4.119119     26.345319     26.345319     52.690638
     -4.109109     27.944477     27.944477     55.888954
     -4.099099     30.034635     30.034635     60.069270
     -4.089089     32.522690     32.522690     65.045380
     -4.079079     35.012981     35.012981     70.025962
     -4.069069     36.861829     36.861829     73.723658
     -4.059059     37.402541     37.402541     74.805082
     -4.049049     36.242020     36.242020     72.484039
     -4.039039     33.476399     33.476399     66.952798
     -4.029029     29.707495     29.707495     59.414990
     -4.019019     25.848696     25.848696     51.697393
     -4.009009     22.821126     22.821126     45.642252
     -3.998999     21.288016     21.288016     42.576033
     -3.988989     21.533868     21.533868     43.067736
     -3.978979     23.501471     23.501471     47.002942
     -3.968969     26.919165     26.919165     53.838330
     -3.958959     31.429125     31.429125     62.858250
     -3.948949     36.664731     36.664731     73.329461
     -3.938939     42.281464     42.281464     84.562928
     -3.928929     47.975577     47.975577     95.951153
     -3.918919     53.510687     53.510687    107.021375
     -3.908909     58.736186     58.736186    117.472371
     -3.898899     63.562205     63.562205    127.124409
     -3.888889     67.876736     67.876736    135.753473
     -3.878879     71.438055     71.438055    142.876111
     -3.868869     73.812332     73.812332    147.624664
     -3.858859     74.420160     74.420160    148.840320
     -3.848849     72.704226     72.704226    145.408451
     -3.838839     68.361932     68.361932    136.723865
     -3.828829     61.541738     61.541738    123.083475
     -3.818819     52.907380     52.907380    105.814761
     -3.808809     43.528432     43.528432     87.056863
     -3.798799     34.629922     34.629922     69.259844
     -3.788789     27.290164     27.290164     54.580328
     -3.778779     22.189400     22.189400     44.378800
     -3.768769     19.483039     19.483039     38.966077
     -3.758759     18.823121     18.823121     37.646241
     -3.748749     19.505252     19.505252     39.010504
     -3.738739     20.690165     20.690165     41.380331
     -3.728729     21.640175     21.640175     43.280349
     -3.718719     21.914742     21.914742     43.829485
     -3.708709     21.480369     21.480369     42.960737
     -3.698699     20.706425     20.706425     41.412850
     -3.688689     20.241454     20.241454     40.482908
     -3.678679     20.794349     20.794349     41.588698
     -3.668669     22.877562     22.877562     45.755124
     -3.658659     26.593915     26.593915     53.187831
     -3.648649     31.548462     31.548462     63.096924
     -3.638639     36.930683     36.930683     73.861365
     -3.628629     41.746169     41.746169     83.492339
     -3.618619     45.110209     45.110209     90.220417
     -3.608609     46.487321     46.487321     92.974642
     -3.598599     45.791421     45.791421     91.582841
     -3.588589     43.333046     43.333046     86.666092
     -3.578579     39.666895     39.666895     79.333789
     -3.568569     35.416090     35.416090     70.832181
     -3.558559     31.127905     31.127905     62.255810
     -3.548549     27.180370     27.180370     54.360740
     -3.538539     23.740768     23.740768     47.481536
     -3.528529     20.777821     20.777821     41.555641
     -3.518519     18.128965     18.128965     36.257929
     -3.508509     15.607534     15.607534     31.215068
     -3.498498     13.111101     13.111101     26.222202
     -3.488488     10.684878     10.684878     21.369756
     -3.478478      8.514282      8.514282     17.028564
     -3.468468      6.855689      6.855689     13.711378
     -3.458458      5.939781      5.939781     11.879562
     -3.448448      5.884767      5.884767     11.769535
     -3.438438      6.644256      6.644256     13.288512
     -3.428428      8.001752      8.001752     16.003504
     -3.418418      9.616699      9.616699     19.233398
     -3.408408     11.118665     11.118665     22.237330
     -3.398398     12.229143     12.229143     24.458287
     -3.388388     12.869864     12.869864     25.739728
     -3.378378     13.209770     13.209770     26.419539
     -3.368368     13.622739     13.622739     27.245477
     -3.358358     14.567761     14.567761     29.135522
     -3.348348     16.437817     16.437817     32.875634
     -3.338338     19.430434     19.430434     38.860869
     -3.328328     23.471362     23.471362     46.942723
     -3.318318     28.195542     28.195542     56.391083
     -3.308308     32.980761     32.980761     65.961522
     -3.298298     37.039913     37.039913     74.079827
     -3.288288     39.582672     39.582672     79.165344
     -3.278278     40.031536     40.031536     80.063071
     -3.268268     38.227345     38.227345     76.454690
     -3.258258     34.526678     34.526678     69.053355
     -3.248248     29.719009     29.719009     59.438018
     -3.238238     24.774299     24.774299     49.548599
     -3.228228     20.522586     20.522586     41.045171
     -3.218218     17.406147     17.406147     34.812295
     -3.208208     15.407131     15.407131     30.814262
     -3.198198     14.165185     14.165185     28.330369
     -3.188188     13.213720     13.213720     26.427441
     -3.178178     12.223099     12.223099     24.446197
     -3.168168     11.155307     11.155307     22.310614
     -3.158158     10.287428     10.287428     20.574856
     -3.148148     10.116665     10.116665     20.233331
     -3.138138     11.192041     11.192041     22.384081
     -3.128128     13.923097     13.923097     27.846195
     -3.118118     18.409155     18.409155     36.818310
     -3.108108     24.330234     24.330234     48.660467
     -3.098098     30.942265     30.942265     61.884531
     -3.088088     37.206645     37.206645     74.413291
     -3.078078     42.042312     42.042312     84.084624
     -3.068068     44.627455     44.627455     89.254909
     -3.058058     44.634696     44.634696     89.269391
     -3.048048     42.296296     42.296296     84.592592
     -3.038038     38.270308     38.270308     76.540615
     -3.028028     33.376260     33.376260     66.752520
     -3.018018     28.330581     28.330581     56.661162
     -3.008008     23.599311     23.599311     47.198622
     -2.997998     19.409483     19.409483     38.818967
     -2.987988     15.871919     15.871919     31.743838
     -2.977978     13.120523     13.120523     26.241046
     -2.967968     11.385735     11.385735     22.771469
     -2.957958     10.970873     10.970873     21.941746
     -2.947948     12.151505     12.151505     24.303010
     -2.937938     15.045202     15.045202     30.090403
     -2.927928     19.502294     19.502294     39.004588
     -2.917918     25.059522     25.059522     50.119045
     -2.907908     30.984102     30.984102     61.968204
     -2.897898     36.412584     36.412584     72.825168
     -2.887888     40.555065     40.555065     81.110131
     -2.877878     42.900993     42.900993     85.801987
     -2.867868     43.348208     43.348208     86.696417
     -2.857858     42.197768     42.197768     84.395535
     -2.847848     40.010646     40.010646     80.021292
     -2.837838     37.384790     37.384790     74.769581
     -2.827828     34.749357     34.749357     69.498714
     -2.817818     32.264639     32.264639     64.529279
     -2.807808     29.862841     29.862841     59.725683
     -2.797798     27.393559     27.393559     54.787118
     -2.787788     24.786737     24.786737     49.573473
     -2.777778     22.142868     22.142868     44.285737
     -2.767768     19.706627     19.706627     39.413253
     -2.757758     17.749254     17.749254     35.498508
     -2.747748     16.437161     16.437161     32.874323
     -2.737738     15.768846     15.768846     31.537692
     -2.727728     15.616507     15.616507     31.233013
     -2.717718     15.840165     15.840165     31.680329
     -2.707708     16.393731     16.393731     32.787462
     -2.697698     17.346845     17.346845     34.693689
     -2.687688     18.803188     18.803188     37.606376
     -2.677678     20.769502     20.769502     41.539003
     -2.667668     23.069510     23.069510     46.139021
     -2.657658     25.372828     25.372828     50.745656
     -2.647648     27.333212     27.333212     54.666423
     -2.637638     28.754037     28.754037     57.508073
     -2.627628     29.676224     29.676224     59.352448
     -2.617618     30.333320     30.333320     60.666641
     -2.607608     31.005397     31.005397     62.010793
     -2.597598     31.864858     31.864858     63.729717
     -2.587588     32.900242     32.900242     65.800483
     -2.577578     33.939975     33.939975     67.879950
     -2.567568     34.731906     34.731906     69.463813
     -2.557558     35.017106     35.017106     70.034212
     -2.547548     34.572320     34.572320     69.144641
     -2.537538     33.241992     33.241992     66.483984
     -2.527528     30.991063     30.991063     61.982125
     -2.517518     27.975620     27.975620     55.951240
     -2.507508     24.585447     24.585447     49.170894
     -2.497497     21.404302     21.404302     42.808604
     -2.487487     19.072464     19.072464     38.144928
     -2.477477     18.094658     18.094658     36.189315
     -2.467467     18.674512     18.674512     37.349024
     -2.457457     20.651128     20.651128     41.302257
     -2.447447     23.569349     23.569349     47.138699
     -2.437437     26.856170     26.856170     53.712340
     -2.427427     30.028147     30.028147     60.056294
     -2.417417     32.838975     32.838975     65.677950
     -2.407407     35.300991     35.300991     70.601983
     -2.397397     37.571269     37.571269     75.142539
     -2.387387     39.758344     39.758344     79.516688
     -2.377377     41.748842     41.748842     83.497684
     -2.367367     43.150925     43.150925     86.301850
     -2.357357     43.399747     43.399747     86.799493
     -2.347347     41.989837     41.989837     83.979674
     -2.337337     38.729920     38.729920     77.459840
     -2.327327     33.896976     33.896976     67.793953
     -2.317317     28.213048     28.213048     56.426095
     -2.307307     22.655569     22.655569     45.311138
     -2.297297     18.188468     18.188468     36.376936
     -2.287287     15.524340     15.524340     31.048681
     -2.277277     14.993442     14.993442     29.986884
     -2.267267     16.534729     16.534729     33.069458
     -2.257257     19.776546     19.776546     39.553093
     -2.247247     24.157751     24.157751     48.315502
     -2.237237     29.047450     29.047450     58.094900
     -2.227227     33.837616     33.837616     67.675231
     -2.217217     37.998553     37.998553     75.997107
     -2.207207     41.101847     41.101847     82.203694
     -2.197197     42.828477     42.828477     85.656954
     -2.187187     42.985137     42.985137     85.970274
     -2.177177     41.541251     41.541251     83.082502
     -2.167167     38.673302     38.673302     77.346604
     -2.157157     34.777632     34.777632     69.555264
     -2.147147     30.411387     30.411387     60.822774
     -2.137137     26.155140     26.155140     52.310279
     -2.127127     22.443364     22.443364     44.886728
     -2.117117     19.442672     19.442672     38.885344
     -2.107107     17.042446     17.042446     34.084891
     -2.097097     14.962843     14.962843     29.925687
     -2.087087     12.919992     12.919992     25.839984
     -2.077077     10.761328     10.761328     21.522655
     -2.067067      8.510745      8.510745     17.021489
     -2.057057      6.320780      6.320780     12.641561
     -2.047047      4.377363      4.377363      8.754727
     -2.037037      2.814833      2.814833      5.629666
     -2.027027      1.676919      1.676919      3.353838
     -2.017017      0.925683      0.925683      1.851365
     -2.007007      0.477700      0.477700      0.955400
     -1.996997      0.243355      0.243355      0.486709
     -1.986987      0.155007      0.155007      0.310015
     -1.976977      0.181847      0.181847      0.363694
     -1.966967      0.335743      0.335743      0.671486
     -1.956957      0.671903      0.671903      1.343806
     -1.946947      1.283611      1.283611      2.567223
     -1.936937      2.286323      2.286323      4.572647
     -1.926927      3.787028      3.787028      7.574056
     -1.916917      5.841659      5.841659     11.683318
     -1.906907      8.413740      8.413740     16.827480
     -1.896897     11.354517     11.354517     22.709033
     -1.886887     14.421336     14.421336     28.842671
     -1.876877     17.335628     17.335628     34.671257
     -1.866867     19.861788     19.861788     39.723576
     -1.856857     21.875151     21.875151     43.750303
     -1.846847     23.388830     23.388830     46.777659
     -1.836837     24.524339     24.524339     49.048678
     -1.826827     25.433263     25.433263     50.866527
     -1.816817     26.199136     26.199136     52.398271
     -1.806807     26.762996     26.762996     53.525992
     -1.796797     26.913860     26.913860     53.827720
     -1.786787     26.360674     26.360674     52.721348
     -1.776777     24.861588     24.861588     49.723176
     -1.766767     22.351320     22.351320     44.702641
     -1.756757     19.002601     19.002601     38.005202
     -1.746747     15.190456     15.190456     30.380912
     -1.736737     11.379352     11.379352     22.758703
     -1.726727      7.990762      7.990762     15.981524
     -1.716717      5.310871      5.310871     10.621741
     -1.706707      3.468065      3.468065      6.936130
     -1.696697      2.469780      2.469780      4.939560
     -1.686687      2.261545      2.261545      4.523090
     -1.676677      2.768590      2.768590      5.537180
     -1.666667      3.898535      3.898535      7.797069
     -1.656657      5.510884      5.510884     11.021768
     -1.646647      7.382096      7.382096     14.764193
     -1.636637      9.202653      9.202653     18.405306
     -1.626627     10.629090     10.629090     21.258181
