# EIG2DOS: Utility for SIESTA to obtain the electronic density of states
#  E. Artacho, Apr 1999, A. Garcia, Apr 2012
#  Nick R. Papior, Feb 2017
# ------------------------------------------
# Eigenvalues calculated from a non-polarized calculation
# Eigenvalues read from siesta.EIG
# Kpoint weights read from siesta.KP
# Using smearing parameter:   0.0500
# Using 1000 points in the energy range
# Selected bands: 1 to: 2981
# Emin, Emax in file for selected band(s):    -27.1195202    218.3694530
# Nbands, Nspin, Nk   =   2981     1     1
# E_F                 =    -4.2299 eV --> (shifted to ZERO)
# Broadening          =     0.0500 eV
#
#        E            N(up)  (=)   N(down)         Ntot
     -5.000000     34.609592     34.609592     69.219185
     -4.989990     38.704647     38.704647     77.409295
     -4.979980     42.086400     42.086400     84.172800
     -4.969970     44.218072     44.218072     88.436144
     -4.959960     44.744028     44.744028     89.488055
     -4.949950     43.605457     43.605457     87.210913
     -4.939940     41.069828     41.069828     82.139657
     -4.929930     37.678983     37.678983     75.357966
     -4.919920     34.152545     34.152545     68.305091
     -4.909910     31.281859     31.281859     62.563717
     -4.899900     29.821561     29.821561     59.643122
     -4.889890     30.360657     30.360657     60.721315
     -4.879880     33.162681     33.162681     66.325361
     -4.869870     38.009105     38.009105     76.018210
     -4.859860     44.128604     44.128604     88.257209
     -4.849850     50.298630     50.298630    100.597259
     -4.839840     55.141041     55.141041    110.282082
     -4.829830     57.527794     57.527794    115.055589
     -4.819820     56.933073     56.933073    113.866146
     -4.809810     53.574506     53.574506    107.149012
     -4.799800     48.283857     48.283857     96.567715
     -4.789790     42.179551     42.179551     84.359101
     -4.779780     36.299032     36.299032     72.598063
     -4.769770     31.341829     31.341829     62.683658
     -4.759760     27.591952     27.591952     55.183904
     -4.749750     24.992397     24.992397     49.984793
     -4.739740     23.290370     23.290370     46.580739
     -4.729730     22.173890     22.173890     44.347780
     -4.719720     21.356449     21.356449     42.712899
     -4.709710     20.606450     20.606450     41.212901
     -4.699700     19.745084     19.745084     39.490168
     -4.689690     18.645680     18.645680     37.291360
     -4.679680     17.258896     17.258896     34.517792
     -4.669670     15.664690     15.664690     31.329381
     -4.659660     14.125143     14.125143     28.250285
     -4.649650     13.098179     13.098179     26.196357
     -4.639640     13.180391     13.180391     26.360782
     -4.629630     14.972968     14.972968     29.945937
     -4.619620     18.895991     18.895991     37.791983
     -4.609610     25.003074     25.003074     50.006148
     -4.599600     32.863887     32.863887     65.727774
     -4.589590     41.577585     41.577585     83.155169
     -4.579580     49.945703     49.945703     99.891406
     -4.569570     56.771624     56.771624    113.543247
     -4.559560     61.190781     61.190781    122.381561
     -4.549550     62.908695     62.908695    125.817390
     -4.539540     62.254063     62.254063    124.508126
     -4.529530     60.028516     60.028516    120.057032
     -4.519520     57.214890     57.214890    114.429780
     -4.509510     54.654975     54.654975    109.309949
     -4.499499     52.809818     52.809818    105.619636
     -4.489489     51.676607     51.676607    103.353214
     -4.479479     50.873819     50.873819    101.747637
     -4.469469     49.844021     49.844021     99.688043
     -4.459459     48.085177     48.085177     96.170355
     -4.449449     45.322596     45.322596     90.645192
     -4.439439     41.572926     41.572926     83.145853
     -4.429429     37.106653     37.106653     74.213306
     -4.419419     32.355653     32.355653     64.711306
     -4.409409     27.817235     27.817235     55.634470
     -4.399399     23.979639     23.979639     47.959278
     -4.389389     21.261513     21.261513     42.523026
     -4.379379     19.947008     19.947008     39.894017
     -4.369369     20.116685     20.116685     40.233371
     -4.359359     21.603789     21.603789     43.207577
     -4.349349     24.016025     24.016025     48.032050
     -4.339339     26.839417     26.839417     53.678834
     -4.329329     29.595844     29.595844     59.191688
     -4.319319     31.990569     31.990569     63.981139
     -4.309309     33.985220     33.985220     67.970440
     -4.299299     35.765272     35.765272     71.530545
     -4.289289     37.616875     37.616875     75.233749
     -4.279279     39.761178     39.761178     79.522356
     -4.269269     42.205886     42.205886     84.411773
     -4.259259     44.668965     44.668965     89.337930
     -4.249249     46.613848     46.613848     93.227697
     -4.239239     47.405251     47.405251     94.810503
     -4.229229     46.546444     46.546444     93.092887
     -4.219219     43.907719     43.907719     87.815439
     -4.209209     39.836377     39.836377     79.672754
     -4.199199     35.078740     35.078740     70.157479
     -4.189189     30.534604     30.534604     61.069208
     -4.179179     26.953324     26.953324     53.906647
     -4.169169     24.711823     24.711823     49.423646
     -4.159159     23.768574     23.768574     47.537148
     -4.149149     23.794710     23.794710     47.589421
     -4.139139     24.399291     24.399291     48.798583
     -4.129129     25.331047     25.331047     50.662094
     -4.119119     26.561140     26.561140     53.122280
     -4.109109     28.212675     28.212675     56.425351
     -4.099099     30.376997     30.376997     60.753994
     -4.089089     32.917153     32.917153     65.834305
     -4.079079     35.377520     35.377520     70.755040
     -4.069069     37.075770     37.075770     74.151540
     -4.059059     37.358285     37.358285     74.716569
     -4.049049     35.900864     35.900864     71.801728
     -4.039039     32.897133     32.897133     65.794266
     -4.029029     29.030707     29.030707     58.061414
     -4.019019     25.244754     25.244754     50.489508
     -4.009009     22.429355     22.429355     44.858710
     -3.998999     21.176622     21.176622     42.353245
     -3.988989     21.695142     21.695142     43.390284
     -3.978979     23.876249     23.876249     47.752498
     -3.968969     27.431808     27.431808     54.863615
     -3.958959     32.015388     32.015388     64.030776
     -3.948949     37.285533     37.285533     74.571065
     -3.938939     42.925709     42.925709     85.851418
     -3.928929     48.657506     48.657506     97.315011
     -3.918919     54.262458     54.262458    108.524916
     -3.908909     59.591817     59.591817    119.183634
     -3.898899     64.531411     64.531411    129.062823
     -3.888889     68.916035     68.916035    137.832069
     -3.878879     72.434458     72.434458    144.868916
     -3.868869     74.594015     74.594015    149.188030
     -3.858859     74.797235     74.797235    149.594470
     -3.848849     72.527462     72.527462    145.054924
     -3.838839     67.577103     67.577103    135.154206
     -3.828829     60.217744     60.217744    120.435488
     -3.818819     51.226645     51.226645    102.453290
     -3.808809     41.742571     41.742571     83.485141
     -3.798799     32.995988     32.995988     65.991977
     -3.788789     26.008315     26.008315     52.016630
     -3.778779     21.360554     21.360554     42.721107
     -3.768769     19.096962     19.096962     38.193924
     -3.758759     18.777141     18.777141     37.554282
     -3.748749     19.645264     19.645264     39.290527
     -3.738739     20.860955     20.860955     41.721910
     -3.728729     21.731473     21.731473     43.462946
     -3.718719     21.891668     21.891668     43.783336
     -3.708709     21.390815     21.390815     42.781630
     -3.698699     20.662853     20.662853     41.325706
     -3.688689     20.380570     20.380570     40.761139
     -3.678679     21.225031     21.225031     42.450063
     -3.668669     23.633483     23.633483     47.266965
     -3.658659     27.609013     27.609013     55.218025
     -3.648649     32.667468     32.667468     65.334936
     -3.638639     37.953207     37.953207     75.906415
     -3.628629     42.487212     42.487212     84.974424
     -3.618619     45.451645     45.451645     90.903289
     -3.608609     46.400152     46.400152     92.800305
     -3.598599     45.324846     45.324846     90.649691
     -3.588589     42.583007     42.583007     85.166014
     -3.578579     38.743022     38.743022     77.486044
     -3.568569     34.419619     34.419619     68.839238
     -3.558559     30.141626     30.141626     60.283252
     -3.548549     26.264738     26.264738     52.529476
     -3.538539     22.931604     22.931604     45.863209
     -3.528529     20.086266     20.086266     40.172532
     -3.518519     17.546807     17.546807     35.093615
     -3.508509     15.118325     15.118325     30.236650
     -3.498498     12.702854     12.702854     25.405708
     -3.488488     10.358308     10.358308     20.716617
     -3.478478      8.282950      8.282950     16.565900
     -3.468468      6.738684      6.738684     13.477368
     -3.458458      5.950539      5.950539     11.901078
     -3.448448      6.020252      6.020252     12.040504
     -3.438438      6.878210      6.878210     13.756421
     -3.428428      8.285129      8.285129     16.570258
     -3.418418      9.887232      9.887232     19.774464
     -3.408408     11.318731     11.318731     22.637461
     -3.398398     12.326933     12.326933     24.653867
     -3.388388     12.875909     12.875909     25.751818
     -3.378378     13.181620     13.181620     26.363239
     -3.368368     13.655164     13.655164     27.310328
     -3.358358     14.771102     14.771102     29.542204
     -3.348348     16.909651     16.909651     33.819302
     -3.338338     20.225143     20.225143     40.450286
     -3.328328     24.571578     24.571578     49.143156
     -3.318318     29.491759     29.491759     58.983518
     -3.308308     34.268955     34.268955     68.537909
     -3.298298     38.045721     38.045721     76.091442
     -3.288288     40.009904     40.009904     80.019808
     -3.278278     39.616779     39.616779     79.233559
     -3.268268     36.774145     36.774145     73.548290
     -3.258258     31.903956     31.903956     63.807912
     -3.248248     25.836643     25.836643     51.673285
     -3.238238     19.574667     19.574667     39.149333
     -3.228228     14.026563     14.026563     28.053125
     -3.218218      9.816739      9.816739     19.633479
     -3.208208      7.221286      7.221286     14.442572
     -3.198198      6.209996      6.209996     12.419991
     -3.188188      6.537537      6.537537     13.075074
     -3.178178      7.837145      7.837145     15.674289
     -3.168168      9.705206      9.705206     19.410412
     -3.158158     11.788110     11.788110     23.576220
     -3.148148     13.873919     13.873919     27.747838
     -3.138138     15.961908     15.961908     31.923815
     -3.128128     18.263659     18.263659     36.527318
     -3.118118     21.105385     21.105385     42.210771
     -3.108108     24.750440     24.750440     49.500879
     -3.098098     29.213723     29.213723     58.427446
     -3.088088     34.159004     34.159004     68.318007
     -3.078078     38.938730     38.938730     77.877460
     -3.068068     42.768718     42.768718     85.537436
     -3.058058     44.964530     44.964530     89.929060
     -3.048048     45.138947     45.138947     90.277893
     -3.038038     43.284602     43.284602     86.569205
     -3.028028     39.726665     39.726665     79.453331
     -3.018018     34.991799     34.991799     69.983598
     -3.008008     29.667813     29.667813     59.335626
     -2.997998     24.312221     24.312221     48.624442
     -2.987988     19.424268     19.424268     38.848536
     -2.977978     15.454770     15.454770     30.909540
     -2.967968     12.813533     12.813533     25.627066
     -2.957958     11.845871     11.845871     23.691741
     -2.947948     12.773246     12.773246     25.546492
     -2.937938     15.614126     15.614126     31.228252
     -2.927928     20.114887     20.114887     40.229775
     -2.917918     25.726687     25.726687     51.453373
     -2.907908     31.659483     31.659483     63.318966
     -2.897898     37.023224     37.023224     74.046447
     -2.887888     41.029839     41.029839     82.059678
     -2.877878     43.192731     43.192731     86.385463
     -2.867868     43.445407     43.445407     86.890814
     -2.857858     42.123501     42.123501     84.247003
     -2.847848     39.810099     39.810099     79.620198
     -2.837838     37.107272     37.107272     74.214543
     -2.827828     34.433206     34.433206     68.866412
     -2.817818     31.931953     31.931953     63.863907
     -2.807808     29.525498     29.525498     59.050996
     -2.797798     27.065312     27.065312     54.130625
     -2.787788     24.492384     24.492384     48.984768
     -2.777778     21.917425     21.917425     43.834850
     -2.767768     19.584399     19.584399     39.168798
     -2.757758     17.750393     17.750393     35.500786
     -2.747748     16.562376     16.562376     33.124752
     -2.737738     16.008392     16.008392     32.016785
     -2.727728     15.969201     15.969201     31.938402
     -2.717718     16.328402     16.328402     32.656805
     -2.707708     17.059043     17.059043     34.118086
     -2.697698     18.220829     18.220829     36.441658
     -2.687688     19.866255     19.866255     39.732510
     -2.677678     21.923350     21.923350     43.846701
     -2.667668     24.147326     24.147326     48.294652
     -2.657658     26.191570     26.191570     52.383140
     -2.647648     27.765750     27.765750     55.531500
     -2.637638     28.783270     28.783270     57.566541
     -2.627628     29.401083     29.401083     58.802166
     -2.617618     29.923883     29.923883     59.847766
     -2.607608     30.632873     30.632873     61.265747
     -2.597598     31.642489     31.642489     63.284978
     -2.587588     32.858237     32.858237     65.716474
     -2.577578     34.033999     34.033999     68.067998
     -2.567568     34.868877     34.868877     69.737754
     -2.557558     35.083211     35.083211     70.166421
     -2.547548     34.459265     34.459265     68.918529
     -2.537538     32.874719     32.874719     65.749438
     -2.527528     30.356217     30.356217     60.712434
     -2.517518     27.140435     27.140435     54.280870
     -2.507508     23.693003     23.693003     47.386006
     -2.497497     20.639234     20.639234     41.278469
     -2.487487     18.606341     18.606341     37.212682
     -2.477477     18.031895     18.031895     36.063790
     -2.467467     19.020431     19.020431     38.040861
     -2.457457     21.313978     21.313978     42.627956
     -2.447447     24.393722     24.393722     48.787445
     -2.437437     27.673138     27.673138     55.346277
     -2.427427     30.702365     30.702365     61.404730
     -2.417417     33.296283     33.296283     66.592565
     -2.407407     35.529607     35.529607     71.059215
     -2.397397     37.600822     37.600822     75.201643
     -2.387387     39.628929     39.628929     79.257859
     -2.377377     41.484498     41.484498     82.968995
     -2.367367     42.748596     42.748596     85.497191
     -2.357357     42.837696     42.837696     85.675392
     -2.347347     41.250610     41.250610     82.501220
     -2.337337     37.825660     37.825660     75.651321
     -2.327327     32.883127     32.883127     65.766254
     -2.317317     27.182396     27.182396     54.364793
     -2.307307     21.715473     21.715473     43.430945
     -2.297297     17.433086     17.433086     34.866172
     -2.287287     15.015036     15.015036     30.030073
     -2.277277     14.753974     14.753974     29.507948
     -2.267267     16.558701     16.558701     33.117402
     -2.257257     20.038880     20.038880     40.077761
     -2.247247     24.622264     24.622264     49.244527
     -2.237237     29.667352     29.667352     59.334704
     -2.227227     34.551319     34.551319     69.102637
     -2.217217     38.726607     38.726607     77.453215
     -2.207207     41.750909     41.750909     83.501818
     -2.197197     43.305156     43.305156     86.610313
     -2.187187     43.217540     43.217540     86.435080
     -2.177177     41.500895     41.500895     83.001791
     -2.167167     38.387291     38.387291     76.774583
     -2.157157     34.322916     34.322916     68.645832
     -2.147147     29.890125     29.890125     59.780250
     -2.137137     25.659831     25.659831     51.319661
     -2.127127     22.026962     22.026962     44.053923
     -2.117117     19.107494     19.107494     38.214987
     -2.107107     16.752187     16.752187     33.504373
     -2.097097     14.669802     14.669802     29.339604
     -2.087087     12.592345     12.592345     25.184690
     -2.077077     10.397198     10.397198     20.794396
     -2.067067      8.134874      8.134874     16.269747
     -2.057057      5.969403      5.969403     11.938806
     -2.047047      4.081501      4.081501      8.163002
     -2.037037      2.590165      2.590165      5.180330
     -2.027027      1.522689      1.522689      3.045378
     -2.017017      0.830049      0.830049      1.660097
     -2.007007      0.425104      0.425104      0.850207
     -1.996997      0.220613      0.220613      0.441225
     -1.986987      0.155030      0.155030      0.310060
     -1.976977      0.205472      0.205472      0.410944
     -1.966967      0.392398      0.392398      0.784795
     -1.956957      0.779038      0.779038      1.558075
     -1.946947      1.463866      1.463866      2.927732
     -1.936937      2.561238      2.561238      5.122476
     -1.926927      4.167404      4.167404      8.334807
     -1.916917      6.317227      6.317227     12.634455
     -1.906907      8.947151      8.947151     17.894301
     -1.896897     11.884700     11.884700     23.769400
     -1.886887     14.877881     14.877881     29.755763
     -1.876877     17.660167     17.660167     35.320335
     -1.866867     20.027831     20.027831     40.055661
     -1.856857     21.897523     21.897523     43.795046
     -1.846847     23.318127     23.318127     46.636253
     -1.836837     24.428151     24.428151     48.856303
     -1.826827     25.371022     25.371022     50.742043
     -1.816817     26.199636     26.199636     52.399272
     -1.806807     26.812921     26.812921     53.625841
     -1.796797     26.962287     26.962287     53.924574
     -1.786787     26.338916     26.338916     52.677832
     -1.776777     24.711092     24.711092     49.422185
     -1.766767     22.047930     22.047930     44.095860
     -1.756757     18.566550     18.566550     37.133101
     -1.746747     14.678369     14.678369     29.356738
     -1.736737     10.863493     10.863493     21.726986
     -1.726727      7.536398      7.536398     15.072795
     -1.716717      4.961687      4.961687      9.923374
     -1.706707      3.243550      3.243550      6.487100
     -1.696697      2.371561      2.371561      4.743123
     -1.686687      2.281913      2.281913      4.563826
     -1.676677      2.895140      2.895140      5.790280
     -1.666667      4.112794      4.112794      8.225588
     -1.656657      5.783446      5.783446     11.566893
     -1.646647      7.669732      7.669732     15.339463
     -1.636637      9.452469      9.452469     18.904937
     -1.626627     10.791048     10.791048     21.582095
