# EIG2DOS: Utility for SIESTA to obtain the electronic density of states
#  E. Artacho, Apr 1999, A. Garcia, Apr 2012
#  Nick R. Papior, Feb 2017
# ------------------------------------------
# Eigenvalues calculated from a non-polarized calculation
# Eigenvalues read from siesta.EIG
# Kpoint weights read from siesta.KP
# Using smearing parameter:   0.0500
# Using 1000 points in the energy range
# Selected bands: 1 to: 2981
# Emin, Emax in file for selected band(s):    -27.0800746    218.3556700
# Nbands, Nspin, Nk   =   2981     1     1
# E_F                 =    -4.2499 eV --> (shifted to ZERO)
# Broadening          =     0.0500 eV
#
#        E            N(up)  (=)   N(down)         Ntot
     -5.000000     35.093752     35.093752     70.187503
     -4.989990     38.767798     38.767798     77.535595
     -4.979980     41.733832     41.733832     83.467664
     -4.969970     43.528329     43.528329     87.056659
     -4.959960     43.862924     43.862924     87.725848
     -4.949950     42.707281     42.707281     85.414561
     -4.939940     40.307442     40.307442     80.614885
     -4.929930     37.145656     37.145656     74.291313
     -4.919920     33.868944     33.868944     67.737888
     -4.909910     31.208719     31.208719     62.417438
     -4.899900     29.889107     29.889107     59.778214
     -4.889890     30.502123     30.502123     61.004245
     -4.879880     33.339833     33.339833     66.679665
     -4.869870     38.220799     38.220799     76.441598
     -4.859860     44.399373     44.399373     88.798747
     -4.849850     50.652935     50.652935    101.305869
     -4.839840     55.576611     55.576611    111.153223
     -4.829830     58.002963     58.002963    116.005927
     -4.819820     57.375493     57.375493    114.750986
     -4.809810     53.906204     53.906204    107.812408
     -4.799800     48.448645     48.448645     96.897290
     -4.789790     42.159330     42.159330     84.318661
     -4.779780     36.114077     36.114077     72.228153
     -4.769770     31.039479     31.039479     62.078957
     -4.759760     27.231935     27.231935     54.463871
     -4.749750     24.634487     24.634487     49.268974
     -4.739740     22.985566     22.985566     45.971131
     -4.729730     21.958166     21.958166     43.916333
     -4.719720     21.246949     21.246949     42.493897
     -4.709710     20.601169     20.601169     41.202339
     -4.699700     19.826328     19.826328     39.652656
     -4.689690     18.785235     18.785235     37.570469
     -4.679680     17.421505     17.421505     34.843010
     -4.669670     15.807653     15.807653     31.615307
     -4.659660     14.194942     14.194942     28.389885
     -4.649650     13.027494     13.027494     26.054988
     -4.639640     12.888706     12.888706     25.777412
     -4.629630     14.371006     14.371006     28.742013
     -4.619620     17.890028     17.890028     35.780056
     -4.609610     23.492847     23.492847     46.985694
     -4.599600     30.730917     30.730917     61.461835
     -4.589590     38.670868     38.670868     77.341736
     -4.579580     46.084924     46.084924     92.169848
     -4.569570     51.793414     51.793414    103.586827
     -4.559560     55.049253     55.049253    110.098506
     -4.549550     55.806434     55.806434    111.612869
     -4.539540     54.741298     54.741298    109.482596
     -4.529530     52.995642     52.995642    105.991284
     -4.519520     51.736956     51.736956    103.473911
     -4.509510     51.717277     51.717277    103.434554
     -4.499499     53.013110     53.013110    106.026220
     -4.489489     55.044420     55.044420    110.088841
     -4.479479     56.844221     56.844221    113.688441
     -4.469469     57.444762     57.444762    114.889524
     -4.459459     56.212063     56.212063    112.424126
     -4.449449     53.008172     53.008172    106.016344
     -4.439439     48.157048     48.157048     96.314096
     -4.429429     42.279284     42.279284     84.558569
     -4.419419     36.098325     36.098325     72.196650
     -4.409409     30.297063     30.297063     60.594125
     -4.399399     25.445621     25.445621     50.891241
     -4.389389     21.971038     21.971038     43.942076
     -4.379379     20.127807     20.127807     40.255615
     -4.369369     19.955329     19.955329     39.910659
     -4.359359     21.247428     21.247428     42.494856
     -4.349349     23.576313     23.576313     47.152626
     -4.339339     26.392983     26.392983     52.785965
     -4.329329     29.181375     29.181375     58.362750
     -4.319319     31.606483     31.606483     63.212965
     -4.309309     33.593050     33.593050     67.186099
     -4.299299     35.302690     35.302690     70.605379
     -4.289289     37.021504     37.021504     74.043008
     -4.279279     39.002208     39.002208     78.004416
     -4.269269     41.314889     41.314889     82.629778
     -4.259259     43.756207     43.756207     87.512414
     -4.249249     45.856323     45.856323     91.712645
     -4.239239     47.001863     47.001863     94.003725
     -4.229229     46.652475     46.652475     93.304949
     -4.219219     44.575436     44.575436     89.150873
     -4.209209     40.989973     40.989973     81.979946
     -4.199199     36.536245     36.536245     73.072491
     -4.189189     32.065715     32.065715     64.131430
     -4.179179     28.345414     28.345414     56.690828
     -4.169169     25.816441     25.816441     51.632882
     -4.159159     24.515059     24.515059     49.030117
     -4.149149     24.175387     24.175387     48.350775
     -4.139139     24.441857     24.441857     48.883713
     -4.129129     25.074943     25.074943     50.149885
     -4.119119     26.048548     26.048548     52.097095
     -4.109109     27.495493     27.495493     54.990986
     -4.099099     29.532197     29.532197     59.064395
     -4.089089     32.057331     32.057331     64.114662
     -4.079079     34.644254     34.644254     69.288507
     -4.069069     36.611845     36.611845     73.223690
     -4.059059     37.267465     37.267465     74.534930
     -4.049049     36.213072     36.213072     72.426143
     -4.039039     33.555919     33.555919     67.111838
     -4.029029     29.908606     29.908606     59.817212
     -4.019019     26.178023     26.178023     52.356046
     -4.009009     23.256108     23.256108     46.512216
     -3.998999     21.765307     21.765307     43.530615
     -3.988989     21.959382     21.959382     43.918764
     -3.978979     23.779426     23.779426     47.558852
     -3.968969     26.985798     26.985798     53.971596
     -3.958959     31.274285     31.274285     62.548569
     -3.948949     36.332367     36.332367     72.664735
     -3.938939     41.851944     41.851944     83.703887
     -3.928929     47.540574     47.540574     95.081147
     -3.918919     53.151321     53.151321    106.302642
     -3.908909     58.509569     58.509569    117.019138
     -3.898899     63.496019     63.496019    126.992039
     -3.888889     67.969043     67.969043    135.938087
     -3.878879     71.659890     71.659890    143.319781
     -3.868869     74.111934     74.111934    148.223868
     -3.858859     74.729039     74.729039    149.458078
     -3.848849     72.946428     72.946428    145.892856
     -3.838839     68.467886     68.467886    136.935772
     -3.828829     61.465653     61.465653    122.931306
     -3.818819     52.642965     52.642965    105.285929
     -3.808809     43.114973     43.114973     86.229945
     -3.798799     34.143060     34.143060     68.286120
     -3.788789     26.818807     26.818807     53.637614
     -3.778779     21.807796     21.807796     43.615592
     -3.768769     19.229803     19.229803     38.459606
     -3.758759     18.695283     18.695283     37.390566
     -3.748749     19.468018     19.468018     38.936035
     -3.738739     20.696619     20.696619     41.393238
     -3.728729     21.652534     21.652534     43.305067
     -3.718719     21.919783     21.919783     43.839567
     -3.708709     21.494557     21.494557     42.989114
     -3.698699     20.769396     20.769396     41.538792
     -3.688689     20.399515     20.399515     40.799030
     -3.678679     21.078787     21.078787     42.157574
     -3.668669     23.285417     23.285417     46.570834
     -3.658659     27.079823     27.079823     54.159645
     -3.648649     32.033219     32.033219     64.066438
     -3.638639     37.325106     37.325106     74.650211
     -3.628629     41.980626     41.980626     83.961252
     -3.618619     45.156189     45.156189     90.312378
     -3.608609     46.361115     46.361115     92.722230
     -3.598599     45.539853     45.539853     91.079707
     -3.588589     43.010875     43.010875     86.021751
     -3.578579     39.318407     39.318407     78.636815
     -3.568569     35.068215     35.068215     70.136430
     -3.558559     30.793569     30.793569     61.587138
     -3.548549     26.865425     26.865425     53.730850
     -3.538539     23.448624     23.448624     46.897248
     -3.528529     20.510527     20.510527     41.021053
     -3.518519     17.887164     17.887164     35.774329
     -3.508509     15.391806     15.391806     30.783611
     -3.498498     12.924774     12.924774     25.849548
     -3.488488     10.536335     10.536335     21.072670
     -3.478478      8.416685      8.416685     16.833370
     -3.468468      6.823506      6.823506     13.647012
     -3.458458      5.982987      5.982987     11.965974
     -3.448448      6.002480      6.002480     12.004960
     -3.438438      6.820020      6.820020     13.640039
     -3.428428      8.202917      8.202917     16.405834
     -3.418418      9.799809      9.799809     19.599618
     -3.408408     11.240788     11.240788     22.481577
     -3.398398     12.262125     12.262125     24.524250
     -3.388388     12.812267     12.812267     25.624535
     -3.378378     13.091610     13.091610     26.183221
     -3.368368     13.500942     13.500942     27.001884
     -3.358358     14.513647     14.513647     29.027295
     -3.348348     16.519652     16.519652     33.039303
     -3.338338     19.693988     19.693988     39.387977
     -3.328328     23.921256     23.921256     47.842512
     -3.318318     28.781347     28.781347     57.562694
     -3.308308     33.593171     33.593171     67.186342
     -3.298298     37.520460     37.520460     75.040919
     -3.288288     39.743756     39.743756     79.487513
     -3.278278     39.675500     39.675500     79.350999
     -3.268268     37.151450     37.151450     74.302899
     -3.258258     32.510720     32.510720     65.021439
     -3.248248     26.510420     26.510420     53.020839
     -3.238238     20.099095     20.099095     40.198190
     -3.228228     14.145465     14.145465     28.290930
     -3.218218      9.235957      9.235957     18.471913
     -3.208208      5.608378      5.608378     11.216756
     -3.198198      3.216233      3.216233      6.432465
     -3.188188      1.865827      1.865827      3.731654
     -3.178178      1.358609      1.358609      2.717218
     -3.168168      1.593115      1.593115      3.186229
     -3.158158      2.608595      2.608595      5.217190
     -3.148148      4.568680      4.568680      9.137359
     -3.138138      7.689038      7.689038     15.378076
     -3.128128     12.119950     12.119950     24.239900
     -3.118118     17.811544     17.811544     35.623088
     -3.108108     24.411174     24.411174     48.822348
     -3.098098     31.251252     31.251252     62.502504
     -3.088088     37.464177     37.464177     74.928354
     -3.078078     42.207609     42.207609     84.415218
     -3.068068     44.921140     44.921140     89.842280
     -3.058058     45.501587     45.501587     91.003173
     -3.048048     44.307125     44.307125     88.614250
     -3.038038     41.978171     41.978171     83.956343
     -3.028028     39.157558     39.157558     78.315116
     -3.018018     36.249418     36.249418     72.498835
     -3.008008     33.337141     33.337141     66.674281
     -2.997998     30.292321     30.292321     60.584642
     -2.987988     27.000431     27.000431     54.000861
     -2.977978     23.569434     23.569434     47.138868
     -2.967968     20.407427     20.407427     40.814854
     -2.957958     18.134413     18.134413     36.268825
     -2.947948     17.377474     17.377474     34.754948
     -2.937938     18.542139     18.542139     37.084277
     -2.927928     21.646459     21.646459     43.292919
     -2.917918     26.269557     26.269557     52.539114
     -2.907908     31.627877     31.627877     63.255754
     -2.897898     36.759640     36.759640     73.519281
     -2.887888     40.768916     40.768916     81.537832
     -2.877878     43.057124     43.057124     86.114249
     -2.867868     43.463698     43.463698     86.927396
     -2.857858     42.262066     42.262066     84.524132
     -2.847848     40.010863     40.010863     80.021725
     -2.837838     37.321836     37.321836     74.643671
     -2.827828     34.643813     34.643813     69.287625
     -2.817818     32.153442     32.153442     64.306884
     -2.807808     29.789660     29.789660     59.579320
     -2.797798     27.396775     27.396775     54.793550
     -2.787788     24.888988     24.888988     49.777977
     -2.777778     22.345202     22.345202     44.690404
     -2.767768     19.988683     19.988683     39.977366
     -2.757758     18.075232     18.075232     36.150464
     -2.747748     16.765962     16.765962     33.531924
     -2.737738     16.065867     16.065867     32.131733
     -2.727728     15.863804     15.863804     31.727609
     -2.717718     16.041278     16.041278     32.082557
     -2.707708     16.570277     16.570277     33.140555
     -2.697698     17.526829     17.526829     35.053657
     -2.687688     19.005275     19.005275     38.010549
     -2.677678     20.990852     20.990852     41.981704
     -2.667668     23.284376     23.284376     46.568752
     -2.657658     25.543981     25.543981     51.087962
     -2.647648     27.430914     27.430914     54.861827
     -2.637638     28.772228     28.772228     57.544456
     -2.627628     29.636682     29.636682     59.273364
     -2.617618     30.275434     30.275434     60.550869
     -2.607608     30.967603     30.967603     61.935206
     -2.597598     31.868100     31.868100     63.736201
     -2.587588     32.941469     32.941469     65.882937
     -2.577578     33.996890     33.996890     67.993780
     -2.567568     34.774033     34.774033     69.548066
     -2.557558     35.016746     35.016746     70.033492
     -2.547548     34.511910     34.511910     69.023820
     -2.537538     33.118227     33.118227     66.236453
     -2.527528     30.817425     30.817425     61.634850
     -2.517518     27.783166     27.783166     55.566333
     -2.507508     24.419432     24.419432     48.838865
     -2.497497     21.314308     21.314308     42.628616
     -2.487487     19.096776     19.096776     38.193552
     -2.477477     18.243756     18.243756     36.487511
     -2.467467     18.920809     18.920809     37.841618
     -2.457457     20.930764     20.930764     41.861529
     -2.447447     23.797183     23.797183     47.594366
     -2.437437     26.949318     26.949318     53.898636
     -2.427427     29.929521     29.929521     59.859042
     -2.417417     32.532492     32.532492     65.064984
     -2.407407     34.814254     34.814254     69.628508
     -2.397397     36.966893     36.966893     73.933787
     -2.387387     39.118519     39.118519     78.237039
     -2.377377     41.157896     41.157896     82.315792
     -2.367367     42.679066     42.679066     85.358131
     -2.357357     43.090088     43.090088     86.180176
     -2.347347     41.850956     41.850956     83.701912
     -2.337337     38.736221     38.736221     77.472441
     -2.327327     33.997485     33.997485     67.994969
     -2.317317     28.346264     28.346264     56.692527
     -2.307307     22.765621     22.765621     45.531242
     -2.297297     18.237706     18.237706     36.475411
     -2.287287     15.499458     15.499458     30.998917
     -2.277277     14.904641     14.904641     29.809283
     -2.267267     16.409127     16.409127     32.818255
     -2.257257     19.648039     19.648039     39.296077
     -2.247247     24.056331     24.056331     48.112662
     -2.237237     28.991440     28.991440     57.982880
     -2.227227     33.831385     33.831385     67.662771
     -2.217217     38.035890     38.035890     76.071779
     -2.207207     41.172348     41.172348     82.344696
     -2.197197     42.923154     42.923154     85.846308
     -2.187187     43.098654     43.098654     86.197308
     -2.177177     41.670811     41.670811     83.341623
     -2.167167     38.816085     38.816085     77.632170
     -2.157157     34.928798     34.928798     69.857596
     -2.147147     30.563527     30.563527     61.127054
     -2.137137     26.298952     26.298952     52.597904
     -2.127127     22.569006     22.569006     45.138012
     -2.117117     19.541435     19.541435     39.082870
     -2.107107     17.108527     17.108527     34.217053
     -2.097097     14.994814     14.994814     29.989628
     -2.087087     12.921362     12.921362     25.842723
     -2.077077     10.739757     10.739757     21.479514
     -2.067067      8.476037      8.476037     16.952075
     -2.057057      6.282395      6.282395     12.564789
     -2.047047      4.342407      4.342407      8.684814
     -2.037037      2.787193      2.787193      5.574386
     -2.027027      1.657583      1.657583      3.315167
     -2.017017      0.913836      0.913836      1.827672
     -2.007007      0.472067      0.472067      0.944135
     -1.996997      0.243474      0.243474      0.486949
     -1.986987      0.162385      0.162385      0.324770
     -1.976977      0.201061      0.201061      0.402122
     -1.966967      0.375349      0.375349      0.750699
     -1.956957      0.744510      0.744510      1.489020
     -1.946947      1.404029      1.404029      2.808057
     -1.936937      2.466697      2.466697      4.933393
     -1.926927      4.028738      4.028738      8.057477
     -1.916917      6.125304      6.125304     12.250609
     -1.906907      8.689722      8.689722     17.379445
     -1.896897     11.536285     11.536285     23.072571
     -1.886887     14.380971     14.380971     28.761941
     -1.876877     16.899216     16.899216     33.798433
     -1.866867     18.803571     18.803571     37.607143
     -1.856857     19.916574     19.916574     39.833149
     -1.846847     20.217977     20.217977     40.435953
     -1.836837     19.854207     19.854207     39.708414
     -1.826827     19.105482     19.105482     38.210964
     -1.816817     18.313327     18.313327     36.626655
     -1.806807     17.783438     17.783438     35.566876
     -1.796797     17.693626     17.693626     35.387253
     -1.786787     18.042020     18.042020     36.084041
     -1.776777     18.656385     18.656385     37.312770
     -1.766767     19.257066     19.257066     38.514131
     -1.756757     19.543270     19.543270     39.086539
     -1.746747     19.270816     19.270816     38.541631
     -1.736737     18.305476     18.305476     36.610951
     -1.726727     16.651765     16.651765     33.303530
     -1.716717     14.459889     14.459889     28.919778
     -1.706707     12.007710     12.007710     24.015419
     -1.696697      9.653165      9.653165     19.306329
     -1.686687      7.761194      7.761194     15.522387
     -1.676677      6.620905      6.620905     13.241811
     -1.666667      6.373831      6.373831     12.747661
     -1.656657      6.971189      6.971189     13.942377
     -1.646647      8.172774      8.172774     16.345548
     -1.636637      9.595080      9.595080     19.190159
     -1.626627     10.807331     10.807331     21.614663
