# EIG2DOS: Utility for SIESTA to obtain the electronic density of states
#  E. Artacho, Apr 1999, A. Garcia, Apr 2012
#  Nick R. Papior, Feb 2017
# ------------------------------------------
# Eigenvalues calculated from a non-polarized calculation
# Eigenvalues read from siesta.EIG
# Kpoint weights read from siesta.KP
# Using smearing parameter:   0.0500
# Using 1000 points in the energy range
# Selected bands: 1 to: 2981
# Emin, Emax in file for selected band(s):    -27.1206216    218.3404500
# Nbands, Nspin, Nk   =   2981     1     1
# E_F                 =    -4.2676 eV --> (shifted to ZERO)
# Broadening          =     0.0500 eV
#
#        E            N(up)  (=)   N(down)         Ntot
     -5.000000     35.898343     35.898343     71.796687
     -4.989990     38.980060     38.980060     77.960120
     -4.979980     41.443911     41.443911     82.887821
     -4.969970     42.874175     42.874175     85.748351
     -4.959960     43.022133     43.022133     86.044266
     -4.949950     41.864141     41.864141     83.728283
     -4.939940     39.610763     39.610763     79.221526
     -4.929930     36.676826     36.676826     73.353652
     -4.919920     33.632195     33.632195     67.264391
     -4.909910     31.144436     31.144436     62.288873
     -4.899900     29.903393     29.903393     59.806786
     -4.889890     30.503242     30.503242     61.006483
     -4.879880     33.271753     33.271753     66.543506
     -4.869870     38.083784     38.083784     76.167568
     -4.859860     44.249170     44.249170     88.498341
     -4.849850     50.576529     50.576529    101.153059
     -4.839840     55.653101     55.653101    111.306203
     -4.829830     58.266854     58.266854    116.533708
     -4.819820     57.799750     57.799750    115.599501
     -4.809810     54.412295     54.412295    108.824591
     -4.799800     48.936730     48.936730     97.873459
     -4.789790     42.542836     42.542836     85.085671
     -4.779780     36.343936     36.343936     72.687873
     -4.769770     31.111626     31.111626     62.223253
     -4.759760     27.180357     27.180357     54.360713
     -4.749750     24.516191     24.516191     49.032382
     -4.739740     22.863329     22.863329     45.726659
     -4.729730     21.884965     21.884965     43.769930
     -4.719720     21.254945     21.254945     42.509890
     -4.709710     20.697533     20.697533     41.395067
     -4.699700     19.996461     19.996461     39.992922
     -4.689690     19.001089     19.001089     38.002178
     -4.679680     17.650384     17.650384     35.300768
     -4.669670     16.017016     16.017016     32.034032
     -4.659660     14.351371     14.351371     28.702743
     -4.649650     13.091539     13.091539     26.183079
     -4.639640     12.810136     12.810136     25.620272
     -4.629630     14.090186     14.090186     28.180371
     -4.619620     17.350066     17.350066     34.700133
     -4.609610     22.662909     22.662909     45.325817
     -4.599600     29.633632     29.633632     59.267265
     -4.589590     37.399182     37.399182     74.798364
     -4.579580     44.792138     44.792138     89.584276
     -4.569570     50.649782     50.649782    101.299563
     -4.559560     54.177596     54.177596    108.355192
     -4.549550     55.227050     55.227050    110.454100
     -4.539540     54.359361     54.359361    108.718721
     -4.529530     52.646078     52.646078    105.292155
     -4.519520     51.270597     51.270597    102.541193
     -4.509510     51.086495     51.086495    102.172991
     -4.499499     52.311928     52.311928    104.623857
     -4.489489     54.480626     54.480626    108.961253
     -4.479479     56.656432     56.656432    113.312863
     -4.469469     57.804968     57.804968    115.609937
     -4.459459     57.158624     57.158624    114.317248
     -4.449449     54.435101     54.435101    108.870202
     -4.439439     49.856027     49.856027     99.712053
     -4.429429     44.008441     44.008441     88.016882
     -4.419419     37.646530     37.646530     75.293059
     -4.409409     31.522797     31.522797     63.045595
     -4.399399     26.286035     26.286035     52.572069
     -4.389389     22.429670     22.429670     44.859340
     -4.379379     20.253764     20.253764     40.507529
     -4.369369     19.823383     19.823383     39.646767
     -4.359359     20.942159     20.942159     41.884317
     -4.349349     23.178826     23.178826     46.357651
     -4.339339     25.968192     25.968192     51.936384
     -4.329329     28.766424     28.766424     57.532848
     -4.319319     31.203667     31.203667     62.407334
     -4.309309     33.171301     33.171301     66.342601
     -4.299299     34.809842     34.809842     69.619685
     -4.289289     36.406509     36.406509     72.813019
     -4.279279     38.243097     38.243097     76.486194
     -4.269269     40.444828     40.444828     80.889656
     -4.259259     42.876916     42.876916     85.753832
     -4.249249     45.128084     45.128084     90.256167
     -4.239239     46.605708     46.605708     93.211416
     -4.229229     46.733013     46.733013     93.466025
     -4.219219     45.185891     45.185891     90.371782
     -4.209209     42.064762     42.064762     84.129524
     -4.199199     37.905617     37.905617     75.811234
     -4.189189     33.506696     33.506696     67.013391
     -4.179179     29.646037     29.646037     59.292074
     -4.169169     26.826327     26.826327     53.652653
     -4.159159     25.165563     25.165563     50.331126
     -4.149149     24.468703     24.468703     48.937405
     -4.139139     24.421285     24.421285     48.842570
     -4.129129     24.793515     24.793515     49.587030
     -4.119119     25.550705     25.550705     51.101410
     -4.109109     26.818961     26.818961     53.637922
     -4.099099     28.726693     28.726693     57.453386
     -4.089089     31.206731     31.206731     62.413461
     -4.079079     33.874502     33.874502     67.749004
     -4.069069     36.072640     36.072640     72.145281
     -4.059059     37.090423     37.090423     74.180846
     -4.049049     36.464439     36.464439     72.928878
     -4.039039     34.207400     34.207400     68.414800
     -4.029029     30.840978     30.840978     61.681956
     -4.019019     27.214769     27.214769     54.429537
     -4.009009     24.210108     24.210108     48.420216
     -3.998999     22.479268     22.479268     44.958536
     -3.988989     22.329115     22.329115     44.658231
     -3.978979     23.760173     23.760173     47.520346
     -3.968969     26.587628     26.587628     53.175257
     -3.958959     30.551638     30.551638     61.103275
     -3.948949     35.369075     35.369075     70.738149
     -3.938939     40.741781     40.741781     81.483563
     -3.928929     46.366200     46.366200     92.732401
     -3.918919     51.968857     51.968857    103.937714
     -3.908909     57.347447     57.347447    114.694894
     -3.898899     62.371962     62.371962    124.743925
     -3.888889     66.919008     66.919008    133.838017
     -3.878879     70.763009     70.763009    141.526019
     -3.868869     73.493066     73.493066    146.986132
     -3.858859     74.529609     74.529609    149.059218
     -3.848849     73.271613     73.271613    146.543225
     -3.838839     69.333906     69.333906    138.667812
     -3.828829     62.774288     62.774288    125.548575
     -3.818819     54.198080     54.198080    108.396160
     -3.808809     44.675008     44.675008     89.350017
     -3.798799     35.486847     35.486847     70.973694
     -3.788789     27.798918     27.798918     55.597835
     -3.778779     22.375258     22.375258     44.750516
     -3.768769     19.428342     19.428342     38.856684
     -3.758759     18.633700     18.633700     37.267399
     -3.748749     19.282572     19.282572     38.565145
     -3.738739     20.513547     20.513547     41.027094
     -3.728729     21.557753     21.557753     43.115506
     -3.718719     21.940639     21.940639     43.881277
     -3.708709     21.596782     21.596782     43.193564
     -3.698699     20.870398     20.870398     41.740796
     -3.688689     20.395804     20.395804     40.791608
     -3.678679     20.881290     20.881290     41.762580
     -3.668669     22.852721     22.852721     45.705441
     -3.658659     26.438119     26.438119     52.876238
     -3.648649     31.274740     31.274740     62.549481
     -3.638639     36.584259     36.584259     73.168519
     -3.628629     41.396165     41.396165     82.792330
     -3.618619     44.833715     44.833715     89.667430
     -3.608609     46.349283     46.349283     92.698566
     -3.598599     45.826287     45.826287     91.652575
     -3.588589     43.534819     43.534819     87.069637
     -3.578579     39.991914     39.991914     79.983827
     -3.568569     35.798083     35.798083     71.596167
     -3.558559     31.499588     31.499588     62.999176
     -3.548549     27.493033     27.493033     54.986066
     -3.538539     23.974493     23.974493     47.948986
     -3.528529     20.939687     20.939687     41.879374
     -3.518519     18.242166     18.242166     36.484332
     -3.508509     15.697781     15.697781     31.395561
     -3.498498     13.196503     13.196503     26.393006
     -3.488488     10.772409     10.772409     21.544818
     -3.478478      8.602108      8.602108     17.204217
     -3.468468      6.938206      6.938206     13.876411
     -3.458458      6.011989      6.011989     12.023979
     -3.448448      5.944124      5.944124     11.888248
     -3.438438      6.689992      6.689992     13.379983
     -3.428428      8.032884      8.032884     16.065768
     -3.418418      9.630168      9.630168     19.260336
     -3.408408     11.108548     11.108548     22.217096
     -3.398398     12.187227     12.187227     24.374453
     -3.388388     12.787413     12.787413     25.574826
     -3.378378     13.080062     13.080062     26.160124
     -3.368368     13.443681     13.443681     26.887362
     -3.358358     14.343639     14.343639     28.687278
     -3.348348     16.179258     16.179258     32.358517
     -3.338338     19.152323     19.152323     38.304647
     -3.328328     23.189527     23.189527     46.379053
     -3.318318     27.923401     27.923401     55.846801
     -3.308308     32.725643     32.725643     65.451286
     -3.298298     36.795873     36.795873     73.591746
     -3.288288     39.314814     39.314814     78.629628
     -3.278278     39.649364     39.649364     79.298728
     -3.268268     37.552492     37.552492     75.104985
     -3.258258     33.270681     33.270681     66.541361
     -3.248248     27.493603     27.493603     54.987206
     -3.238238     21.153700     21.153700     42.307401
     -3.228228     15.161319     15.161319     30.322637
     -3.218218     10.189919     10.189919     20.379838
     -3.208208      6.588002      6.588002     13.176003
     -3.198198      4.420269      4.420269      8.840538
     -3.188188      3.580112      3.580112      7.160225
     -3.178178      3.900286      3.900286      7.800572
     -3.168168      5.215664      5.215664     10.431329
     -3.158158      7.375210      7.375210     14.750420
     -3.148148     10.231285     10.231285     20.462570
     -3.138138     13.637838     13.637838     27.275677
     -3.128128     17.467384     17.467384     34.934769
     -3.118118     21.628387     21.628387     43.256774
     -3.108108     26.053165     26.053165     52.106330
     -3.098098     30.644280     30.644280     61.288560
     -3.088088     35.203676     35.203676     70.407351
     -3.078078     39.394365     39.394365     78.788730
     -3.068068     42.774503     42.774503     85.549006
     -3.058058     44.900898     44.900898     89.801796
     -3.048048     45.454168     45.454168     90.908336
     -3.038038     44.324785     44.324785     88.649570
     -3.028028     41.626964     41.626964     83.253929
     -3.018018     37.652552     37.652552     75.305105
     -3.008008     32.805555     32.805555     65.611110
     -2.997998     27.552946     27.552946     55.105892
     -2.987988     22.399991     22.399991     44.799981
     -2.977978     17.873730     17.873730     35.747461
     -2.967968     14.492831     14.492831     28.985661
     -2.957958     12.713093     12.713093     25.426185
     -2.947948     12.852630     12.852630     25.705260
     -2.937938     15.010692     15.010692     30.021384
     -2.927928     19.000735     19.000735     38.001470
     -2.917918     24.324679     24.324679     48.649358
     -2.907908     30.216884     30.216884     60.433769
     -2.897898     35.773054     35.773054     71.546107
     -2.887888     40.147061     40.147061     80.294123
     -2.877878     42.759649     42.759649     85.519297
     -2.867868     43.440903     43.440903     86.881806
     -2.857858     42.443121     42.443121     84.886241
     -2.847848     40.311607     40.311607     80.623213
     -2.837838     37.664818     37.664818     75.329636
     -2.827828     34.978193     34.978193     69.956386
     -2.817818     32.463559     32.463559     64.927118
     -2.807808     30.087590     30.087590     60.175181
     -2.797798     27.703060     27.703060     55.406120
     -2.787788     25.212221     25.212221     50.424443
     -2.777778     22.671515     22.671515     45.343031
     -2.767768     20.285880     20.285880     40.571760
     -2.757758     18.307065     18.307065     36.614130
     -2.747748     16.905874     16.905874     33.811748
     -2.737738     16.100633     16.100633     32.201267
     -2.727728     15.785549     15.785549     31.571098
     -2.717718     15.835928     15.835928     31.671856
     -2.707708     16.214722     16.214722     32.429443
     -2.697698     17.001960     17.001960     34.003920
     -2.687688     18.320132     18.320132     36.640263
     -2.677678     20.202165     20.202165     40.404330
     -2.667668     22.494450     22.494450     44.988899
     -2.657658     24.871023     24.871023     49.742046
     -2.647648     26.963627     26.963627     53.927253
     -2.637638     28.532782     28.532782     57.065565
     -2.627628     29.573423     29.573423     59.146847
     -2.617618     30.289568     30.289568     60.579136
     -2.607608     30.958203     30.958203     61.916406
     -2.597598     31.771208     31.771208     63.542416
     -2.587588     32.746912     32.746912     65.493824
     -2.577578     33.742963     33.742963     67.485926
     -2.567568     34.531522     34.531522     69.063043
     -2.557558     34.872476     34.872476     69.744952
     -2.547548     34.552787     34.552787     69.105573
     -2.537538     33.411062     33.411062     66.822123
     -2.527528     31.384125     31.384125     62.768250
     -2.517518     28.580549     28.580549     57.161098
     -2.507508     25.337393     25.337393     50.674786
     -2.497497     22.199330     22.199330     44.398660
     -2.487487     19.793974     19.793974     39.587948
     -2.477477     18.639940     18.639940     37.279881
     -2.467467     18.970700     18.970700     37.941401
     -2.457457     20.657790     20.657790     41.315581
     -2.447447     23.272651     23.272651     46.545302
     -2.437437     26.262238     26.262238     52.524477
     -2.427427     29.160729     29.160729     58.321458
     -2.417417     31.741940     31.741940     63.483880
     -2.407407     34.043076     34.043076     68.086152
     -2.397397     36.249761     36.249761     72.499521
     -2.387387     38.498817     38.498817     76.997633
     -2.377377     40.697850     40.697850     81.395701
     -2.367367     42.458159     42.458159     84.916318
     -2.357357     43.188294     43.188294     86.376589
     -2.347347     42.319704     42.319704     84.639408
     -2.337337     39.568096     39.568096     79.136192
     -2.327327     35.110363     35.110363     70.220726
     -2.317317     29.593422     29.593422     59.186843
     -2.307307     23.970912     23.970912     47.941824
     -2.297297     19.241540     19.241540     38.483080
     -2.287287     16.196042     16.196042     32.392085
     -2.277277     15.256688     15.256688     30.513376
     -2.267267     16.438453     16.438453     32.876905
     -2.257257     19.411360     19.411360     38.822719
     -2.247247     23.620080     23.620080     47.240161
     -2.237237     28.416850     28.416850     56.833700
     -2.227227     33.173962     33.173962     66.347924
     -2.217217     37.355089     37.355089     74.710178
     -2.207207     40.541417     40.541417     81.082834
     -2.197197     42.428621     42.428621     84.857241
     -2.187187     42.824702     42.824702     85.649403
     -2.177177     41.673246     41.673246     83.346492
     -2.167167     39.098626     39.098626     78.197253
     -2.157157     35.435764     35.435764     70.871528
     -2.147147     31.195869     31.195869     62.391737
     -2.137137     26.948308     26.948308     53.896617
     -2.127127     23.154184     23.154184     46.308367
     -2.117117     20.030006     20.030006     40.060013
     -2.107107     17.514579     17.514579     35.029157
     -2.097097     15.357049     15.357049     30.714098
     -2.087087     13.275511     13.275511     26.551022
     -2.077077     11.099937     11.099937     22.199874
     -2.067067      8.832052      8.832052     17.664103
     -2.057057      6.610043      6.610043     13.220086
     -2.047047      4.617955      4.617955      9.235911
     -2.037037      2.997690      2.997690      5.995380
     -2.027027      1.803516      1.803516      3.607033
     -2.017017      1.005580      1.005580      2.011159
     -2.007007      0.523880      0.523880      1.047760
     -1.996997      0.268248      0.268248      0.536496
     -1.986987      0.168493      0.168493      0.336987
     -1.976977      0.191065      0.191065      0.382129
     -1.966967      0.345822      0.345822      0.691645
     -1.956957      0.686641      0.686641      1.373283
     -1.946947      1.305313      1.305313      2.610625
     -1.936937      2.314306      2.314306      4.628612
     -1.926927      3.814635      3.814635      7.629270
     -1.916917      5.851915      5.851915     11.703830
     -1.906907      8.373800      8.373800     16.747600
     -1.896897     11.208459     11.208459     22.416919
     -1.886887     14.079945     14.079945     28.159890
     -1.876877     16.662039     16.662039     33.324077
     -1.866867     18.655332     18.655332     37.310664
     -1.856857     19.863127     19.863127     39.726255
     -1.846847     20.243927     20.243927     40.487854
     -1.836837     19.926621     19.926621     39.853242
     -1.826827     19.182420     19.182420     38.364839
     -1.816817     18.355280     18.355280     36.710561
     -1.806807     17.764669     17.764669     35.529338
     -1.796797     17.609738     17.609738     35.219476
     -1.786787     17.910935     17.910935     35.821871
     -1.776777     18.512569     18.512569     37.025139
     -1.766767     19.141727     19.141727     38.283455
     -1.756757     19.494332     19.494332     38.988665
     -1.746747     19.315119     19.315119     38.630239
     -1.736737     18.453591     18.453591     36.907182
     -1.726727     16.895071     16.895071     33.790142
     -1.716717     14.770406     14.770406     29.540813
     -1.706707     12.341941     12.341941     24.683882
     -1.696697      9.960373      9.960373     19.920745
     -1.686687      7.994553      7.994553     15.989105
     -1.676677      6.748476      6.748476     13.496951
     -1.666667      6.386365      6.386365     12.772730
     -1.656657      6.884861      6.884861     13.769721
     -1.646647      8.025948      8.025948     16.051897
     -1.636637      9.439049      9.439049     18.878098
     -1.626627     10.692212     10.692212     21.384425
