# EIG2DOS: Utility for SIESTA to obtain the electronic density of states
#  E. Artacho, Apr 1999, A. Garcia, Apr 2012
#  Nick R. Papior, Feb 2017
# ------------------------------------------
# Eigenvalues calculated from a non-polarized calculation
# Eigenvalues read from siesta.EIG
# Kpoint weights read from siesta.KP
# Using smearing parameter:   0.0500
# Using 1000 points in the energy range
# Selected bands: 1 to: 2981
# Emin, Emax in file for selected band(s):    -27.3645811    218.3984300
# Nbands, Nspin, Nk   =   2981     1     1
# E_F                 =    -4.2025 eV --> (shifted to ZERO)
# Broadening          =     0.0500 eV
#
#        E            N(up)  (=)   N(down)         Ntot
     -5.000000     32.680719     32.680719     65.361437
     -4.989990     37.475922     37.475922     74.951844
     -4.979980     41.846131     41.846131     83.692262
     -4.969970     45.044694     45.044694     90.089388
     -4.959960     46.474657     46.474657     92.949314
     -4.949950     45.888683     45.888683     91.777367
     -4.939940     43.479039     43.479039     86.958079
     -4.929930     39.835996     39.835996     79.671993
     -4.919920     35.811885     35.811885     71.623770
     -4.909910     32.350711     32.350711     64.701423
     -4.899900     30.323181     30.323181     60.646361
     -4.889890     30.372744     30.372744     60.745489
     -4.879880     32.768432     32.768432     65.536864
     -4.869870     37.287468     37.287468     74.574936
     -4.859860     43.187830     43.187830     86.375661
     -4.849850     49.332956     49.332956     98.665912
     -4.839840     54.475559     54.475559    108.951118
     -4.829830     57.619434     57.619434    115.238867
     -4.819820     58.314873     58.314873    116.629746
     -4.809810     56.754622     56.754622    113.509243
     -4.799800     53.626696     53.626696    107.253393
     -4.789790     49.799434     49.799434     99.598867
     -4.779780     45.992379     45.992379     91.984757
     -4.769770     42.578809     42.578809     85.157619
     -4.759760     39.581413     39.581413     79.162826
     -4.749750     36.817563     36.817563     73.635126
     -4.739740     34.086567     34.086567     68.173133
     -4.729730     31.296111     31.296111     62.592222
     -4.719720     28.482039     28.482039     56.964078
     -4.709710     25.743246     25.743246     51.486491
     -4.699700     23.155338     23.155338     46.310676
     -4.689690     20.727594     20.727594     41.455189
     -4.679680     18.434203     18.434203     36.868406
     -4.669670     16.303375     16.303375     32.606750
     -4.659660     14.511615     14.511615     29.023230
     -4.649650     13.423002     13.423002     26.846004
     -4.639640     13.536290     13.536290     27.072580
     -4.629630     15.342091     15.342091     30.684182
     -4.619620     19.130497     19.130497     38.260993
     -4.609610     24.814657     24.814657     49.629314
     -4.599600     31.842783     31.842783     63.685565
     -4.589590     39.254663     39.254663     78.509326
     -4.579580     45.894976     45.894976     91.789952
     -4.569570     50.732030     50.732030    101.464060
     -4.559560     53.173398     53.173398    106.346797
     -4.549550     53.253001     53.253001    106.506002
     -4.539540     51.605520     51.605520    103.211040
     -4.529530     49.229142     49.229142     98.458284
     -4.519520     47.126402     47.126402     94.252805
     -4.509510     45.962940     45.962940     91.925881
     -4.499499     45.873047     45.873047     91.746095
     -4.489489     46.475985     46.475985     92.951970
     -4.479479     47.078445     47.078445     94.156891
     -4.469469     46.965820     46.965820     93.931639
     -4.459459     45.659384     45.659384     91.318769
     -4.449449     43.046869     43.046869     86.093738
     -4.439439     39.361930     39.361930     78.723860
     -4.429429     35.057751     35.057751     70.115501
     -4.419419     30.655960     30.655960     61.311920
     -4.409409     26.638961     26.638961     53.277922
     -4.399399     23.405338     23.405338     46.810675
     -4.389389     21.259741     21.259741     42.519483
     -4.379379     20.394076     20.394076     40.788152
     -4.369369     20.843464     20.843464     41.686927
     -4.359359     22.443564     22.443564     44.887128
     -4.349349     24.837612     24.837612     49.675224
     -4.339339     27.561865     27.561865     55.123730
     -4.329329     30.189989     30.189989     60.379977
     -4.319319     32.475079     32.475079     64.950158
     -4.309309     34.421025     34.421025     68.842050
     -4.299299     36.245483     36.245483     72.490966
     -4.289289     38.244556     38.244556     76.489112
     -4.279279     40.610137     40.610137     81.220275
     -4.269269     43.271730     43.271730     86.543460
     -4.259259     45.832780     45.832780     91.665559
     -4.249249     47.646145     47.646145     95.292289
     -4.239239     48.023493     48.023493     96.046986
     -4.229229     46.510001     46.510001     93.020003
     -4.219219     43.108407     43.108407     86.216814
     -4.209209     38.340753     38.340753     76.681505
     -4.199199     33.103679     33.103679     66.207358
     -4.189189     28.373410     28.373410     56.746821
     -4.179179     24.891888     24.891888     49.783777
     -4.169169     22.970862     22.970862     45.941725
     -4.159159     22.485716     22.485716     44.971433
     -4.149149     23.036693     23.036693     46.073387
     -4.139139     24.183295     24.183295     48.366590
     -4.129129     25.637487     25.637487     51.274974
     -4.119119     27.331824     27.331824     54.663648
     -4.109109     29.340248     29.340248     58.680496
     -4.099099     31.698643     31.698643     63.397286
     -4.089089     34.225092     34.225092     68.450184
     -4.079079     36.450967     36.450967     72.901935
     -4.069069     37.727081     37.727081     75.454163
     -4.059059     37.476481     37.476481     74.952961
     -4.049049     35.475020     35.475020     70.950041
     -4.039039     32.011800     32.011800     64.023599
     -4.029029     27.839591     27.839591     55.679183
     -4.019019     23.937652     23.937652     47.875303
     -4.009009     21.204825     21.204825     42.409650
     -3.998999     20.222482     20.222482     40.444964
     -3.988989     21.170180     21.170180     42.340360
     -3.978979     23.887490     23.887490     47.774980
     -3.968969     28.010996     28.010996     56.021992
     -3.958959     33.107120     33.107120     66.214239
     -3.948949     38.758765     38.758765     77.517530
     -3.938939     44.609077     44.609077     89.218153
     -3.928929     50.384514     50.384514    100.769028
     -3.918919     55.905498     55.905498    111.810996
     -3.908909     61.069539     61.069539    122.139078
     -3.898899     65.789482     65.789482    131.578963
     -3.888889     69.897351     69.897351    139.794702
     -3.878879     73.061549     73.061549    146.123098
     -3.868869     74.778940     74.778940    149.557880
     -3.858859     74.476864     74.476864    148.953729
     -3.848849     71.705161     71.705161    143.410321
     -3.838839     66.346265     66.346265    132.692529
     -3.828829     58.751860     58.751860    117.503720
     -3.818819     49.738494     49.738494     99.476989
     -3.808809     40.430385     40.430385     80.860769
     -3.798799     31.998432     31.998432     63.996865
     -3.788789     25.382544     25.382544     50.765087
     -3.778779     21.085149     21.085149     42.170299
     -3.768769     19.092189     19.092189     38.184379
     -3.758759     18.932369     18.932369     37.864739
     -3.748749     19.845905     19.845905     39.691811
     -3.738739     21.010936     21.010936     42.021871
     -3.728729     21.769403     21.769403     43.538806
     -3.718719     21.799443     21.799443     43.598885
     -3.708709     21.193675     21.193675     42.387349
     -3.698699     20.420904     20.420904     40.841808
     -3.688689     20.173320     20.173320     40.346640
     -3.678679     21.131925     21.131925     42.263851
     -3.668669     23.714231     23.714231     47.428463
     -3.658659     27.887713     27.887713     55.775425
     -3.648649     33.124112     33.124112     66.248225
     -3.638639     38.525081     38.525081     77.050161
     -3.628629     43.080617     43.080617     86.161233
     -3.618619     45.961674     45.961674     91.923347
     -3.608609     46.733739     46.733739     93.467479
     -3.598599     45.421156     45.421156     90.842312
     -3.588589     42.425870     42.425870     84.851740
     -3.578579     38.362275     38.362275     76.724550
     -3.568569     33.881328     33.881328     67.762657
     -3.558559     29.530548     29.530548     59.061095
     -3.548549     25.665243     25.665243     51.330486
     -3.538539     22.414610     22.414610     44.829219
     -3.528529     19.708636     19.708636     39.417272
     -3.518519     17.366231     17.366231     34.732463
     -3.508509     15.221695     15.221695     30.443391
     -3.498498     13.240531     13.240531     26.481061
     -3.488488     11.571044     11.571044     23.142089
     -3.478478     10.503981     10.503981     21.007962
     -3.468468     10.353988     10.353988     20.707976
     -3.458458     11.310265     11.310265     22.620530
     -3.448448     13.315422     13.315422     26.630845
     -3.438438     16.022172     16.022172     32.044343
     -3.428428     18.853552     18.853552     37.707104
     -3.418418     21.158672     21.158672     42.317344
     -3.408408     22.418478     22.418478     44.836956
     -3.398398     22.428349     22.428349     44.856698
     -3.388388     21.384147     21.384147     42.768295
     -3.378378     19.833371     19.833371     39.666742
     -3.368368     18.509617     18.509617     37.019235
     -3.358358     18.116321     18.116321     36.232642
     -3.348348     19.137900     19.137900     38.275800
     -3.338338     21.729523     21.729523     43.459047
     -3.328328     25.693235     25.693235     51.386470
     -3.318318     30.519513     30.519513     61.039026
     -3.308308     35.474212     35.474212     70.948424
     -3.298298     39.727024     39.727024     79.454048
     -3.288288     42.519436     42.519436     85.038872
     -3.278278     43.343709     43.343709     86.687418
     -3.268268     42.070657     42.070657     84.141314
     -3.258258     38.962779     38.962779     77.925559
     -3.248248     34.558322     34.558322     69.116644
     -3.238238     29.482020     29.482020     58.964040
     -3.228228     24.275791     24.275791     48.551582
     -3.218218     19.318142     19.318142     38.636283
     -3.208208     14.837132     14.837132     29.674264
     -3.198198     10.970051     10.970051     21.940102
     -3.188188      7.817022      7.817022     15.634044
     -3.178178      5.466418      5.466418     10.932836
     -3.168168      4.002050      4.002050      8.004100
     -3.158158      3.509575      3.509575      7.019150
     -3.148148      4.083720      4.083720      8.167441
     -3.138138      5.819328      5.819328     11.638655
     -3.128128      8.767279      8.767279     17.534559
     -3.118118     12.856044     12.856044     25.712088
     -3.108108     17.809609     17.809609     35.619217
     -3.098098     23.112987     23.112987     46.225974
     -3.088088     28.069256     28.069256     56.138513
     -3.078078     31.952994     31.952994     63.905988
     -3.068068     34.210722     34.210722     68.421445
     -3.058058     34.621760     34.621760     69.243520
     -3.048048     33.341372     33.341372     66.682744
     -3.038038     30.804892     30.804892     61.609783
     -3.028028     27.545453     27.545453     55.090907
     -3.018018     24.022322     24.022322     48.044644
     -3.008008     20.542240     20.542240     41.084480
     -2.997998     17.293697     17.293697     34.587393
     -2.987988     14.446855     14.446855     28.893710
     -2.977978     12.242307     12.242307     24.484613
     -2.967968     11.010988     11.010988     22.021977
     -2.957958     11.113112     11.113112     22.226223
     -2.947948     12.823690     12.823690     25.647380
     -2.937938     16.209747     16.209747     32.419495
     -2.927928     21.043287     21.043287     42.086574
     -2.917918     26.784789     26.784789     53.569578
     -2.907908     32.657123     32.657123     65.314247
     -2.897898     37.805348     37.805348     75.610696
     -2.887888     41.504550     41.504550     83.009100
     -2.877878     43.348323     43.348323     86.696646
     -2.867868     43.344196     43.344196     86.688393
     -2.857858     41.871166     41.871166     83.742332
     -2.847848     39.511203     39.511203     79.022405
     -2.837838     36.825001     36.825001     73.650002
     -2.827828     34.170359     34.170359     68.340717
     -2.817818     31.640940     31.640940     63.281880
     -2.807808     29.141658     29.141658     58.283317
     -2.797798     26.546820     26.546820     53.093640
     -2.787788     23.847369     23.847369     47.694738
     -2.777778     21.206426     21.206426     42.412852
     -2.767768     18.899836     18.899836     37.799672
     -2.757758     17.186681     17.186681     34.373362
     -2.747748     16.193565     16.193565     32.387130
     -2.737738     15.882960     15.882960     31.765919
     -2.727728     16.118469     16.118469     32.236937
     -2.717718     16.774712     16.774712     33.549424
     -2.707708     17.809741     17.809741     35.619481
     -2.697698     19.245567     19.245567     38.491134
     -2.687688     21.071190     21.071190     42.142380
     -2.677678     23.144932     23.144932     46.289864
     -2.667668     25.181748     25.181748     50.363495
     -2.657658     26.855168     26.855168     53.710337
     -2.647648     27.959697     27.959697     55.919394
     -2.637638     28.528926     28.528926     57.057853
     -2.627628     28.827165     28.827165     57.654330
     -2.617618     29.213787     29.213787     58.427573
     -2.607608     29.960936     29.960936     59.921873
     -2.597598     31.128211     31.128211     62.256423
     -2.587588     32.550170     32.550170     65.100341
     -2.577578     33.916020     33.916020     67.832040
     -2.567568     34.875094     34.875094     69.750187
     -2.557558     35.114758     35.114758     70.229517
     -2.547548     34.405660     34.405660     68.811320
     -2.537538     32.643159     32.643159     65.286318
     -2.527528     29.903720     29.903720     59.807441
     -2.517518     26.495294     26.495294     52.990588
     -2.507508     22.952982     22.952982     45.905964
     -2.497497     19.944758     19.944758     39.889515
     -2.487487     18.099586     18.099586     36.199172
     -2.477477     17.818486     17.818486     35.636972
     -2.467467     19.146904     19.146904     38.293808
     -2.457457     21.765511     21.765511     43.531023
     -2.447447     25.108574     25.108574     50.217147
     -2.437437     28.565739     28.565739     57.131478
     -2.427427     31.685832     31.685832     63.371664
     -2.417417     34.296284     34.296284     68.592567
     -2.407407     36.485015     36.485015     72.970029
     -2.397397     38.452585     38.452585     76.905169
     -2.387387     40.305510     40.305510     80.611020
     -2.377377     41.896338     41.896338     83.792677
     -2.367367     42.801403     42.801403     85.602807
     -2.357357     42.464147     42.464147     84.928294
     -2.347347     40.447339     40.447339     80.894679
     -2.337337     36.675586     36.675586     73.351172
     -2.327327     31.548279     31.548279     63.096559
     -2.317317     25.867372     25.867372     51.734744
     -2.307307     20.616842     20.616842     41.233684
     -2.297297     16.695774     16.695774     33.391549
     -2.287287     14.710333     14.710333     29.420666
     -2.277277     14.881274     14.881274     29.762548
     -2.267267     17.062778     17.062778     34.125556
     -2.257257     20.831176     20.831176     41.662352
     -2.247247     25.597586     25.597586     51.195172
     -2.237237     30.712989     30.712989     61.425978
     -2.227227     35.550798     35.550798     71.101597
     -2.217217     39.563425     39.563425     79.126850
     -2.207207     42.317618     42.317618     84.635236
     -2.197197     43.520164     43.520164     87.040328
     -2.187187     43.046912     43.046912     86.093824
     -2.177177     40.977990     40.977990     81.955981
     -2.167167     37.622087     37.622087     75.244174
     -2.157157     33.497006     33.497006     66.994012
     -2.147147     29.241018     29.241018     58.482036
     -2.137137     25.464310     25.464310     50.928621
     -2.127127     22.591864     22.591864     45.183728
     -2.117117     20.765381     20.765381     41.530763
     -2.107107     19.845247     19.845247     39.690494
     -2.097097     19.500513     19.500513     39.001027
     -2.087087     19.333894     19.333894     38.667789
     -2.077077     18.986948     18.986948     37.973897
     -2.067067     18.201463     18.201463     36.402925
     -2.057057     16.845368     16.845368     33.690736
     -2.047047     14.920143     14.920143     29.840287
     -2.037037     12.553772     12.553772     25.107545
     -2.027027      9.970968      9.970968     19.941936
     -2.017017      7.437280      7.437280     14.874561
     -2.007007      5.191369      5.191369     10.382738
     -1.996997      3.392034      3.392034      6.784068
     -1.986987      2.101366      2.101366      4.202732
     -1.976977      1.306732      1.306732      2.613465
     -1.966967      0.966018      0.966018      1.932037
     -1.956957      1.052923      1.052923      2.105846
     -1.946947      1.582700      1.582700      3.165399
     -1.936937      2.608191      2.608191      5.216382
     -1.926927      4.186846      4.186846      8.373693
     -1.916917      6.330040      6.330040     12.660080
     -1.906907      8.954754      8.954754     17.909508
     -1.896897     11.860465     11.860465     23.720930
     -1.886887     14.746816     14.746816     29.493633
     -1.876877     17.271580     17.271580     34.543160
     -1.866867     19.131504     19.131504     38.263007
     -1.856857     20.139835     20.139835     40.279669
     -1.846847     20.276138     20.276138     40.552276
     -1.836837     19.691972     19.691972     39.383945
     -1.826827     18.665742     18.665742     37.331484
     -1.816817     17.513056     17.513056     35.026113
     -1.806807     16.477409     16.477409     32.954819
     -1.796797     15.643468     15.643468     31.286937
     -1.786787     14.916049     14.916049     29.832099
     -1.776777     14.081606     14.081606     28.163213
     -1.766767     12.925665     12.925665     25.851330
     -1.756757     11.346936     11.346936     22.693873
     -1.746747      9.411178      9.411178     18.822357
     -1.736737      7.324796      7.324796     14.649592
     -1.726727      5.353968      5.353968     10.707937
     -1.716717      3.739308      3.739308      7.478616
     -1.706707      2.646538      2.646538      5.293077
     -1.696697      2.162381      2.162381      4.324762
     -1.686687      2.315258      2.315258      4.630516
     -1.676677      3.090190      3.090190      6.180379
     -1.666667      4.419330      4.419330      8.838660
     -1.656657      6.154030      6.154030     12.308059
     -1.646647      8.045602      8.045602     16.091204
     -1.636637      9.766232      9.766232     19.532463
     -1.626627     10.983597     10.983597     21.967193
