# EIG2DOS: Utility for SIESTA to obtain the electronic density of states
#  E. Artacho, Apr 1999, A. Garcia, Apr 2012
#  Nick R. Papior, Feb 2017
# ------------------------------------------
# Eigenvalues calculated from a non-polarized calculation
# Eigenvalues read from siesta.EIG
# Kpoint weights read from siesta.KP
# Using smearing parameter:   0.0500
# Using 1000 points in the energy range
# Selected bands: 1 to: 2981
# Emin, Emax in file for selected band(s):    -27.1955237    218.3469940
# Nbands, Nspin, Nk   =   2981     1     1
# E_F                 =    -4.2562 eV --> (shifted to ZERO)
# Broadening          =     0.0500 eV
#
#        E            N(up)  (=)   N(down)         Ntot
     -5.000000     33.709701     33.709701     67.419402
     -4.989990     37.496284     37.496284     74.992567
     -4.979980     40.916600     40.916600     81.833199
     -4.969970     43.378576     43.378576     86.757153
     -4.959960     44.424332     44.424332     88.848665
     -4.949950     43.860517     43.860517     87.721035
     -4.939940     41.819856     41.819856     83.639712
     -4.929930     38.740883     38.740883     77.481767
     -4.919920     35.288037     35.288037     70.576075
     -4.909910     32.245929     32.245929     64.491858
     -4.899900     30.404555     30.404555     60.809111
     -4.889890     30.426613     30.426613     60.853226
     -4.879880     32.685361     32.685361     65.370722
     -4.869870     37.096152     37.096152     74.192305
     -4.859860     43.014867     43.014867     86.029734
     -4.849850     49.294650     49.294650     98.589301
     -4.839840     54.543751     54.543751    109.087501
     -4.829830     57.525101     57.525101    115.050203
     -4.819820     57.544024     57.544024    115.088048
     -4.809810     54.652558     54.652558    109.305115
     -4.799800     49.580003     49.580003     99.160006
     -4.789790     43.433963     43.433963     86.867926
     -4.779780     37.321197     37.321197     74.642395
     -4.769770     32.051991     32.051991     64.103983
     -4.759760     28.019103     28.019103     56.038206
     -4.749750     25.241169     25.241169     50.482338
     -4.739740     23.494597     23.494597     46.989193
     -4.729730     22.451837     22.451837     44.903674
     -4.719720     21.778265     21.778265     43.556530
     -4.709710     21.180434     21.180434     42.360869
     -4.699700     20.424192     20.424192     40.848383
     -4.689690     19.348513     19.348513     38.697026
     -4.679680     17.893611     17.893611     35.787221
     -4.669670     16.144288     16.144288     32.288575
     -4.659660     14.369654     14.369654     28.739307
     -4.649650     13.029516     13.029516     26.059033
     -4.639640     12.723157     12.723157     25.446313
     -4.629630     14.074373     14.074373     28.148747
     -4.619620     17.568275     17.568275     35.136550
     -4.609610     23.374247     23.374247     46.748494
     -4.599600     31.205079     31.205079     62.410157
     -4.589590     40.270762     40.270762     80.541525
     -4.579580     49.375778     49.375778     98.751556
     -4.569570     57.169886     57.169886    114.339773
     -4.559560     62.499704     62.499704    124.999408
     -4.549550     64.748404     64.748404    129.496808
     -4.539540     64.030090     64.030090    128.060180
     -4.529530     61.145932     61.145932    122.291864
     -4.519520     57.301627     57.301627    114.603255
     -4.509510     53.689388     53.689388    107.378776
     -4.499499     51.099952     51.099952    102.199904
     -4.489489     49.716129     49.716129     99.432258
     -4.479479     49.154079     49.154079     98.308158
     -4.469469     48.706412     48.706412     97.412823
     -4.459459     47.660858     47.660858     95.321716
     -4.449449     45.557202     45.557202     91.114404
     -4.439439     42.299699     42.299699     84.599398
     -4.429429     38.123848     38.123848     76.247696
     -4.419419     33.478167     33.478167     66.956333
     -4.409409     28.895288     28.895288     57.790576
     -4.399399     24.896215     24.896215     49.792430
     -4.389389     21.926952     21.926952     43.853904
     -4.379379     20.302739     20.302739     40.605477
     -4.369369     20.146644     20.146644     40.293288
     -4.359359     21.341411     21.341411     42.682822
     -4.349349     23.534181     23.534181     47.068362
     -4.339339     26.220665     26.220665     52.441329
     -4.329329     28.894070     28.894070     57.788140
     -4.319319     31.203409     31.203409     62.406818
     -4.309309     33.054177     33.054177     66.108354
     -4.299299     34.608461     34.608461     69.216922
     -4.289289     36.184142     36.184142     72.368285
     -4.279279     38.090099     38.090099     76.180197
     -4.269269     40.453990     40.453990     80.907979
     -4.259259     43.103412     43.103412     86.206824
     -4.249249     45.553363     45.553363     91.106726
     -4.239239     47.127652     47.127652     94.255304
     -4.229229     47.192765     47.192765     94.385530
     -4.219219     45.421656     45.421656     90.843311
     -4.209209     41.967937     41.967937     83.935874
     -4.199199     37.454619     37.454619     74.909238
     -4.189189     32.767486     32.767486     65.534971
     -4.179179     28.745398     28.745398     57.490797
     -4.169169     25.913736     25.913736     51.827471
     -4.159159     24.378621     24.378621     48.757242
     -4.149149     23.909658     23.909658     47.819316
     -4.139139     24.144855     24.144855     48.289711
     -4.129129     24.803165     24.803165     49.606330
     -4.119119     25.801660     25.801660     51.603320
     -4.109109     27.228545     27.228545     54.457090
     -4.099099     29.192745     29.192745     58.385490
     -4.089089     31.631540     31.631540     63.263080
     -4.079079     34.187002     34.187002     68.374003
     -4.069069     36.239729     36.239729     72.479458
     -4.059059     37.112416     37.112416     74.224832
     -4.049049     36.358477     36.358477     72.716955
     -4.039039     33.990437     33.990437     67.980874
     -4.029029     30.524442     30.524442     61.048884
     -4.019019     26.814658     26.814658     53.629315
     -4.009009     23.764332     23.764332     47.528665
     -3.998999     22.057241     22.057241     44.114483
     -3.988989     22.022412     22.022412     44.044824
     -3.978979     23.655424     23.655424     47.310848
     -3.968969     26.735012     26.735012     53.470024
     -3.958959     30.945673     30.945673     61.891345
     -3.948949     35.950935     35.950935     71.901869
     -3.938939     41.419913     41.419913     82.839825
     -3.928929     47.043404     47.043404     94.086807
     -3.918919     52.563921     52.563921    105.127842
     -3.908909     57.805796     57.805796    115.611591
     -3.898899     62.666819     62.666819    125.333638
     -3.888889     67.047905     67.047905    134.095810
     -3.878879     70.743612     70.743612    141.487223
     -3.868869     73.359531     73.359531    146.719061
     -3.858859     74.328394     74.328394    148.656789
     -3.848849     73.055042     73.055042    146.110083
     -3.838839     69.150884     69.150884    138.301768
     -3.828829     62.659773     62.659773    125.319547
     -3.818819     54.164863     54.164863    108.329727
     -3.808809     44.711607     44.711607     89.423214
     -3.798799     35.563261     35.563261     71.126523
     -3.788789     27.878476     27.878476     55.756952
     -3.778779     22.427894     22.427894     44.855787
     -3.768769     19.440039     19.440039     38.880078
     -3.758759     18.608748     18.608748     37.217497
     -3.748749     19.238443     19.238443     38.476885
     -3.738739     20.470976     20.470976     40.941952
     -3.728729     21.530047     21.530047     43.060095
     -3.718719     21.926063     21.926063     43.852127
     -3.708709     21.576794     21.576794     43.153589
     -3.698699     20.814817     20.814817     41.629633
     -3.688689     20.274046     20.274046     40.548093
     -3.678679     20.676536     20.676536     41.353072
     -3.668669     22.573790     22.573790     45.147580
     -3.658659     26.123180     26.123180     52.246360
     -3.648649     30.983157     30.983157     61.966314
     -3.638639     36.378039     36.378039     72.756079
     -3.628629     41.318310     41.318310     82.636621
     -3.618619     44.893514     44.893514     89.787029
     -3.608609     46.521594     46.521594     93.043189
     -3.598599     46.064459     46.064459     92.128918
     -3.588589     43.789736     43.789736     87.579472
     -3.578579     40.227487     40.227487     80.454974
     -3.568569     35.997258     35.997258     71.994517
     -3.558559     31.661381     31.661381     63.322762
     -3.548549     27.625421     27.625421     55.250843
     -3.538539     24.088026     24.088026     48.176051
     -3.528529     21.043768     21.043768     42.087536
     -3.518519     18.343245     18.343245     36.686491
     -3.508509     15.798045     15.798045     31.596091
     -3.498498     13.292735     13.292735     26.585470
     -3.488488     10.855750     10.855750     21.711500
     -3.478478      8.659556      8.659556     17.319113
     -3.468468      6.955936      6.955936     13.911872
     -3.458458      5.979869      5.979869     11.959737
     -3.448448      5.860374      5.860374     11.720749
     -3.438438      6.564678      6.564678     13.129356
     -3.428428      7.888627      7.888627     15.777255
     -3.418418      9.498670      9.498670     18.997340
     -3.408408     11.022691     11.022691     22.045382
     -3.398398     12.170551     12.170551     24.341103
     -3.388388     12.844433     12.844433     25.688865
     -3.378378     13.190970     13.190970     26.381941
     -3.368368     13.565444     13.565444     27.130888
     -3.358358     14.417492     14.417492     28.834984
     -3.348348     16.143526     16.143526     32.287052
     -3.338338     18.959159     18.959159     37.918319
     -3.328328     22.823186     22.823186     45.646373
     -3.318318     27.415340     27.415340     54.830681
     -3.308308     32.159800     32.159800     64.319601
     -3.298298     36.299276     36.299276     72.598552
     -3.288288     39.035858     39.035858     78.071716
     -3.278278     39.735440     39.735440     79.470881
     -3.268268     38.142818     38.142818     76.285636
     -3.258258     34.512972     34.512972     69.025944
     -3.248248     29.575420     29.575420     59.150840
     -3.238238     24.320558     24.320558     48.641116
     -3.228228     19.687614     19.687614     39.375229
     -3.218218     16.284535     16.284535     32.569070
     -3.208208     14.251529     14.251529     28.503058
     -3.198198     13.309427     13.309427     26.618853
     -3.188188     12.954825     12.954825     25.909649
     -3.178178     12.712948     12.712948     25.425896
     -3.168168     12.350082     12.350082     24.700164
     -3.158158     11.973996     11.973996     23.947993
     -3.148148     11.996369     11.996369     23.992739
     -3.138138     12.977308     12.977308     25.954616
     -3.128128     15.404967     15.404967     30.809934
     -3.118118     19.478642     19.478642     38.957285
     -3.108108     24.964122     24.964122     49.928243
     -3.098098     31.176697     31.176697     62.353393
     -3.088088     37.115971     37.115971     74.231941
     -3.078078     41.725983     41.725983     83.451966
     -3.068068     44.197927     44.197927     88.395855
     -3.058058     44.200650     44.200650     88.401300
     -3.048048     41.943662     41.943662     83.887325
     -3.038038     38.049299     38.049299     76.098598
     -3.028028     33.300316     33.300316     66.600632
     -3.018018     28.385488     28.385488     56.770975
     -3.008008     23.754954     23.754954     47.509908
     -2.997998     19.627412     19.627412     39.254824
     -2.987988     16.107489     16.107489     32.214977
     -2.977978     13.323481     13.323481     26.646961
     -2.967968     11.503914     11.503914     23.007827
     -2.957958     10.958672     10.958672     21.917345
     -2.947948     11.981089     11.981089     23.962178
     -2.937938     14.716301     14.716301     29.432603
     -2.927928     19.046592     19.046592     38.093184
     -2.917918     24.537132     24.537132     49.074265
     -2.907908     30.472047     30.472047     60.944094
     -2.897898     35.987847     35.987847     71.975694
     -2.887888     40.276890     40.276890     80.553781
     -2.877878     42.797713     42.797713     85.595425
     -2.867868     43.412548     43.412548     86.825097
     -2.857858     42.391982     42.391982     84.783965
     -2.847848     40.279870     40.279870     80.559739
     -2.837838     37.674420     37.674420     75.348841
     -2.827828     35.020644     35.020644     70.041289
     -2.817818     32.502750     32.502750     65.005500
     -2.807808     30.074290     30.074290     60.148580
     -2.797798     27.594669     27.594669     55.189338
     -2.787788     24.989401     24.989401     49.978803
     -2.777778     22.345352     22.345352     44.690703
     -2.767768     19.893941     19.893941     39.787882
     -2.757758     17.901551     17.901551     35.803101
     -2.747748     16.539563     16.539563     33.079125
     -2.737738     15.815771     15.815771     31.631542
     -2.727728     15.608118     15.608118     31.216236
     -2.717718     15.774808     15.774808     31.549616
     -2.707708     16.263608     16.263608     32.527215
     -2.697698     17.141930     17.141930     34.283860
     -2.687688     18.521939     18.521939     37.043879
     -2.677678     20.428685     20.428685     40.857370
     -2.667668     22.704381     22.704381     45.408763
     -2.657658     25.024471     25.024471     50.048942
     -2.647648     27.028836     27.028836     54.057672
     -2.637638     28.492078     28.492078     56.984156
     -2.627628     29.426363     29.426363     58.852726
     -2.617618     30.052507     30.052507     60.105015
     -2.607608     30.660962     30.660962     61.321924
     -2.597598     31.452035     31.452035     62.904071
     -2.587588     32.446486     32.446486     64.892973
     -2.577578     33.497665     33.497665     66.995330
     -2.567568     34.366645     34.366645     68.733289
     -2.557558     34.797004     34.797004     69.594008
     -2.547548     34.557618     34.557618     69.115237
     -2.537538     33.471444     33.471444     66.942888
     -2.527528     31.465304     31.465304     62.930607
     -2.517518     28.644746     28.644746     57.289492
     -2.507508     25.350743     25.350743     50.701485
     -2.497497     22.138540     22.138540     44.277080
     -2.487487     19.652794     19.652794     39.305588
     -2.477477     18.434430     18.434430     36.868861
     -2.467467     18.740760     18.740760     37.481520
     -2.457457     20.462144     20.462144     40.924287
     -2.447447     23.176587     23.176587     46.353174
     -2.437437     26.320964     26.320964     52.641928
     -2.427427     29.403848     29.403848     58.807697
     -2.417417     32.164301     32.164301     64.328603
     -2.407407     34.604221     34.604221     69.208441
     -2.397397     36.880863     36.880863     73.761725
     -2.387387     39.114665     39.114665     78.229331
     -2.377377     41.212092     41.212092     82.424183
     -2.367367     42.800497     42.800497     85.600993
     -2.357357     43.320927     43.320927     86.641854
     -2.347347     42.247948     42.247948     84.495897
     -2.337337     39.339985     39.339985     78.679969
     -2.327327     34.803714     34.803714     69.607429
     -2.317317     29.294709     29.294709     58.589418
     -2.307307     23.754007     23.754007     47.508014
     -2.297297     19.153504     19.153504     38.307008
     -2.287287     16.252618     16.252618     32.505235
     -2.277277     15.445639     15.445639     30.891277
     -2.267267     16.727082     16.727082     33.454164
     -2.257257     19.755283     19.755283     39.510565
     -2.247247     23.971664     23.971664     47.943329
     -2.237237     28.732318     28.732318     57.464636
     -2.227227     33.418196     33.418196     66.836391
     -2.217217     37.503688     37.503688     75.007377
     -2.207207     40.580702     40.580702     81.161405
     -2.197197     42.355070     42.355070     84.710141
     -2.187187     42.644961     42.644961     85.289921
     -2.177177     41.404488     41.404488     82.808975
     -2.167167     38.767876     38.767876     77.535752
     -2.157157     35.076834     35.076834     70.153667
     -2.147147     30.843789     30.843789     61.687578
     -2.137137     26.632760     26.632760     53.265519
     -2.127127     22.894249     22.894249     45.788498
     -2.117117     19.832141     19.832141     39.664282
     -2.107107     17.374245     17.374245     34.748491
     -2.097097     15.262920     15.262920     30.525841
     -2.087087     13.214276     13.214276     26.428551
     -2.077077     11.059959     11.059959     22.119917
     -2.067067      8.805069      8.805069     17.610137
     -2.057057      6.591120      6.591120     13.182240
     -2.047047      4.604491      4.604491      9.208982
     -2.037037      2.988291      2.988291      5.976583
     -2.027027      1.797207      1.797207      3.594414
     -2.017017      1.001394      1.001394      2.002789
     -2.007007      0.520656      0.520656      1.041311
     -1.996997      0.264357      0.264357      0.528715
     -1.986987      0.161330      0.161330      0.322660
     -1.976977      0.176258      0.176258      0.352516
     -1.966967      0.316405      0.316405      0.632811
     -1.956957      0.632765      0.632765      1.265529
     -1.946947      1.215391      1.215391      2.430783
     -1.936937      2.178428      2.178428      4.356855
     -1.926927      3.630281      3.630281      7.260562
     -1.916917      5.630656      5.630656     11.261313
     -1.906907      8.146445      8.146445     16.292890
     -1.896897     11.026509     11.026509     22.053019
     -1.886887     14.013904     14.013904     28.027809
     -1.876877     16.800974     16.800974     33.601948
     -1.866867     19.113787     19.113787     38.227573
     -1.856857     20.797508     20.797508     41.595017
     -1.846847     21.870146     21.870146     43.740293
     -1.836837     22.518794     22.518794     45.037588
     -1.826827     23.027982     23.027982     46.055963
     -1.816817     23.653639     23.653639     47.307277
     -1.806807     24.485636     24.485636     48.971273
     -1.796797     25.363338     25.363338     50.726675
     -1.786787     25.900601     25.900601     51.801201
     -1.776777     25.629375     25.629375     51.258750
     -1.766767     24.204389     24.204389     48.408779
     -1.756757     21.568980     21.568980     43.137960
     -1.746747     17.997923     17.997923     35.995845
     -1.736737     14.000911     14.000911     28.001823
     -1.726727     10.145303     10.145303     20.290607
     -1.716717      6.890496      6.890496     13.780992
     -1.706707      4.503052      4.503052      9.006103
     -1.696697      3.065208      3.065208      6.130415
     -1.686687      2.539285      2.539285      5.078571
     -1.676677      2.833066      2.833066      5.666132
     -1.666667      3.827501      3.827501      7.655002
     -1.656657      5.361930      5.361930     10.723860
     -1.646647      7.203093      7.203093     14.406186
     -1.636637      9.037443      9.037443     18.074887
     -1.626627     10.515233     10.515233     21.030465
