# EIG2DOS: Utility for SIESTA to obtain the electronic density of states
#  E. Artacho, Apr 1999, A. Garcia, Apr 2012
#  Nick R. Papior, Feb 2017
# ------------------------------------------
# Eigenvalues calculated from a non-polarized calculation
# Eigenvalues read from siesta.EIG
# Kpoint weights read from siesta.KP
# Using smearing parameter:   0.0500
# Using 1000 points in the energy range
# Selected bands: 1 to: 2981
# Emin, Emax in file for selected band(s):    -27.1951260    218.3877190
# Nbands, Nspin, Nk   =   2981     1     1
# E_F                 =    -4.2114 eV --> (shifted to ZERO)
# Broadening          =     0.0500 eV
#
#        E            N(up)  (=)   N(down)         Ntot
     -5.000000     33.102217     33.102217     66.204434
     -4.989990     37.943269     37.943269     75.886538
     -4.979980     42.272285     42.272285     84.544570
     -4.969970     45.338721     45.338721     90.677441
     -4.959960     46.573251     46.573251     93.146501
     -4.949950     45.778133     45.778133     91.556266
     -4.939940     43.197480     43.197480     86.394959
     -4.929930     39.456980     39.456980     78.913960
     -4.919920     35.419839     35.419839     70.839677
     -4.909910     32.020315     32.020315     64.040629
     -4.899900     30.108274     30.108274     60.216548
     -4.889890     30.301744     30.301744     60.603489
     -4.879880     32.838906     32.838906     65.677813
     -4.869870     37.454856     37.454856     74.909712
     -4.859860     43.349532     43.349532     86.699064
     -4.849850     49.314178     49.314178     98.628356
     -4.839840     54.024294     54.024294    108.048589
     -4.829830     56.415765     56.415765    112.831529
     -4.819820     55.997890     55.997890    111.995780
     -4.809810     52.970071     52.970071    105.940141
     -4.799800     48.096965     48.096965     96.193931
     -4.789790     42.409477     42.409477     84.818955
     -4.779780     36.870260     36.870260     73.740520
     -4.769770     32.136405     32.136405     64.272809
     -4.759760     28.482837     28.482837     56.965675
     -4.749750     25.866732     25.866732     51.733465
     -4.739740     24.062046     24.062046     48.124092
     -4.729730     22.789849     22.789849     45.579698
     -4.719720     21.800188     21.800188     43.600376
     -4.709710     20.900266     20.900266     41.800532
     -4.699700     19.953387     19.953387     39.906773
     -4.689690     18.883538     18.883538     37.767076
     -4.679680     17.708382     17.708382     35.416764
     -4.669670     16.594136     16.594136     33.188272
     -4.659660     15.895858     15.895858     31.791716
     -4.649650     16.136424     16.136424     32.272848
     -4.639640     17.896721     17.896721     35.793442
     -4.629630     21.629734     21.629734     43.259468
     -4.619620     27.452352     27.452352     54.904705
     -4.609610     34.992750     34.992750     69.985499
     -4.599600     43.368074     43.368074     86.736148
     -4.589590     51.333958     51.333958    102.667916
     -4.579580     57.588319     57.588319    115.176638
     -4.569570     61.144068     61.144068    122.288136
     -4.559560     61.639150     61.639150    123.278300
     -4.549550     59.458224     59.458224    118.916447
     -4.539540     55.606104     55.606104    111.212207
     -4.529530     51.372664     51.372664    102.745327
     -4.519520     47.914461     47.914461     95.828922
     -4.509510     45.908862     45.908862     91.817724
     -4.499499     45.400336     45.400336     90.800672
     -4.489489     45.876283     45.876283     91.752566
     -4.479479     46.519703     46.519703     93.039406
     -4.469469     46.525660     46.525660     93.051320
     -4.459459     45.359522     45.359522     90.719043
     -4.449449     42.876195     42.876195     85.752390
     -4.439439     39.288655     39.288655     78.577310
     -4.429429     35.037432     35.037432     70.074863
     -4.419419     30.641074     30.641074     61.282148
     -4.409409     26.590445     26.590445     53.180891
     -4.399399     23.302211     23.302211     46.604422
     -4.389389     21.102479     21.102479     42.204958
     -4.379379     20.200533     20.200533     40.401066
     -4.369369     20.640156     20.640156     41.280311
     -4.359359     22.257096     22.257096     44.514193
     -4.349349     24.689889     24.689889     49.379777
     -4.339339     27.469422     27.469422     54.938844
     -4.329329     30.164762     30.164762     60.329525
     -4.319319     32.523099     32.523099     65.046199
     -4.309309     34.537586     34.537586     69.075171
     -4.299299     36.409078     36.409078     72.818156
     -4.289289     38.414841     38.414841     76.829681
     -4.279279     40.734786     40.734786     81.469571
     -4.269269     43.302500     43.302500     86.604999
     -4.259259     45.744635     45.744635     91.489269
     -4.249249     47.449412     47.449412     94.898825
     -4.239239     47.761423     47.761423     95.522846
     -4.229229     46.242078     46.242078     92.484156
     -4.219219     42.888247     42.888247     85.776493
     -4.209209     38.200292     38.200292     76.400585
     -4.199199     33.050654     33.050654     66.101309
     -4.189189     28.400260     28.400260     56.800519
     -4.179179     24.987590     24.987590     49.975181
     -4.169169     23.127112     23.127112     46.254223
     -4.159159     22.694681     22.694681     45.389363
     -4.149149     23.284714     23.284714     46.569427
     -4.139139     24.448006     24.448006     48.896011
     -4.129129     25.892831     25.892831     51.785662
     -4.119119     27.558544     27.558544     55.117089
     -4.109109     29.534067     29.534067     59.068133
     -4.099099     31.868891     31.868891     63.737783
     -4.089089     34.383221     34.383221     68.766441
     -4.079079     36.596332     36.596332     73.192665
     -4.069069     37.840455     37.840455     75.680909
     -4.059059     37.526989     37.526989     75.053977
     -4.049049     35.436935     35.436935     70.873869
     -4.039039     31.880622     31.880622     63.761245
     -4.029029     27.637349     27.637349     55.274698
     -4.019019     23.704589     23.704589     47.409177
     -4.009009     20.983186     20.983186     41.966373
     -3.998999     20.041929     20.041929     40.083858
     -3.988989     21.041841     21.041841     42.083682
     -3.978979     23.807523     23.807523     47.615046
     -3.968969     27.969365     27.969365     55.938729
     -3.958959     33.095904     33.095904     66.191808
     -3.948949     38.776450     38.776450     77.552901
     -3.938939     44.660619     44.660619     89.321237
     -3.928929     50.479107     50.479107    100.958215
     -3.918919     56.053806     56.053806    112.107613
     -3.908909     61.280467     61.280467    122.560934
     -3.898899     66.065260     66.065260    132.130520
     -3.888889     70.226559     70.226559    140.453119
     -3.878879     73.412628     73.412628    146.825255
     -3.868869     75.099484     75.099484    150.198967
     -3.858859     74.703312     74.703312    149.406624
     -3.848849     71.782283     71.782283    143.564566
     -3.838839     66.248869     66.248869    132.497737
     -3.828829     58.497701     58.497701    116.995402
     -3.818819     49.384845     49.384845     98.769690
     -3.808809     40.055284     40.055284     80.110567
     -3.798799     31.675478     31.675478     63.350955
     -3.788789     25.160233     25.160233     50.320467
     -3.778779     20.977788     20.977788     41.955576
     -3.768769     19.083005     19.083005     38.166010
     -3.758759     18.984862     18.984862     37.969725
     -3.748749     19.918203     19.918203     39.836406
     -3.738739     21.068959     21.068959     42.137918
     -3.728729     21.796209     21.796209     43.592417
     -3.718719     21.799183     21.799183     43.598366
     -3.708709     21.189359     21.189359     42.378718
     -3.698699     20.446074     20.446074     40.892147
     -3.688689     20.259243     20.259243     40.518486
     -3.678679     21.293789     21.293789     42.587579
     -3.668669     23.941260     23.941260     47.882520
     -3.658659     28.141878     28.141878     56.283755
     -3.648649     33.349421     33.349421     66.698843
     -3.638639     38.664884     38.664884     77.329767
     -3.628629     43.096286     43.096286     86.192571
     -3.618619     45.844944     45.844944     91.689888
     -3.608609     46.507948     46.507948     93.015896
     -3.598599     45.131871     45.131871     90.263742
     -3.588589     42.125836     42.125836     84.251673
     -3.578579     38.096841     38.096841     76.193682
     -3.568569     33.678629     33.678629     67.357259
     -3.558559     29.397559     29.397559     58.795118
     -3.548549     25.588286     25.588286     51.176572
     -3.538539     22.361518     22.361518     44.723037
     -3.528529     19.629088     19.629088     39.258177
     -3.518519     17.186423     17.186423     34.372845
     -3.508509     14.830521     14.830521     29.661041
     -3.498498     12.468371     12.468371     24.936743
     -3.488488     10.169531     10.169531     20.339062
     -3.478478      8.143175      8.143175     16.286349
     -3.468468      6.656302      6.656302     13.312604
     -3.458458      5.931742      5.931742     11.863484
     -3.448448      6.063258      6.063258     12.126516
     -3.438438      6.970763      6.970763     13.941526
     -3.428428      8.406133      8.406133     16.812267
     -3.418418     10.012634     10.012634     20.025268
     -3.408408     11.430484     11.430484     22.860967
     -3.398398     12.422203     12.422203     24.844406
     -3.388388     12.972683     12.972683     25.945367
     -3.378378     13.317972     13.317972     26.635945
     -3.368368     13.882577     13.882577     27.765155
     -3.358358     15.145844     15.145844     30.291688
     -3.348348     17.488004     17.488004     34.976008
     -3.338338     21.067214     21.067214     42.134429
     -3.328328     25.755139     25.755139     51.510277
     -3.318318     31.133294     31.133294     62.266588
     -3.308308     36.544266     36.544266     73.088531
     -3.298298     41.196987     41.196987     82.393974
     -3.288288     44.322468     44.322468     88.644937
     -3.278278     45.352957     45.352957     90.705914
     -3.268268     44.068193     44.068193     88.136387
     -3.258258     40.648310     40.648310     81.296620
     -3.248248     35.608860     35.608860     71.217720
     -3.238238     29.649048     29.649048     59.298096
     -3.228228     23.480435     23.480435     46.960871
     -3.218218     17.698077     17.698077     35.396153
     -3.208208     12.721357     12.721357     25.442713
     -3.198198      8.797270      8.797270     17.594539
     -3.188188      6.043248      6.043248     12.086496
     -3.178178      4.506666      4.506666      9.013332
     -3.168168      4.220955      4.220955      8.441910
     -3.158158      5.238101      5.238101     10.476202
     -3.148148      7.619359      7.619359     15.238717
     -3.138138     11.378113     11.378113     22.756226
     -3.128128     16.391117     16.391117     32.782234
     -3.118118     22.317107     22.317107     44.634214
     -3.108108     28.570782     28.570782     57.141563
     -3.098098     34.385967     34.385967     68.771934
     -3.088088     38.966629     38.966629     77.933259
     -3.078078     41.682566     41.682566     83.365132
     -3.068068     42.238178     42.238178     84.476357
     -3.058058     40.744285     40.744285     81.488569
     -3.048048     37.658573     37.658573     75.317146
     -3.038038     33.617383     33.617383     67.234765
     -3.028028     29.232689     29.232689     58.465377
     -3.018018     24.944286     24.944286     49.888571
     -3.008008     20.985689     20.985689     41.971379
     -2.997998     17.459718     17.459718     34.919437
     -2.987988     14.463529     14.463529     28.927059
     -2.977978     12.185661     12.185661     24.371322
     -2.967968     10.923878     10.923878     21.847756
     -2.957958     11.018802     11.018802     22.037604
     -2.947948     12.735022     12.735022     25.470043
     -2.937938     16.135394     16.135394     32.270788
     -2.927928     20.991488     20.991488     41.982976
     -2.917918     26.763998     26.763998     53.527996
     -2.907908     32.673424     32.673424     65.346849
     -2.897898     37.858030     37.858030     75.716060
     -2.887888     41.582709     41.582709     83.165418
     -2.877878     43.431431     43.431431     86.862862
     -2.867868     43.407661     43.407661     86.815321
     -2.857858     41.894976     41.894976     83.789952
     -2.847848     39.487656     39.487656     78.975312
     -2.837838     36.761709     36.761709     73.523417
     -2.827828     34.087205     34.087205     68.174410
     -2.817818     31.562764     31.562764     63.125528
     -2.807808     29.090217     29.090217     58.180434
     -2.797798     26.535186     26.535186     53.070371
     -2.787788     23.877988     23.877988     47.755977
     -2.777778     21.272067     21.272067     42.544134
     -2.767768     18.985749     18.985749     37.971499
     -2.757758     17.272739     17.272739     34.545478
     -2.747748     16.256198     16.256198     32.512396
     -2.737738     15.897568     15.897568     31.795136
     -2.727728     16.063095     16.063095     32.126190
     -2.717718     16.635174     16.635174     33.270348
     -2.707708     17.585469     17.585469     35.170938
     -2.697698     18.954451     18.954451     37.908902
     -2.687688     20.751112     20.751112     41.502224
     -2.677678     22.849882     22.849882     45.699763
     -2.667668     24.971903     24.971903     49.943806
     -2.657658     26.782935     26.782935     53.565869
     -2.647648     28.056133     28.056133     56.112266
     -2.637638     28.795555     28.795555     57.591111
     -2.627628     29.236059     29.236059     58.472118
     -2.617618     29.715171     29.715171     59.430342
     -2.607608     30.494704     30.494704     60.989408
     -2.597598     31.635180     31.635180     63.270361
     -2.587588     32.980459     32.980459     65.960918
     -2.577578     34.233943     34.233943     68.467886
     -2.567568     35.061266     35.061266     70.122532
     -2.557558     35.166386     35.166386     70.332772
     -2.547548     34.335666     34.335666     68.671332
     -2.537538     32.478284     32.478284     64.956567
     -2.527528     29.681200     29.681200     59.362399
     -2.517518     26.257599     26.257599     52.515197
     -2.507508     22.740692     22.740692     45.481385
     -2.497497     19.788859     19.788859     39.577718
     -2.487487     18.015575     18.015575     36.031151
     -2.477477     17.804748     17.804748     35.609497
     -2.467467     19.188467     19.188467     38.376934
     -2.457457     21.841979     21.841979     43.683958
     -2.447447     25.202989     25.202989     50.405979
     -2.437437     28.670643     28.670643     57.341285
     -2.427427     31.804271     31.804271     63.608541
     -2.417417     34.438066     34.438066     68.876132
     -2.407407     36.660295     36.660295     73.320591
     -2.397397     38.664927     38.664927     77.329854
     -2.387387     40.545804     40.545804     81.091609
     -2.377377     42.138967     42.138967     84.277935
     -2.367367     43.005089     43.005089     86.010178
     -2.357357     42.579985     42.579985     85.159969
     -2.347347     40.433612     40.433612     80.867224
     -2.337337     36.514005     36.514005     73.028009
     -2.327327     31.253315     31.253315     62.506631
     -2.317317     25.482739     25.482739     50.965478
     -2.307307     20.200137     20.200137     40.400274
     -2.297297     16.299031     16.299031     32.598062
     -2.287287     14.366119     14.366119     28.732238
     -2.277277     14.600114     14.600114     29.200227
     -2.267267     16.841208     16.841208     33.682415
     -2.257257     20.664590     20.664590     41.329180
     -2.247247     25.490463     25.490463     50.980926
     -2.237237     30.681026     30.681026     61.362053
     -2.227227     35.613635     35.613635     71.227270
     -2.217217     39.731324     39.731324     79.462649
     -2.207207     42.578817     42.578817     85.157634
     -2.197197     43.835798     43.835798     87.671596
     -2.187187     43.356724     43.356724     86.713448
     -2.177177     41.213647     41.213647     82.427295
     -2.167167     37.719025     37.719025     75.438049
     -2.157157     33.393944     33.393944     66.787887
     -2.147147     28.860688     28.860688     57.721376
     -2.137137     24.678693     24.678693     49.357385
     -2.127127     21.186727     21.186727     42.373454
     -2.117117     18.427057     18.427057     36.854115
     -2.107107     16.192072     16.192072     32.384143
     -2.097097     14.168687     14.168687     28.337374
     -2.087087     12.103684     12.103684     24.207368
     -2.077077      9.908478      9.908478     19.816956
     -2.067067      7.664723      7.664723     15.329446
     -2.057057      5.550301      5.550301     11.100602
     -2.047047      3.741031      3.741031      7.482063
     -2.037037      2.340651      2.340651      4.681302
     -2.027027      1.362129      1.362129      2.724257
     -2.017017      0.751956      0.751956      1.503913
     -2.007007      0.433717      0.433717      0.867435
     -1.996997      0.349719      0.349719      0.699438
     -1.986987      0.490253      0.490253      0.980505
     -1.976977      0.908249      0.908249      1.816498
     -1.966967      1.718294      1.718294      3.436587
     -1.956957      3.075878      3.075878      6.151756
     -1.946947      5.132188      5.132188     10.264376
     -1.936937      7.967192      7.967192     15.934385
     -1.926927     11.518745     11.518745     23.037489
     -1.916917     15.539176     15.539176     31.078353
     -1.906907     19.610534     19.610534     39.221069
     -1.896897     23.228355     23.228355     46.456710
     -1.886887     25.929606     25.929606     51.859211
     -1.876877     27.414474     27.414474     54.828947
     -1.866867     27.613533     27.613533     55.227066
     -1.856857     26.681490     26.681490     53.362980
     -1.846847     24.934611     24.934611     49.869221
     -1.836837     22.765437     22.765437     45.530875
     -1.826827     20.559248     20.559248     41.118495
     -1.816817     18.619223     18.619223     37.238446
     -1.806807     17.103501     17.103501     34.207001
     -1.796797     15.989652     15.989652     31.979304
     -1.786787     15.091161     15.091161     30.182322
     -1.776777     14.136286     14.136286     28.272571
     -1.766767     12.885308     12.885308     25.770617
     -1.756757     11.233848     11.233848     22.467695
     -1.746747      9.252973      9.252973     18.505945
     -1.736737      7.152209      7.152209     14.304417
     -1.726727      5.194189      5.194189     10.388377
     -1.716717      3.610486      3.610486      7.220971
     -1.706707      2.556291      2.556291      5.112581
     -1.696697      2.109963      2.109963      4.219926
     -1.686687      2.295237      2.295237      4.590474
     -1.676677      3.095458      3.095458      6.190917
     -1.666667      4.442456      4.442456      8.884913
     -1.656657      6.187271      6.187271     12.374542
     -1.646647      8.080638      8.080638     16.161277
     -1.636637      9.794557      9.794557     19.589114
     -1.626627     10.997818     10.997818     21.995637
