# EIG2DOS: Utility for SIESTA to obtain the electronic density of states
#  E. Artacho, Apr 1999, A. Garcia, Apr 2012
#  Nick R. Papior, Feb 2017
# ------------------------------------------
# Eigenvalues calculated from a non-polarized calculation
# Eigenvalues read from siesta.EIG
# Kpoint weights read from siesta.KP
# Using smearing parameter:   0.0500
# Using 1000 points in the energy range
# Selected bands: 1 to: 2981
# Emin, Emax in file for selected band(s):    -27.1172025    218.3319090
# Nbands, Nspin, Nk   =   2981     1     1
# E_F                 =    -4.2772 eV --> (shifted to ZERO)
# Broadening          =     0.0500 eV
#
#        E            N(up)  (=)   N(down)         Ntot
     -5.000000     40.747930     40.747930     81.495859
     -4.989990     42.215875     42.215875     84.431750
     -4.979980     43.257194     43.257194     86.514387
     -4.969970     43.628050     43.628050     87.256101
     -4.959960     43.120412     43.120412     86.240825
     -4.949950     41.656936     41.656936     83.313871
     -4.939940     39.345665     39.345665     78.691331
     -4.929930     36.490158     36.490158     72.980316
     -4.919920     33.567908     33.567908     67.135815
     -4.909910     31.186857     31.186857     62.373714
     -4.899900     30.012105     30.012105     60.024211
     -4.889890     30.641818     30.641818     61.283636
     -4.879880     33.425099     33.425099     66.850198
     -4.869870     38.261296     38.261296     76.522591
     -4.859860     44.474127     44.474127     88.948255
     -4.849850     50.866986     50.866986    101.733972
     -4.839840     56.003985     56.003985    112.007970
     -4.829830     58.643236     58.643236    117.286473
     -4.819820     58.145475     58.145475    116.290949
     -4.809810     54.669297     54.669297    109.338595
     -4.799800     49.064554     49.064554     98.129108
     -4.789790     42.529089     42.529089     85.058178
     -4.779780     36.203178     36.203178     72.406356
     -4.769770     30.876865     30.876865     61.753729
     -4.759760     26.893308     26.893308     53.786615
     -4.749750     24.219830     24.219830     48.439660
     -4.739740     22.596615     22.596615     45.193231
     -4.729730     21.678321     21.678321     43.356642
     -4.719720     21.126321     21.126321     42.252643
     -4.709710     20.650358     20.650358     41.300717
     -4.699700     20.020475     20.020475     40.040951
     -4.689690     19.075220     19.075220     38.150440
     -4.679680     17.745419     17.745419     35.490838
     -4.669670     16.096537     16.096537     32.193075
     -4.659660     14.371941     14.371941     28.743881
     -4.649650     13.005592     13.005592     26.011184
     -4.639640     12.575362     12.575362     25.150724
     -4.629630     13.686224     13.686224     27.372448
     -4.619620     16.797757     16.797757     33.595514
     -4.609610     22.035593     22.035593     44.071186
     -4.599600     29.048135     29.048135     58.096270
     -4.589590     36.979575     36.979575     73.959151
     -4.579580     44.611891     44.611891     89.223782
     -4.569570     50.671815     50.671815    101.343630
     -4.559560     54.218854     54.218854    108.437708
     -4.549550     54.969753     54.969753    109.939507
     -4.539540     53.417231     53.417231    106.834462
     -4.529530     50.676808     50.676808    101.353616
     -4.519520     48.109965     48.109965     96.219929
     -4.509510     46.865539     46.865539     93.731077
     -4.499499     47.509331     47.509331     95.018663
     -4.489489     49.867743     49.867743     99.735485
     -4.479479     53.123093     53.123093    106.246186
     -4.469469     56.107283     56.107283    112.214566
     -4.459459     57.679644     57.679644    115.359289
     -4.449449     57.060139     57.060139    114.120277
     -4.439439     54.019677     54.019677    108.039354
     -4.429429     48.890751     48.890751     97.781502
     -4.419419     42.428216     42.428216     84.856432
     -4.409409     35.593484     35.593484     71.186968
     -4.399399     29.338743     29.338743     58.677486
     -4.389389     24.438354     24.438354     48.876708
     -4.379379     21.379071     21.379071     42.758142
     -4.369369     20.304361     20.304361     40.608722
     -4.359359     21.013941     21.013941     42.027882
     -4.349349     23.028705     23.028705     46.057410
     -4.339339     25.722575     25.722575     51.445150
     -4.329329     28.494855     28.494855     56.989711
     -4.319319     30.929414     30.929414     61.858828
     -4.309309     32.883875     32.883875     65.767750
     -4.299299     34.478949     34.478949     68.957898
     -4.289289     35.998206     35.998206     71.996412
     -4.279279     37.738182     37.738182     75.476363
     -4.269269     39.857022     39.857022     79.714043
     -4.259259     42.265087     42.265087     84.530173
     -4.249249     44.594732     44.594732     89.189464
     -4.239239     46.276373     46.276373     92.552746
     -4.229229     46.719357     46.719357     93.438714
     -4.219219     45.545383     45.545383     91.090766
     -4.209209     42.775003     42.775003     85.550006
     -4.199199     38.866346     38.866346     77.732692
     -4.189189     34.569157     34.569157     69.138315
     -4.179179     30.656004     30.656004     61.312009
     -4.169169     27.661940     27.661940     55.323880
     -4.159159     25.756508     25.756508     51.513015
     -4.149149     24.794322     24.794322     49.588643
     -4.139139     24.494981     24.494981     48.989961
     -4.129129     24.644812     24.644812     49.289623
     -4.119119     25.214419     25.214419     50.428838
     -4.109109     26.335203     26.335203     52.670407
     -4.099099     28.148671     28.148671     56.297341
     -4.089089     30.608196     30.608196     61.216391
     -4.079079     33.347871     33.347871     66.695743
     -4.069069     35.713445     35.713445     71.426891
     -4.059059     36.972025     36.972025     73.944050
     -4.049049     36.613976     36.613976     73.227953
     -4.039039     34.594784     34.594784     69.189567
     -4.029029     31.386417     31.386417     62.772834
     -4.019019     27.810902     27.810902     55.621803
     -4.009009     24.748574     24.748574     49.497147
     -3.998999     22.871964     22.871964     45.743927
     -3.988989     22.519720     22.519720     45.039440
     -3.978979     23.727016     23.727016     47.454033
     -3.968969     26.341063     26.341063     52.682127
     -3.958959     30.127817     30.127817     60.255634
     -3.948949     34.820310     34.820310     69.640619
     -3.938939     40.123950     40.123950     80.247899
     -3.928929     45.726056     45.726056     91.452112
     -3.918919     51.336252     51.336252    102.672503
     -3.908909     56.736798     56.736798    113.473596
     -3.898899     61.793116     61.793116    123.586231
     -3.888889     66.392043     66.392043    132.784085
     -3.878879     70.328192     70.328192    140.656385
     -3.868869     73.208740     73.208740    146.417479
     -3.858859     74.456827     74.456827    148.913655
     -3.848849     73.451478     73.451478    146.902955
     -3.838839     69.767610     69.767610    139.535221
     -3.828829     63.414820     63.414820    126.829641
     -3.818819     54.957340     54.957340    109.914681
     -3.808809     45.443733     45.443733     90.887466
     -3.798799     36.160330     36.160330     72.320660
     -3.788789     28.300375     28.300375     56.600750
     -3.778779     22.670552     22.670552     45.341104
     -3.768769     19.529145     19.529145     39.058291
     -3.758759     18.589565     18.589565     37.179131
     -3.748749     19.164859     19.164859     38.329718
     -3.738739     20.395525     20.395525     40.791050
     -3.728729     21.495669     21.495669     42.991338
     -3.718719     21.960153     21.960153     43.920307
     -3.708709     21.688048     21.688048     43.376096
     -3.698699     20.993070     20.993070     41.986140
     -3.688689     20.492779     20.492779     40.985557
     -3.678679     20.897376     20.897376     41.794752
     -3.668669     22.752617     22.752617     45.505235
     -3.658659     26.217879     26.217879     52.435759
     -3.648649     30.962935     30.962935     61.925870
     -3.638639     36.232941     36.232941     72.465882
     -3.628629     41.065836     41.065836     82.131671
     -3.618619     44.578538     44.578538     89.157077
     -3.608609     46.207480     46.207480     92.414959
     -3.598599     45.816926     45.816926     91.633851
     -3.588589     43.658812     43.658812     87.317623
     -3.578579     40.234309     40.234309     80.468619
     -3.568569     36.130622     36.130622     72.261243
     -3.558559     31.884632     31.884632     63.769264
     -3.548549     27.890033     27.890033     55.780067
     -3.538539     24.348063     24.348063     48.696127
     -3.528529     21.266254     21.266254     42.532508
     -3.518519     18.512203     18.512203     37.024406
     -3.508509     15.912946     15.912946     31.825892
     -3.498498     13.363779     13.363779     26.727559
     -3.488488     10.898540     10.898540     21.797079
     -3.478478      8.690721      8.690721     17.381442
     -3.468468      6.990074      6.990074     13.980148
     -3.458458      6.027343      6.027343     12.054686
     -3.448448      5.925425      5.925425     11.850849
     -3.438438      6.643823      6.643823     13.287646
     -3.428428      7.970031      7.970031     15.940061
     -3.418418      9.563432      9.563432     19.126863
     -3.408408     11.048580     11.048580     22.097161
     -3.398398     12.137675     12.137675     24.275351
     -3.388388     12.741416     12.741416     25.482833
     -3.378378     13.019954     13.019954     26.039909
     -3.368368     13.344517     13.344517     26.689035
     -3.358358     14.179561     14.179561     28.359122
     -3.348348     15.930865     15.930865     31.861731
     -3.338338     18.813565     18.813565     37.627130
     -3.328328     22.773371     22.773371     45.546742
     -3.318318     27.465459     27.465459     54.930918
     -3.308308     32.283704     32.283704     64.567407
     -3.298298     36.442395     36.442395     72.884790
     -3.288288     39.121060     39.121060     78.242120
     -3.278278     39.664467     39.664467     79.328935
     -3.268268     37.785650     37.785650     75.571301
     -3.258258     33.685643     33.685643     67.371287
     -3.248248     28.019703     28.019703     56.039405
     -3.238238     21.709433     21.709433     43.418867
     -3.228228     15.680345     15.680345     31.360689
     -3.218218     10.639038     10.639038     21.278076
     -3.208208      6.971537      6.971537     13.943073
     -3.198198      4.771284      4.771284      9.542568
     -3.188188      3.942600      3.942600      7.885200
     -3.178178      4.307403      4.307403      8.614806
     -3.168168      5.669226      5.669226     11.338451
     -3.158158      7.832329      7.832329     15.664659
     -3.148148     10.604289     10.604289     21.208578
     -3.138138     13.810972     13.810972     27.621943
     -3.128128     17.327626     17.327626     34.655253
     -3.118118     21.100565     21.100565     42.201130
     -3.108108     25.126317     25.126317     50.252634
     -3.098098     29.379721     29.379721     58.759441
     -3.088088     33.723662     33.723662     67.447324
     -3.078078     37.858165     37.858165     75.716330
     -3.068068     41.351278     41.351278     82.702555
     -3.058058     43.745732     43.745732     87.491464
     -3.048048     44.688581     44.688581     89.377162
     -3.038038     44.020667     44.020667     88.041333
     -3.028028     41.794542     41.794542     83.589084
     -3.018018     38.236215     38.236215     76.472429
     -3.008008     33.692103     33.692103     67.384206
     -2.997998     28.593171     28.593171     57.186342
     -2.987988     23.438378     23.438378     46.876757
     -2.977978     18.776921     18.776921     37.553843
     -2.967968     15.168369     15.168369     30.336738
     -2.957958     13.115301     13.115301     26.230602
     -2.947948     12.978426     12.978426     25.956852
     -2.937938     14.890979     14.890979     29.781958
     -2.927928     18.691633     18.691633     37.383266
     -2.917918     23.899302     23.899302     47.798603
     -2.907908     29.755870     29.755870     59.511739
     -2.897898     35.352448     35.352448     70.704896
     -2.887888     39.824917     39.824917     79.649834
     -2.877878     42.565463     42.565463     85.130926
     -2.867868     43.372567     43.372567     86.745135
     -2.857858     42.473627     42.473627     84.947254
     -2.847848     40.403528     40.403528     80.807055
     -2.837838     37.786741     37.786741     75.573483
     -2.827828     35.116003     35.116003     70.232006
     -2.817818     32.621631     32.621631     65.243262
     -2.807808     30.279841     30.279841     60.559681
     -2.797798     27.938950     27.938950     55.877899
     -2.787788     25.485448     25.485448     50.970896
     -2.777778     22.957531     22.957531     45.915061
     -2.767768     20.549227     20.549227     41.098453
     -2.757758     18.513734     18.513734     37.027468
     -2.747748     17.032876     17.032876     34.065753
     -2.737738     16.136871     16.136871     32.273743
     -2.727728     15.724014     15.724014     31.448028
     -2.717718     15.663842     15.663842     31.327684
     -2.707708     15.911048     15.911048     31.822096
     -2.697698     16.548122     16.548122     33.096245
     -2.687688     17.720968     17.720968     35.441937
     -2.677678     19.505210     19.505210     39.010420
     -2.667668     21.792973     21.792973     43.585946
     -2.657658     24.283228     24.283228     48.566456
     -2.647648     26.594095     26.594095     53.188190
     -2.637638     28.434191     28.434191     56.868382
     -2.627628     29.728174     29.728174     59.456347
     -2.617618     30.620257     30.620257     61.240514
     -2.607608     31.359814     31.359814     62.719629
     -2.597598     32.147489     32.147489     64.294979
     -2.587588     33.035068     33.035068     66.070136
     -2.577578     33.921310     33.921310     67.842619
     -2.567568     34.614806     34.614806     69.229611
     -2.557558     34.902073     34.902073     69.804146
     -2.547548     34.584843     34.584843     69.169687
     -2.537538     33.501458     33.501458     67.002916
     -2.527528     31.570119     31.570119     63.140237
     -2.517518     28.864050     28.864050     57.728099
     -2.507508     25.678260     25.678260     51.356520
     -2.497497     22.524521     22.524521     45.049042
     -2.487487     20.020806     20.020806     40.041611
     -2.477477     18.704277     18.704277     37.408553
     -2.467467     18.848288     18.848288     37.696576
     -2.457457     20.370305     20.370305     40.740610
     -2.447447     22.876966     22.876966     45.753931
     -2.437437     25.828492     25.828492     51.656985
     -2.427427     28.749089     28.749089     57.498178
     -2.417417     31.387957     31.387957     62.775914
     -2.407407     33.757165     33.757165     67.514330
     -2.397397     36.029378     36.029378     72.058757
     -2.387387     38.345604     38.345604     76.691209
     -2.377377     40.629612     40.629612     81.259225
     -2.367367     42.508383     42.508383     85.016766
     -2.357357     43.392655     43.392655     86.785309
     -2.347347     42.696117     42.696117     85.392234
     -2.337337     40.100688     40.100688     80.201376
     -2.327327     35.745925     35.745925     71.491849
     -2.317317     30.252538     30.252538     60.505077
     -2.307307     24.568522     24.568522     49.137044
     -2.297297     19.707580     19.707580     39.415160
     -2.287287     16.488062     16.488062     32.976124
     -2.277277     15.361509     15.361509     30.723017
     -2.267267     16.365515     16.365515     32.731029
     -2.257257     19.183417     19.183417     38.366833
     -2.247247     23.266480     23.266480     46.532960
     -2.237237     27.971901     27.971901     55.943803
     -2.227227     32.679422     32.679422     65.358844
     -2.217217     36.863098     36.863098     73.726196
     -2.207207     40.113348     40.113348     80.226696
     -2.197197     42.126898     42.126898     84.253797
     -2.187187     42.698375     42.698375     85.396750
     -2.177177     41.742335     41.742335     83.484670
     -2.167167     39.344650     39.344650     78.689299
     -2.157157     35.804540     35.804540     71.609080
     -2.147147     31.613590     31.613590     63.227181
     -2.137137     27.345330     27.345330     54.690660
     -2.127127     23.486494     23.486494     46.972989
     -2.117117     20.288983     20.288983     40.577965
     -2.107107     17.721330     17.721330     35.442659
     -2.097097     15.545455     15.545455     31.090911
     -2.087087     13.473280     13.473280     26.946559
     -2.077077     11.316763     11.316763     22.633526
     -2.067067      9.058893      9.058893     18.117786
     -2.057057      6.827173      6.827173     13.654345
     -2.047047      4.805697      4.805697      9.611395
     -2.037037      3.144149      3.144149      6.288297
     -2.027027      1.906824      1.906824      3.813648
     -2.017017      1.071604      1.071604      2.143207
     -2.007007      0.562020      0.562020      1.124040
     -1.996997      0.287677      0.287677      0.575353
     -1.986987      0.175911      0.175911      0.351823
     -1.976977      0.189891      0.189891      0.379783
     -1.966967      0.336242      0.336242      0.672483
     -1.956957      0.666052      0.666052      1.332103
     -1.946947      1.269094      1.269094      2.538187
     -1.936937      2.257070      2.257070      4.514140
     -1.926927      3.732061      3.732061      7.464123
     -1.916917      5.742899      5.742899     11.485798
     -1.906907      8.242229      8.242229     16.484459
     -1.896897     11.063789     11.063789     22.127577
     -1.886887     13.936052     13.936052     27.872104
     -1.876877     16.534422     16.534422     33.068845
     -1.866867     18.557088     18.557088     37.114176
     -1.856857     19.800053     19.800053     39.600106
     -1.846847     20.208704     20.208704     40.417407
     -1.836837     19.891816     19.891816     39.783633
     -1.826827     19.092610     19.092610     38.185219
     -1.816817     18.120186     18.120186     36.240372
     -1.806807     17.257940     17.257940     34.515880
     -1.796797     16.681019     16.681019     33.362038
     -1.786787     16.419513     16.419513     32.839026
     -1.776777     16.385079     16.385079     32.770158
     -1.766767     16.441961     16.441961     32.883922
     -1.756757     16.474965     16.474965     32.949930
     -1.746747     16.412454     16.412454     32.824908
     -1.736737     16.201030     16.201030     32.402061
     -1.726727     15.769760     15.769760     31.539519
     -1.716717     15.030612     15.030612     30.061224
     -1.706707     13.930015     13.930015     27.860030
     -1.696697     12.520264     12.520264     25.040528
     -1.686687     10.996307     10.996307     21.992614
     -1.676677      9.660313      9.660313     19.320625
     -1.666667      8.819343      8.819343     17.638685
     -1.656657      8.660481      8.660481     17.320961
     -1.646647      9.161222      9.161222     18.322445
     -1.636637     10.078064     10.078064     20.156128
     -1.626627     11.023638     11.023638     22.047275
