# EIG2DOS: Utility for SIESTA to obtain the electronic density of states
#  E. Artacho, Apr 1999, A. Garcia, Apr 2012
#  Nick R. Papior, Feb 2017
# ------------------------------------------
# Eigenvalues calculated from a non-polarized calculation
# Eigenvalues read from siesta.EIG
# Kpoint weights read from siesta.KP
# Using smearing parameter:   0.0500
# Using 1000 points in the energy range
# Selected bands: 1 to: 2981
# Emin, Emax in file for selected band(s):    -27.4191099    218.3847800
# Nbands, Nspin, Nk   =   2981     1     1
# E_F                 =    -4.2180 eV --> (shifted to ZERO)
# Broadening          =     0.0500 eV
#
#        E            N(up)  (=)   N(down)         Ntot
     -5.000000     35.807654     35.807654     71.615309
     -4.989990     39.907035     39.907035     79.814070
     -4.979980     43.106969     43.106969     86.213938
     -4.969970     44.880499     44.880499     89.760997
     -4.959960     44.938639     44.938639     89.877278
     -4.949950     43.324552     43.324552     86.649104
     -4.939940     40.410082     40.410082     80.820164
     -4.929930     36.816329     36.816329     73.632658
     -4.919920     33.304088     33.304088     66.608175
     -4.909910     30.666814     30.666814     61.333628
     -4.899900     29.625128     29.625128     59.250256
     -4.889890     30.701499     30.701499     61.402999
     -4.879880     34.071279     34.071279     68.142558
     -4.869870     39.433660     39.433660     78.867319
     -4.859860     45.983430     45.983430     91.966860
     -4.849850     52.549195     52.549195    105.098391
     -4.839840     57.888988     57.888988    115.777976
     -4.829830     61.041644     61.041644    122.083288
     -4.819820     61.585882     61.585882    123.171765
     -4.809810     59.696715     59.696715    119.393430
     -4.799800     55.991183     55.991183    111.982365
     -4.789790     51.257768     51.257768    102.515537
     -4.779780     46.203586     46.203586     92.407172
     -4.769770     41.314757     41.314757     82.629515
     -4.759760     36.845664     36.845664     73.691327
     -4.749750     32.888127     32.888127     65.776254
     -4.739740     29.454053     29.454053     58.908105
     -4.729730     26.527264     26.527264     53.054528
     -4.719720     24.074329     24.074329     48.148659
     -4.709710     22.029463     22.029463     44.058925
     -4.699700     20.280535     20.280535     40.561069
     -4.689690     18.683415     18.683415     37.366831
     -4.679680     17.118890     17.118890     34.237781
     -4.669670     15.580862     15.580862     31.161725
     -4.659660     14.257288     14.257288     28.514575
     -4.649650     13.553760     13.553760     27.107520
     -4.639640     14.024070     14.024070     28.048140
     -4.629630     16.207134     16.207134     32.414268
     -4.619620     20.410648     20.410648     40.821296
     -4.609610     26.514409     26.514409     53.028818
     -4.599600     33.878888     33.878888     67.757777
     -4.589590     41.425670     41.425670     82.851340
     -4.579580     47.899492     47.899492     95.798984
     -4.569570     52.240558     52.240558    104.481116
     -4.559560     53.929199     53.929199    107.858398
     -4.549550     53.156941     53.156941    106.313883
     -4.539540     50.744098     50.744098    101.488196
     -4.529530     47.833935     47.833935     95.667870
     -4.519520     45.489210     45.489210     90.978420
     -4.509510     44.350571     44.350571     88.701143
     -4.499499     44.477730     44.477730     88.955460
     -4.489489     45.409881     45.409881     90.819761
     -4.479479     46.393983     46.393983     92.787967
     -4.469469     46.674473     46.674473     93.348945
     -4.459459     45.732819     45.732819     91.465638
     -4.449449     43.405048     43.405048     86.810097
     -4.439439     39.867131     39.867131     79.734263
     -4.429429     35.532086     35.532086     71.064171
     -4.419419     30.924668     30.924668     61.849336
     -4.409409     26.583313     26.583313     53.166627
     -4.399399     23.000037     23.000037     46.000074
     -4.389389     20.576356     20.576356     41.152713
     -4.379379     19.570147     19.570147     39.140294
     -4.369369     20.034751     20.034751     40.069501
     -4.359359     21.783209     21.783209     43.566418
     -4.349349     24.417718     24.417718     48.835437
     -4.339339     27.436626     27.436626     54.873252
     -4.329329     30.386150     30.386150     60.772300
     -4.319319     32.993321     32.993321     65.986642
     -4.309309     35.221696     35.221696     70.443393
     -4.299299     37.227593     37.227593     74.455187
     -4.289289     39.238027     39.238027     78.476053
     -4.279279     41.399577     41.399577     82.799154
     -4.269269     43.654015     43.654015     87.308030
     -4.259259     45.688763     45.688763     91.377526
     -4.249249     46.993092     46.993092     93.986184
     -4.239239     47.020215     47.020215     94.040430
     -4.229229     45.409540     45.409540     90.819081
     -4.219219     42.179461     42.179461     84.358922
     -4.209209     37.792135     37.792135     75.584271
     -4.199199     33.039268     33.039268     66.078536
     -4.189189     28.785472     28.785472     57.570945
     -4.179179     25.682688     25.682688     51.365376
     -4.169169     23.986231     23.986231     47.972463
     -4.159159     23.549437     23.549437     47.098873
     -4.149149     23.983012     23.983012     47.966023
     -4.139139     24.888171     24.888171     49.776342
     -4.129129     26.044974     26.044974     52.089948
     -4.119119     27.465340     27.465340     54.930679
     -4.109109     29.287868     29.287868     58.575737
     -4.099099     31.571733     31.571733     63.143467
     -4.089089     34.106340     34.106340     68.212681
     -4.079079     36.359168     36.359168     72.718336
     -4.069069     37.620676     37.620676     75.241351
     -4.059059     37.295756     37.295756     74.591511
     -4.049049     35.197592     35.197592     70.395184
     -4.039039     31.685588     31.685588     63.371175
     -4.029029     27.570555     27.570555     55.141110
     -4.019019     23.837997     23.837997     47.675994
     -4.009009     21.332258     21.332258     42.664516
     -3.998999     20.546265     20.546265     41.092530
     -3.988989     21.582947     21.582947     43.165893
     -3.978979     24.254799     24.254799     48.509598
     -3.968969     28.230633     28.230633     56.461267
     -3.958959     33.148337     33.148337     66.296675
     -3.948949     38.666499     38.666499     77.332997
     -3.938939     44.478055     44.478055     88.956110
     -3.928929     50.320212     50.320212    100.640424
     -3.918919     55.988275     55.988275    111.976550
     -3.908909     61.330171     61.330171    122.660342
     -3.898899     66.197474     66.197474    132.394949
     -3.888889     70.362300     70.362300    140.724600
     -3.878879     73.449505     73.449505    146.899010
     -3.868869     74.944492     74.944492    149.888984
     -3.858859     74.305252     74.305252    148.610504
     -3.848849     71.151119     71.151119    142.302239
     -3.838839     65.453955     65.453955    130.907911
     -3.828829     57.646574     57.646574    115.293148
     -3.818819     48.592791     48.592791     97.185582
     -3.808809     39.417823     39.417823     78.835645
     -3.798799     31.251298     31.251298     62.502595
     -3.788789     24.965503     24.965503     49.931007
     -3.778779     20.988868     20.988868     41.977735
     -3.768769     19.244585     19.244585     38.489171
     -3.758759     19.222359     19.222359     38.444717
     -3.748749     20.153968     20.153968     40.307935
     -3.738739     21.240586     21.240586     42.481172
     -3.728729     21.872908     21.872908     43.745816
     -3.718719     21.790814     21.790814     43.581627
     -3.708709     21.143535     21.143535     42.287071
     -3.698699     20.432083     20.432083     40.864166
     -3.688689     20.342518     20.342518     40.685037
     -3.678679     21.509615     21.509615     43.019231
     -3.668669     24.278600     24.278600     48.557201
     -3.658659     28.545379     28.545379     57.090759
     -3.648649     33.739719     33.739719     67.479438
     -3.638639     38.967926     38.967926     77.935852
     -3.628629     43.267371     43.267371     86.534742
     -3.618619     45.876490     45.876490     91.752980
     -3.608609     46.420100     46.420100     92.840199
     -3.598599     44.955069     44.955069     89.910138
     -3.588589     41.887532     41.887532     83.775065
     -3.578579     37.819275     37.819275     75.638551
     -3.568569     33.386211     33.386211     66.772422
     -3.558559     29.128010     29.128010     58.256019
     -3.548549     25.404191     25.404191     50.808381
     -3.538539     22.364383     22.364383     44.728766
     -3.528529     19.979379     19.979379     39.958757
     -3.518519     18.126282     18.126282     36.252565
     -3.508509     16.694091     16.694091     33.388181
     -3.498498     15.657045     15.657045     31.314089
     -3.488488     15.075657     15.075657     30.151314
     -3.478478     15.028125     15.028125     30.056251
     -3.468468     15.518808     15.518808     31.037616
     -3.458458     16.422517     16.422517     32.845033
     -3.448448     17.495795     17.495795     34.991590
     -3.438438     18.442865     18.442865     36.885730
     -3.428428     18.998017     18.998017     37.996034
     -3.418418     18.992180     18.992180     37.984361
     -3.408408     18.394674     18.394674     36.789349
     -3.398398     17.335988     17.335988     34.671975
     -3.388388     16.112682     16.112682     32.225364
     -3.378378     15.163084     15.163084     30.326169
     -3.368368     15.001485     15.001485     30.002970
     -3.358358     16.114000     16.114000     32.228000
     -3.348348     18.837738     18.837738     37.675476
     -3.338338     23.250907     23.250907     46.501814
     -3.328328     29.095102     29.095102     58.190203
     -3.318318     35.746311     35.746311     71.492623
     -3.308308     42.256931     42.256931     84.513861
     -3.298298     47.495077     47.495077     94.990155
     -3.288288     50.385734     50.385734    100.771468
     -3.278278     50.204014     50.204014    100.408028
     -3.268268     46.814452     46.814452     93.628903
     -3.258258     40.741558     40.741558     81.483117
     -3.248248     33.020643     33.020643     66.041287
     -3.238238     24.883557     24.883557     49.767114
     -3.228228     17.414017     17.414017     34.828034
     -3.218218     11.310328     11.310328     22.620656
     -3.208208      6.824070      6.824070     13.648140
     -3.198198      3.853282      3.853282      7.706565
     -3.188188      2.112197      2.112197      4.224393
     -3.178178      1.296720      1.296720      2.593440
     -3.168168      1.197537      1.197537      2.395073
     -3.158158      1.749038      1.749038      3.498077
     -3.148148      3.021723      3.021723      6.043445
     -3.138138      5.168247      5.168247     10.336494
     -3.128128      8.331985      8.331985     16.663969
     -3.118118     12.534118     12.534118     25.068236
     -3.108108     17.572091     17.572091     35.144182
     -3.098098     22.976249     22.976249     45.952498
     -3.088088     28.064822     28.064822     56.129645
     -3.078078     32.101195     32.101195     64.202391
     -3.068068     34.503929     34.503929     69.007858
     -3.058058     35.020794     35.020794     70.041587
     -3.048048     33.784234     33.784234     67.568469
     -3.038038     31.222635     31.222635     62.445271
     -3.028028     27.878541     27.878541     55.757082
     -3.018018     24.232547     24.232547     48.465094
     -3.008008     20.618250     20.618250     41.236501
     -2.997998     17.250311     17.250311     34.500622
     -2.987988     14.319277     14.319277     28.638554
     -2.977978     12.076913     12.076913     24.153826
     -2.967968     10.855086     10.855086     21.710172
     -2.957958     11.006354     11.006354     22.012708
     -2.947948     12.792924     12.792924     25.585848
     -2.937938     16.267140     16.267140     32.534280
     -2.927928     21.185948     21.185948     42.371897
     -2.917918     26.994055     26.994055     53.988110
     -2.907908     32.897395     32.897395     65.794790
     -2.897898     38.024740     38.024740     76.049481
     -2.887888     41.640703     41.640703     83.281407
     -2.877878     43.341259     43.341259     86.682517
     -2.867868     43.154262     43.154262     86.308525
     -2.857858     41.495955     41.495955     82.991909
     -2.847848     38.993655     38.993655     77.987309
     -2.837838     36.247438     36.247438     72.494876
     -2.827828     33.635123     33.635123     67.270246
     -2.817818     31.244427     31.244427     62.488854
     -2.807808     28.951299     28.951299     57.902599
     -2.797798     26.588476     26.588476     53.176952
     -2.787788     24.105153     24.105153     48.210307
     -2.777778     21.631707     21.631707     43.263414
     -2.767768     19.424064     19.424064     38.848127
     -2.757758     17.734248     17.734248     35.468496
     -2.747748     16.693817     16.693817     33.387634
     -2.737738     16.281759     16.281759     32.563518
     -2.727728     16.388177     16.388177     32.776354
     -2.717718     16.918985     16.918985     33.837971
     -2.707708     17.859387     17.859387     35.718775
     -2.697698     19.245491     19.245491     38.490982
     -2.687688     21.064046     21.064046     42.128092
     -2.677678     23.160064     23.160064     46.320128
     -2.667668     25.235223     25.235223     50.470447
     -2.657658     26.959388     26.959388     53.918776
     -2.647648     28.134171     28.134171     56.268343
     -2.637638     28.802508     28.802508     57.605016
     -2.627628     29.227629     29.227629     58.455257
     -2.617618     29.749522     29.749522     59.499043
     -2.607608     30.605520     30.605520     61.211040
     -2.597598     31.817535     31.817535     63.635070
     -2.587588     33.194521     33.194521     66.389041
     -2.577578     34.421356     34.421356     68.842713
     -2.567568     35.164433     35.164433     70.328866
     -2.557558     35.143537     35.143537     70.287074
     -2.547548     34.170450     34.170450     68.340899
     -2.537538     32.185846     32.185846     64.371693
     -2.527528     29.311202     29.311202     58.622404
     -2.517518     25.891006     25.891006     51.782012
     -2.507508     22.476035     22.476035     44.952070
     -2.497497     19.717212     19.717212     39.434424
     -2.487487     18.189922     18.189922     36.379843
     -2.477477     18.214719     18.214719     36.429439
     -2.467467     19.752145     19.752145     39.504289
     -2.457457     22.421351     22.421351     44.842702
     -2.447447     25.640370     25.640370     51.280739
     -2.437437     28.833993     28.833993     57.667987
     -2.427427     31.624800     31.624800     63.249601
     -2.417417     33.926665     33.926665     67.853330
     -2.407407     35.898752     35.898752     71.797505
     -2.397397     37.778073     37.778073     75.556147
     -2.387387     39.666390     39.666390     79.332780
     -2.377377     41.376574     41.376574     82.753149
     -2.367367     42.426215     42.426215     84.852429
     -2.357357     42.201885     42.201885     84.403769
     -2.347347     40.231022     40.231022     80.462045
     -2.337337     36.435112     36.435112     72.870224
     -2.327327     31.239200     31.239200     62.478400
     -2.317317     25.484056     25.484056     50.968113
     -2.307307     20.186787     20.186787     40.373573
     -2.297297     16.262095     16.262095     32.524190
     -2.287287     14.314167     14.314167     28.628334
     -2.277277     14.552593     14.552593     29.105187
     -2.267267     16.820639     16.820639     33.641278
     -2.257257     20.688469     20.688469     41.376938
     -2.247247     25.564265     25.564265     51.128529
     -2.237237     30.794710     30.794710     61.589419
     -2.227227     35.743925     35.743925     71.487849
     -2.217217     39.849927     39.849927     79.699853
     -2.207207     42.663732     42.663732     85.327463
     -2.197197     43.881113     43.881113     87.762226
     -2.187187     43.377100     43.377100     86.754200
     -2.177177     41.242732     41.242732     82.485465
     -2.167167     37.804644     37.804644     75.609288
     -2.157157     33.595499     33.595499     67.190997
     -2.147147     29.254706     29.254706     58.509412
     -2.137137     25.376020     25.376020     50.752041
     -2.127127     22.358591     22.358591     44.717181
     -2.117117     20.327716     20.327716     40.655432
     -2.107107     19.157109     19.157109     38.314218
     -2.097097     18.567683     18.567683     37.135365
     -2.087087     18.240804     18.240804     36.481607
     -2.077077     17.892887     17.892887     35.785775
     -2.067067     17.300941     17.300941     34.601882
     -2.057057     16.306407     16.306407     32.612814
     -2.047047     14.827613     14.827613     29.655226
     -2.037037     12.883817     12.883817     25.767633
     -2.027027     10.606985     10.606985     21.213971
     -2.017017      8.217195      8.217195     16.434390
     -2.007007      5.962538      5.962538     11.925076
     -1.996997      4.050954      4.050954      8.101907
     -1.986987      2.607504      2.607504      5.215007
     -1.976977      1.673945      1.673945      3.347890
     -1.966967      1.242784      1.242784      2.485568
     -1.956957      1.301755      1.301755      2.603509
     -1.946947      1.863326      1.863326      3.726652
     -1.936937      2.963966      2.963966      5.927932
     -1.926927      4.632935      4.632935      9.265871
     -1.916917      6.844884      6.844884     13.689767
     -1.906907      9.479786      9.479786     18.959572
     -1.896897     12.313054     12.313054     24.626108
     -1.886887     15.046306     15.046306     30.092613
     -1.876877     17.370527     17.370527     34.741054
     -1.866867     19.038997     19.038997     38.077993
     -1.856857     19.925295     19.925295     39.850590
     -1.846847     20.049972     20.049972     40.099945
     -1.836837     19.569323     19.569323     39.138646
     -1.826827     18.726259     18.726259     37.452518
     -1.816817     17.770861     17.770861     35.541722
     -1.806807     16.872102     16.872102     33.744205
     -1.796797     16.056655     16.056655     32.113309
     -1.786787     15.209353     15.209353     30.418707
     -1.776777     14.143342     14.143342     28.286684
     -1.766767     12.708155     12.708155     25.416311
     -1.756757     10.879258     10.879258     21.758517
     -1.746747      8.783082      8.783082     17.566165
     -1.736737      6.651133      6.651133     13.302265
     -1.726727      4.736984      4.736984      9.473968
     -1.716717      3.244239      3.244239      6.488477
     -1.706707      2.296469      2.296469      4.592937
     -1.696697      1.948138      1.948138      3.896276
     -1.686687      2.210933      2.210933      4.421865
     -1.676677      3.065965      3.065965      6.131930
     -1.666667      4.447944      4.447944      8.895887
     -1.656657      6.211819      6.211819     12.423638
     -1.646647      8.111380      8.111380     16.222759
     -1.636637      9.820953      9.820953     19.641906
     -1.626627     11.011907     11.011907     22.023813
