# EIG2DOS: Utility for SIESTA to obtain the electronic density of states
#  E. Artacho, Apr 1999, A. Garcia, Apr 2012
#  Nick R. Papior, Feb 2017
# ------------------------------------------
# Eigenvalues calculated from a non-polarized calculation
# Eigenvalues read from siesta.EIG
# Kpoint weights read from siesta.KP
# Using smearing parameter:   0.0500
# Using 1000 points in the energy range
# Selected bands: 1 to: 2981
# Emin, Emax in file for selected band(s):    -27.3038688    218.3878970
# Nbands, Nspin, Nk   =   2981     1     1
# E_F                 =    -4.2081 eV --> (shifted to ZERO)
# Broadening          =     0.0500 eV
#
#        E            N(up)  (=)   N(down)         Ntot
     -5.000000     32.336698     32.336698     64.673396
     -4.989990     37.366046     37.366046     74.732092
     -4.979980     42.003034     42.003034     84.006068
     -4.969970     45.438273     45.438273     90.876545
     -4.959960     47.022179     47.022179     94.044358
     -4.949950     46.482496     46.482496     92.964993
     -4.939940     44.019291     44.019291     88.038581
     -4.929930     40.255584     40.255584     80.511167
     -4.919920     36.086678     36.086678     72.173356
     -4.909910     32.495083     32.495083     64.990166
     -4.899900     30.374988     30.374988     60.749976
     -4.889890     30.372607     30.372607     60.745214
     -4.879880     32.737545     32.737545     65.475091
     -4.869870     37.207828     37.207828     74.415656
     -4.859860     42.988165     42.988165     85.976330
     -4.849850     48.881710     48.881710     97.763420
     -4.839840     53.579728     53.579728    107.159456
     -4.829830     56.028128     56.028128    112.056256
     -4.819820     55.731480     55.731480    111.462959
     -4.809810     52.868514     52.868514    105.737027
     -4.799800     48.176694     48.176694     96.353388
     -4.789790     42.669737     42.669737     85.339473
     -4.779780     37.319597     37.319597     74.639194
     -4.769770     32.829044     32.829044     65.658087
     -4.759760     29.554506     29.554506     59.109012
     -4.749750     27.557198     27.557198     55.114395
     -4.739740     26.709469     26.709469     53.418937
     -4.729730     26.782431     26.782431     53.564862
     -4.719720     27.479150     27.479150     54.958300
     -4.709710     28.427913     28.427913     56.855827
     -4.699700     29.184478     29.184478     58.368957
     -4.689690     29.292037     29.292037     58.584074
     -4.679680     28.410931     28.410931     56.821862
     -4.669670     26.476660     26.476660     52.953319
     -4.659660     23.808968     23.808968     47.617935
     -4.649650     21.102849     21.102849     42.205698
     -4.639640     19.280435     19.280435     38.560869
     -4.629630     19.240431     19.240431     38.480861
     -4.619620     21.578812     21.578812     43.157624
     -4.609610     26.363414     26.363414     52.726828
     -4.599600     33.035988     33.035988     66.071977
     -4.589590     40.493365     40.493365     80.986730
     -4.579580     47.355958     47.355958     94.711915
     -4.569570     52.363307     52.363307    104.726613
     -4.559560     54.766434     54.766434    109.532869
     -4.549550     54.561175     54.561175    109.122349
     -4.539540     52.456864     52.456864    104.913729
     -4.529530     49.585898     49.585898     99.171796
     -4.519520     47.074272     47.074272     94.148545
     -4.509510     45.650018     45.650018     91.300036
     -4.499499     45.439210     45.439210     90.878420
     -4.489489     46.008314     46.008314     92.016627
     -4.479479     46.605500     46.605500     93.211000
     -4.469469     46.480530     46.480530     92.961061
     -4.459459     45.149667     45.149667     90.299334
     -4.449449     42.516480     42.516480     85.032959
     -4.439439     38.834897     38.834897     77.669794
     -4.429429     34.569757     34.569757     69.139514
     -4.419419     30.240795     30.240795     60.481590
     -4.409409     26.317495     26.317495     52.634990
     -4.399399     23.180959     23.180959     46.361918
     -4.389389     21.120417     21.120417     42.240835
     -4.379379     20.318822     20.318822     40.637645
     -4.369369     20.810274     20.810274     41.620548
     -4.359359     22.436255     22.436255     44.872511
     -4.349349     24.849875     24.849875     49.699749
     -4.339339     27.597599     27.597599     55.195197
     -4.329329     30.259821     30.259821     60.519642
     -4.319319     32.589905     32.589905     65.179810
     -4.309309     34.584486     34.584486     69.168972
     -4.299299     36.448094     36.448094     72.896188
     -4.289289     38.462103     38.462103     76.924206
     -4.279279     40.807652     40.807652     81.615305
     -4.269269     43.412028     43.412028     86.824056
     -4.259259     45.886291     45.886291     91.772582
     -4.249249     47.597891     47.597891     95.195782
     -4.239239     47.874430     47.874430     95.748861
     -4.229229     46.273059     46.273059     92.546117
     -4.219219     42.802569     42.802569     85.605138
     -4.209209     37.987411     37.987411     75.974821
     -4.199199     32.727421     32.727421     65.454842
     -4.189189     28.005656     28.005656     56.011313
     -4.179179     24.572841     24.572841     49.145682
     -4.169169     22.745533     22.745533     45.491067
     -4.159159     22.393595     22.393595     44.787189
     -4.149149     23.099613     23.099613     46.199225
     -4.139139     24.398441     24.398441     48.796883
     -4.129129     25.979890     25.979890     51.959779
     -4.119119     27.764415     27.764415     55.528831
     -4.109109     29.824313     29.824313     59.648627
     -4.099099     32.197617     32.197617     64.395235
     -4.089089     34.700566     34.700566     69.401133
     -4.079079     36.856873     36.856873     73.713746
     -4.069069     38.010416     38.010416     76.020832
     -4.059059     37.588297     37.588297     75.176594
     -4.049049     35.387294     35.387294     70.774588
     -4.039039     31.730691     31.730691     63.461381
     -4.029029     27.407468     27.407468     54.814937
     -4.019019     23.423225     23.423225     46.846450
     -4.009009     20.687116     20.687116     41.374232
     -3.998999     19.775742     19.775742     39.551484
     -3.988989     20.853602     20.853602     41.707205
     -3.978979     23.739500     23.739500     47.478999
     -3.968969     28.046442     28.046442     56.092884
     -3.958959     33.316968     33.316968     66.633936
     -3.948949     39.113431     39.113431     78.226861
     -3.938939     45.066245     45.066245     90.132489
     -3.928929     50.900020     50.900020    101.800040
     -3.918919     56.443306     56.443306    112.886612
     -3.908909     61.606006     61.606006    123.212011
     -3.898899     66.309004     66.309004    132.618007
     -3.888889     70.380975     70.380975    140.761949
     -3.878879     73.475192     73.475192    146.950384
     -3.868869     75.070350     75.070350    150.140700
     -3.858859     74.587271     74.587271    149.174542
     -3.848849     71.593071     71.593071    143.186143
     -3.838839     66.011825     66.011825    132.023650
     -3.828829     58.247439     58.247439    116.494879
     -3.818819     49.157756     49.157756     98.315513
     -3.808809     39.880093     39.880093     79.760186
     -3.798799     31.566402     31.566402     63.132803
     -3.788789     25.115633     25.115633     50.231267
     -3.778779     20.984011     20.984011     41.968023
     -3.768769     19.120679     19.120679     38.241359
     -3.758759     19.034591     19.034591     38.069182
     -3.748749     19.963993     19.963993     39.927985
     -3.738739     21.099420     21.099420     42.198841
     -3.728729     21.804471     21.804471     43.608943
     -3.718719     21.782452     21.782452     43.564904
     -3.708709     21.148572     21.148572     42.297145
     -3.698699     20.385730     20.385730     40.771460
     -3.688689     20.187240     20.187240     40.374481
     -3.678679     21.220971     21.220971     42.441942
     -3.668669     23.880205     23.880205     47.760410
     -3.658659     28.104581     28.104581     56.209161
     -3.648649     33.344023     33.344023     66.688045
     -3.638639     38.692492     38.692492     77.384984
     -3.628629     43.149524     43.149524     86.299048
     -3.618619     45.909518     45.909518     91.819035
     -3.608609     46.567160     46.567160     93.134320
     -3.598599     45.172332     45.172332     90.344664
     -3.588589     42.141767     42.141767     84.283533
     -3.578579     38.091010     38.091010     76.182020
     -3.568569     33.659756     33.659756     67.319512
     -3.558559     29.375784     29.375784     58.751567
     -3.548549     25.571057     25.571057     51.142114
     -3.538539     22.351621     22.351621     44.703242
     -3.528529     19.625141     19.625141     39.250281
     -3.518519     17.184929     17.184929     34.369858
     -3.508509     14.828113     14.828113     29.656226
     -3.498498     12.463231     12.463231     24.926463
     -3.488488     10.161806     10.161806     20.323611
     -3.478478      8.134975      8.134975     16.269950
     -3.468468      6.652453      6.652453     13.304907
     -3.458458      5.942828      5.942828     11.885657
     -3.448448      6.112780      6.112780     12.225559
     -3.438438      7.108206      7.108206     14.216411
     -3.428428      8.726641      8.726641     17.453283
     -3.418418     10.680756     10.680756     21.361512
     -3.408408     12.699635     12.699635     25.399270
     -3.398398     14.634814     14.634814     29.269628
     -3.388388     16.523257     16.523257     33.046514
     -3.378378     18.568574     18.568574     37.137147
     -3.368368     21.040142     21.040142     42.080284
     -3.358358     24.136714     24.136714     48.273428
     -3.348348     27.881660     27.881660     55.763320
     -3.338338     32.092547     32.092547     64.185095
     -3.328328     36.416581     36.416581     72.833162
     -3.318318     40.388791     40.388791     80.777582
     -3.308308     43.481122     43.481122     86.962243
     -3.298298     45.153013     45.153013     90.306025
     -3.288288     44.939722     44.939722     89.879443
     -3.278278     42.589384     42.589384     85.178767
     -3.268268     38.200784     38.200784     76.401569
     -3.258258     32.277425     32.277425     64.554849
     -3.248248     25.641419     25.641419     51.282837
     -3.238238     19.228120     19.228120     38.456240
     -3.228228     13.849844     13.849844     27.699688
     -3.218218     10.025164     10.025164     20.050329
     -3.208208      7.920921      7.920921     15.841843
     -3.198198      7.392337      7.392337     14.784674
     -3.188188      8.076651      8.076651     16.153302
     -3.178178      9.505258      9.505258     19.010516
     -3.168168     11.221890     11.221890     22.443780
     -3.158158     12.899758     12.899758     25.799516
     -3.148148     14.433241     14.433241     28.866481
     -3.138138     15.961609     15.961609     31.923219
     -3.128128     17.791260     17.791260     35.582520
     -3.118118     20.226169     20.226169     40.452339
     -3.108108     23.371616     23.371616     46.743233
     -3.098098     27.006233     27.006233     54.012465
     -3.088088     30.596470     30.596470     61.192939
     -3.078078     33.460598     33.460598     66.921195
     -3.068068     35.011355     35.011355     70.022711
     -3.058058     34.962443     34.962443     69.924885
     -3.048048     33.402183     33.402183     66.804366
     -3.038038     30.709882     30.709882     61.419765
     -3.028028     27.374771     27.374771     54.749541
     -3.018018     23.823018     23.823018     47.646036
     -3.008008     20.339067     20.339067     40.678134
     -2.997998     17.100168     17.100168     34.200336
     -2.987988     14.274485     14.274485     28.548970
     -2.977978     12.105413     12.105413     24.210826
     -2.967968     10.926245     10.926245     21.852490
     -2.957958     11.095435     11.095435     22.190870
     -2.947948     12.881275     12.881275     25.762550
     -2.937938     16.340618     16.340618     32.681236
     -2.927928     21.234411     21.234411     42.468822
     -2.917918     27.013620     27.013620     54.027241
     -2.907908     32.894910     32.894910     65.789819
     -2.897898     38.021577     38.021577     76.043153
     -2.887888     41.672022     41.672022     83.344044
     -2.877878     43.448179     43.448179     86.896358
     -2.867868     43.369686     43.369686     86.739372
     -2.857858     41.828589     41.828589     83.657178
     -2.847848     39.417001     39.417001     78.834002
     -2.837838     36.699637     36.699637     73.399273
     -2.827828     34.031546     34.031546     68.063091
     -2.817818     31.499490     31.499490     62.998980
     -2.807808     29.001804     29.001804     58.003609
     -2.797798     26.410092     26.410092     52.820184
     -2.787788     23.716831     23.716831     47.433662
     -2.777778     21.087975     21.087975     42.175951
     -2.767768     18.799409     18.799409     37.598817
     -2.757758     17.105119     17.105119     34.210238
     -2.747748     16.122585     16.122585     32.245170
     -2.737738     15.805147     15.805147     31.610294
     -2.727728     16.012042     16.012042     32.024084
     -2.717718     16.621429     16.621429     33.242857
     -2.707708     17.603055     17.603055     35.206110
     -2.697698     18.996257     18.996257     37.992515
     -2.687688     20.808600     20.808600     41.617200
     -2.677678     22.913056     22.913056     45.826112
     -2.667668     25.030561     25.030561     50.061121
     -2.657658     26.828982     26.828982     53.657965
     -2.647648     28.085651     28.085651     56.171301
     -2.637638     28.809227     28.809227     57.618455
     -2.627628     29.237684     29.237684     58.475369
     -2.617618     29.709320     29.709320     59.418640
     -2.607608     30.485048     30.485048     60.970095
     -2.597598     31.624203     31.624203     63.248406
     -2.587588     32.969933     32.969933     65.939866
     -2.577578     34.224967     34.224967     68.449934
     -2.567568     35.053357     35.053357     70.106714
     -2.557558     35.156400     35.156400     70.312800
     -2.547548     34.317909     34.317909     68.635819
     -2.537538     32.446441     32.446441     64.892881
     -2.527528     29.631301     29.631301     59.262602
     -2.517518     26.190383     26.190383     52.380765
     -2.507508     22.662108     22.662108     45.324215
     -2.497497     19.708718     19.708718     39.417435
     -2.487487     17.945400     17.945400     35.890800
     -2.477477     17.755981     17.755981     35.511962
     -2.467467     19.171507     19.171507     38.343015
     -2.457457     21.865774     21.865774     43.731549
     -2.447447     25.274632     25.274632     50.549263
     -2.437437     28.794673     28.794673     57.589346
     -2.427427     31.981643     31.981643     63.963286
     -2.417417     34.664725     34.664725     69.329450
     -2.407407     36.925272     36.925272     73.850543
     -2.397397     38.948285     38.948285     77.896569
     -2.387387     40.817754     40.817754     81.635507
     -2.377377     42.362223     42.362223     84.724446
     -2.367367     43.141918     43.141918     86.283836
     -2.357357     42.602973     42.602973     85.205947
     -2.347347     40.336233     40.336233     80.672466
     -2.337337     36.315836     36.315836     72.631671
     -2.327327     30.996653     30.996653     61.993306
     -2.317317     25.221470     25.221470     50.442941
     -2.307307     19.985451     19.985451     39.970902
     -2.297297     16.167527     16.167527     32.335054
     -2.287287     14.333933     14.333933     28.667866
     -2.277277     14.663519     14.663519     29.327039
     -2.267267     16.981748     16.981748     33.963496
     -2.257257     20.855962     20.855962     41.711925
     -2.247247     25.704732     25.704732     51.409464
     -2.237237     30.892655     30.892655     61.785310
     -2.227227     35.800928     35.800928     71.601855
     -2.217217     39.876034     39.876034     79.752067
     -2.207207     42.665508     42.665508     85.331016
     -2.197197     43.852559     43.852559     87.705117
     -2.187187     43.297765     43.297765     86.595530
     -2.177177     41.082696     41.082696     82.165393
     -2.167167     37.531206     37.531206     75.062412
     -2.157157     33.174002     33.174002     66.348003
     -2.147147     28.637150     28.637150     57.274301
     -2.137137     24.475978     24.475978     48.951957
     -2.127127     21.018716     21.018716     42.037431
     -2.117117     18.295129     18.295129     36.590258
     -2.107107     16.088298     16.088298     32.176597
     -2.097097     14.082257     14.082257     28.164515
     -2.087087     12.027537     12.027537     24.055074
     -2.077077      9.844215      9.844215     19.688430
     -2.067067      7.626457      7.626457     15.252915
     -2.057057      5.570526      5.570526     11.141052
     -2.047047      3.882210      3.882210      7.764420
     -2.037037      2.713980      2.713980      5.427961
     -2.027027      2.149416      2.149416      4.298832
     -2.017017      2.218705      2.218705      4.437409
     -2.007007      2.914476      2.914476      5.828951
     -1.996997      4.186485      4.186485      8.372970
     -1.986987      5.917380      5.917380     11.834760
     -1.976977      7.904104      7.904104     15.808208
     -1.966967      9.875479      9.875479     19.750958
     -1.956957     11.559296     11.559296     23.118592
     -1.946947     12.779046     12.779046     25.558091
     -1.936937     13.531851     13.531851     27.063702
     -1.926927     13.997663     13.997663     27.995326
     -1.916917     14.462150     14.462150     28.924300
     -1.906907     15.184487     15.184487     30.368974
     -1.896897     16.274560     16.274560     32.549120
     -1.886887     17.639583     17.639583     35.279167
     -1.876877     19.021790     19.021790     38.043580
     -1.866867     20.103178     20.103178     40.206356
     -1.856857     20.627301     20.627301     41.254603
     -1.846847     20.489918     20.489918     40.979836
     -1.836837     19.769314     19.769314     39.538628
     -1.826827     18.689045     18.689045     37.378089
     -1.816817     17.525921     17.525921     35.051842
     -1.806807     16.495667     16.495667     32.991335
     -1.796797     15.663348     15.663348     31.326696
     -1.786787     14.922514     14.922514     29.845029
     -1.776777     14.057800     14.057800     28.115600
     -1.766767     12.861624     12.861624     25.723248
     -1.756757     11.244565     11.244565     22.489130
     -1.746747      9.283731      9.283731     18.567463
     -1.736737      7.191836      7.191836     14.383672
     -1.726727      5.234868      5.234868     10.469735
     -1.716717      3.648525      3.648525      7.297049
     -1.706707      2.592191      2.592191      5.184381
     -1.696697      2.147440      2.147440      4.294879
     -1.686687      2.339362      2.339362      4.678725
     -1.676677      3.150287      3.150287      6.300574
     -1.666667      4.508656      4.508656      9.017313
     -1.656657      6.260529      6.260529     12.521058
     -1.646647      8.151738      8.151738     16.303477
     -1.636637      9.851700      9.851700     19.703399
     -1.626627     11.030850     11.030850     22.061700
