# EIG2DOS: Utility for SIESTA to obtain the electronic density of states
#  E. Artacho, Apr 1999, A. Garcia, Apr 2012
#  Nick R. Papior, Feb 2017
# ------------------------------------------
# Eigenvalues calculated from a non-polarized calculation
# Eigenvalues read from siesta.EIG
# Kpoint weights read from siesta.KP
# Using smearing parameter:   0.0500
# Using 1000 points in the energy range
# Selected bands: 1 to: 2981
# Emin, Emax in file for selected band(s):    -27.0465466    218.3299310
# Nbands, Nspin, Nk   =   2981     1     1
# E_F                 =    -4.2754 eV --> (shifted to ZERO)
# Broadening          =     0.0500 eV
#
#        E            N(up)  (=)   N(down)         Ntot
     -5.000000     40.565431     40.565431     81.130861
     -4.989990     42.462897     42.462897     84.925795
     -4.979980     44.012305     44.012305     88.024611
     -4.969970     44.882051     44.882051     89.764103
     -4.959960     44.753647     44.753647     89.507294
     -4.949950     43.464204     43.464204     86.928407
     -4.939940     41.094662     41.094662     82.189324
     -4.929930     37.983104     37.983104     75.966208
     -4.919920     34.679791     34.679791     69.359583
     -4.909910     31.870988     31.870988     63.741977
     -4.899900     30.281344     30.281344     60.562688
     -4.889890     30.542412     30.542412     61.084824
     -4.879880     33.018037     33.018037     66.036075
     -4.869870     37.617396     37.617396     75.234793
     -4.859860     43.679146     43.679146     87.358292
     -4.849850     50.026380     50.026380    100.052759
     -4.839840     55.236900     55.236900    110.473800
     -4.829830     58.062370     58.062370    116.124740
     -4.819820     57.829921     57.829921    115.659842
     -4.809810     54.644283     54.644283    109.288566
     -4.799800     49.299565     49.299565     98.599130
     -4.789790     42.955411     42.955411     85.910823
     -4.779780     36.740869     36.740869     73.481738
     -4.769770     31.457572     31.457572     62.915145
     -4.759760     27.470694     27.470694     54.941388
     -4.749750     24.768171     24.768171     49.536342
     -4.739740     23.103590     23.103590     46.207180
     -4.729730     22.137665     22.137665     44.275330
     -4.719720     21.532710     21.532710     43.065419
     -4.709710     20.996471     20.996471     41.992942
     -4.699700     20.295989     20.295989     40.591978
     -4.689690     19.267857     19.267857     38.535714
     -4.679680     17.843650     17.843650     35.687301
     -4.669670     16.092341     16.092341     32.184682
     -4.659660     14.261806     14.261806     28.523612
     -4.649650     12.789660     12.789660     25.579321
     -4.639640     12.257009     12.257009     24.514018
     -4.629630     13.275187     13.275187     26.550375
     -4.619620     16.317494     16.317494     32.634987
     -4.609610     21.530994     21.530994     43.061988
     -4.599600     28.586414     28.586414     57.172828
     -4.589590     36.638502     36.638502     73.277004
     -4.579580     44.455883     44.455883     88.911765
     -4.569570     50.723858     50.723858    101.447717
     -4.559560     54.439120     54.439120    108.878240
     -4.549550     55.247427     55.247427    110.494855
     -4.539540     53.574042     53.574042    107.148085
     -4.529530     50.476765     50.476765    100.953530
     -4.519520     47.275146     47.275146     94.550291
     -4.509510     45.109005     45.109005     90.218010
     -4.499499     44.601449     44.601449     89.202898
     -4.489489     45.739490     45.739490     91.478980
     -4.479479     47.979259     47.979259     95.958517
     -4.469469     50.491354     50.491354    100.982708
     -4.459459     52.427775     52.427775    104.855550
     -4.449449     53.120361     53.120361    106.240722
     -4.439439     52.181990     52.181990    104.363979
     -4.429429     49.533583     49.533583     99.067165
     -4.419419     45.394466     45.394466     90.788932
     -4.409409     40.253058     40.253058     80.506116
     -4.399399     34.805416     34.805416     69.610832
     -4.389389     29.840392     29.840392     59.680783
     -4.379379     26.072918     26.072918     52.145835
     -4.369369     23.966355     23.966355     47.932709
     -4.359359     23.611173     23.611173     47.222347
     -4.349349     24.717667     24.717667     49.435333
     -4.339339     26.735220     26.735220     53.470440
     -4.329329     29.053812     29.053812     58.107624
     -4.319319     31.206812     31.206812     62.413625
     -4.309309     32.997342     32.997342     65.994684
     -4.299299     34.508525     34.508525     69.017049
     -4.289289     36.006834     36.006834     72.013669
     -4.279279     37.782418     37.782418     75.564835
     -4.269269     39.982117     39.982117     79.964234
     -4.259259     42.488256     42.488256     84.976512
     -4.249249     44.888588     44.888588     89.777175
     -4.239239     46.566356     46.566356     93.132713
     -4.229229     46.902151     46.902151     93.804301
     -4.219219     45.523257     45.523257     91.046515
     -4.209209     42.491455     42.491455     84.982911
     -4.199199     38.327441     38.327441     76.654882
     -4.189189     33.842733     33.842733     67.685466
     -4.179179     29.851697     29.851697     59.703395
     -4.169169     26.902220     26.902220     53.804439
     -4.159159     25.149689     25.149689     50.299379
     -4.149149     24.416495     24.416495     48.832990
     -4.139139     24.382426     24.382426     48.764852
     -4.129129     24.794669     24.794669     49.589339
     -4.119119     25.590074     25.590074     51.180149
     -4.109109     26.873712     26.873712     53.747425
     -4.099099     28.769265     28.769265     57.538530
     -4.089089     31.222086     31.222086     62.444172
     -4.079079     33.869367     33.869367     67.738735
     -4.069069     36.071184     36.071184     72.142368
     -4.059059     37.118138     37.118138     74.236275
     -4.049049     36.529436     36.529436     73.058872
     -4.039039     34.290866     34.290866     68.581732
     -4.029029     30.903690     30.903690     61.807381
     -4.019019     27.216843     27.216843     54.433685
     -4.009009     24.132784     24.132784     48.265568
     -3.998999     22.336123     22.336123     44.672247
     -3.988989     22.160539     22.160539     44.321078
     -3.978979     23.614888     23.614888     47.229775
     -3.968969     26.501899     26.501899     53.003797
     -3.958959     30.536447     30.536447     61.072895
     -3.948949     35.409246     35.409246     70.818493
     -3.938939     40.803961     40.803961     81.607922
     -3.928929     46.409817     46.409817     92.819634
     -3.918919     51.956255     51.956255    103.912510
     -3.908909     57.252864     57.252864    114.505727
     -3.898899     62.189892     62.189892    124.379784
     -3.888889     66.670273     66.670273    133.340545
     -3.878879     70.494624     70.494624    140.989247
     -3.868869     73.269065     73.269065    146.538131
     -3.858859     74.414352     74.414352    148.828703
     -3.848849     73.311408     73.311408    146.622816
     -3.838839     69.543780     69.543780    139.087560
     -3.828829     63.133951     63.133951    126.267902
     -3.818819     54.657184     54.657184    109.314369
     -3.808809     45.165114     45.165114     90.330229
     -3.798799     35.936797     35.936797     71.873595
     -3.788789     28.150340     28.150340     56.300679
     -3.778779     22.594930     22.594930     45.189859
     -3.768769     19.514343     19.514343     39.028686
     -3.758759     18.613447     18.613447     37.226893
     -3.748749     19.203012     19.203012     38.406023
     -3.738739     20.426176     20.426176     40.852352
     -3.728729     21.502741     21.502741     43.005482
     -3.718719     21.934628     21.934628     43.869257
     -3.708709     21.628075     21.628075     43.256150
     -3.698699     20.903354     20.903354     41.806709
     -3.688689     20.383742     20.383742     40.767485
     -3.678679     20.784246     20.784246     41.568491
     -3.668669     22.653976     22.653976     45.307952
     -3.658659     26.152838     26.152838     52.305676
     -3.648649     30.946506     30.946506     61.893013
     -3.638639     36.270556     36.270556     72.541112
     -3.628629     41.149414     41.149414     82.298828
     -3.618619     44.686843     44.686843     89.373686
     -3.608609     46.311874     46.311874     92.623747
     -3.598599     45.890791     45.890791     91.781582
     -3.588589     43.686553     43.686553     87.373106
     -3.578579     40.215759     40.215759     80.431517
     -3.568569     36.079018     36.079018     72.158036
     -3.558559     31.819695     31.819695     63.639391
     -3.548549     27.829905     27.829905     55.659809
     -3.538539     24.303784     24.303784     48.607568
     -3.528529     21.240454     21.240454     42.480908
     -3.518519     18.501236     18.501236     37.002472
     -3.508509     15.910361     15.910361     31.820722
     -3.498498     13.363141     13.363141     26.726283
     -3.488488     10.894719     10.894719     21.789439
     -3.478478      8.679924      8.679924     17.359849
     -3.468468      6.969488      6.969488     13.938975
     -3.458458      5.995223      5.995223     11.990446
     -3.448448      5.881944      5.881944     11.763887
     -3.438438      6.592353      6.592353     13.184705
     -3.428428      7.918045      7.918045     15.836090
     -3.418418      9.522168      9.522168     19.044335
     -3.408408     11.031031     11.031031     22.062062
     -3.398398     12.155241     12.155241     24.310482
     -3.388388     12.800155     12.800155     25.600310
     -3.378378     13.117524     13.117524     26.235047
     -3.368368     13.468697     13.468697     26.937394
     -3.358358     14.308998     14.308998     28.617995
     -3.348348     16.038552     16.038552     32.077104
     -3.338338     18.873161     18.873161     37.746323
     -3.328328     22.767308     22.767308     45.534615
     -3.318318     27.392106     27.392106     54.784212
     -3.308308     32.159994     32.159994     64.319987
     -3.298298     36.299503     36.299503     72.599006
     -3.288288     38.994020     38.994020     77.988041
     -3.278278     39.580023     39.580023     79.160045
     -3.268268     37.753676     37.753676     75.507353
     -3.258258     33.697098     33.697098     67.394196
     -3.248248     28.049553     28.049553     56.099105
     -3.238238     21.719230     21.719230     43.438461
     -3.228228     15.614166     15.614166     31.228331
     -3.218218     10.408994     10.408994     20.817989
     -3.208208      6.434279      6.434279     12.868559
     -3.198198      3.703917      3.703917      7.407833
     -3.188188      2.033429      2.033429      4.066858
     -3.178178      1.180397      1.180397      2.360795
     -3.168168      0.955563      0.955563      1.911126
     -3.158158      1.284412      1.284412      2.568825
     -3.148148      2.221099      2.221099      4.442199
     -3.138138      3.922417      3.922417      7.844834
     -3.128128      6.587020      6.587020     13.174041
     -3.118118     10.366349     10.366349     20.732699
     -3.108108     15.264426     15.264426     30.528851
     -3.098098     21.058622     21.058622     42.117243
     -3.088088     27.279438     27.279438     54.558876
     -3.078078     33.273000     33.273000     66.546001
     -3.068068     38.336470     38.336470     76.672939
     -3.058058     41.880579     41.880579     83.761157
     -3.048048     43.558198     43.558198     87.116396
     -3.038038     43.315592     43.315592     86.631183
     -3.028028     41.363978     41.363978     82.727957
     -3.018018     38.105956     38.105956     76.211911
     -3.008008     34.059957     34.059957     68.119914
     -2.997998     29.804160     29.804160     59.608320
     -2.987988     25.930844     25.930844     51.861688
     -2.977978     22.989879     22.989879     45.979757
     -2.967968     21.414566     21.414566     42.829132
     -2.957958     21.448534     21.448534     42.897067
     -2.947948     23.103568     23.103568     46.207136
     -2.937938     26.164369     26.164369     52.328738
     -2.927928     30.230544     30.230544     60.461089
     -2.917918     34.772965     34.772965     69.545930
     -2.907908     39.192090     39.192090     78.384180
     -2.897898     42.886658     42.886658     85.773317
     -2.887888     45.346856     45.346856     90.693711
     -2.877878     46.264824     46.264824     92.529648
     -2.867868     45.622492     45.622492     91.244984
     -2.857858     43.703037     43.703037     87.406073
     -2.847848     40.997437     40.997437     81.994873
     -2.837838     38.031368     38.031368     76.062736
     -2.827828     35.186362     35.186362     70.372724
     -2.817818     32.599235     32.599235     65.198469
     -2.807808     30.185765     30.185765     60.371530
     -2.797798     27.769090     27.769090     55.538180
     -2.787788     25.237992     25.237992     50.475985
     -2.777778     22.647058     22.647058     45.294115
     -2.767768     20.207045     20.207045     40.414090
     -2.757758     18.178839     18.178839     36.357677
     -2.747748     16.740361     16.740361     33.480722
     -2.737738     15.909820     15.909820     31.819640
     -2.727728     15.571560     15.571560     31.143119
     -2.717718     15.584275     15.584275     31.168549
     -2.707708     15.896622     15.896622     31.793243
     -2.697698     16.588436     16.588436     33.176871
     -2.687688     17.803792     17.803792     35.607583
     -2.677678     19.615874     19.615874     39.231748
     -2.667668     21.914452     21.914452     43.828903
     -2.657658     24.398280     24.398280     48.796560
     -2.647648     26.688961     26.688961     53.377923
     -2.637638     28.501826     28.501826     57.003651
     -2.627628     29.769041     29.769041     59.538082
     -2.617618     30.640355     30.640355     61.280711
     -2.607608     31.367423     31.367423     62.734847
     -2.597598     32.150607     32.150607     64.301215
     -2.587588     33.040245     33.040245     66.080489
     -2.577578     33.932908     33.932908     67.865816
     -2.567568     34.633418     34.633418     69.266835
     -2.557558     34.922282     34.922282     69.844563
     -2.547548     34.594306     34.594306     69.188612
     -2.537538     33.483391     33.483391     66.966781
     -2.527528     31.509224     31.509224     63.018448
     -2.517518     28.753301     28.753301     57.506602
     -2.507508     25.523039     25.523039     51.046079
     -2.497497     22.342177     22.342177     44.684354
     -2.487487     19.836469     19.836469     39.672938
     -2.477477     18.545593     18.545593     37.091185
     -2.467467     18.741453     18.741453     37.482906
     -2.457457     20.338122     20.338122     40.676244
     -2.447447     22.938080     22.938080     45.876160
     -2.437437     25.996547     25.996547     51.993094
     -2.427427     29.031022     29.031022     58.062043
     -2.417417     31.781258     31.781258     63.562517
     -2.407407     34.246286     34.246286     68.492573
     -2.397397     36.581980     36.581980     73.163960
     -2.387387     38.910403     38.910403     77.820805
     -2.377377     41.138719     41.138719     82.277437
     -2.367367     42.886873     42.886873     85.773746
     -2.357357     43.575456     43.575456     87.150912
     -2.347347     42.647849     42.647849     85.295697
     -2.337337     39.830481     39.830481     79.660962
     -2.327327     35.309628     35.309628     70.619256
     -2.317317     29.739715     29.739715     59.479430
     -2.307307     24.078707     24.078707     48.157414
     -2.297297     19.325030     19.325030     38.650060
     -2.287287     16.264096     16.264096     32.528193
     -2.277277     15.309211     15.309211     30.618422
     -2.267267     16.466065     16.466065     32.932131
     -2.257257     19.399345     19.399345     38.798690
     -2.247247     23.555702     23.555702     47.111403
     -2.237237     28.297242     28.297242     56.594485
     -2.227227     33.010936     33.010936     66.021871
     -2.217217     37.174157     37.174157     74.348315
     -2.207207     40.374864     40.374864     80.749728
     -2.197197     42.305206     42.305206     84.610412
     -2.187187     42.760188     42.760188     85.520377
     -2.177177     41.665590     41.665590     83.331180
     -2.167167     39.129692     39.129692     78.259384
     -2.157157     35.478820     35.478820     70.957641
     -2.147147     31.225902     31.225902     62.451805
     -2.137137     26.951167     26.951167     53.902334
     -2.127127     23.131051     23.131051     46.262102
     -2.117117     19.995605     19.995605     39.991210
     -2.107107     17.490106     17.490106     34.980211
     -2.097097     15.361070     15.361070     30.722140
     -2.087087     13.316791     13.316791     26.633582
     -2.077077     11.175035     11.175035     22.350071
     -2.067067      8.928045      8.928045     17.856089
     -2.057057      6.710362      6.710362     13.420723
     -2.047047      4.708274      4.708274      9.416549
     -2.037037      3.069480      3.069480      6.138960
     -2.027027      1.854540      1.854540      3.709080
     -2.017017      1.038137      1.038137      2.076274
     -2.007007      0.542230      0.542230      1.084460
     -1.996997      0.276340      0.276340      0.552679
     -1.986987      0.168441      0.168441      0.336882
     -1.976977      0.182276      0.182276      0.364551
     -1.966967      0.324573      0.324573      0.649145
     -1.956957      0.646168      0.646168      1.292337
     -1.946947      1.236863      1.236863      2.473726
     -1.936937      2.209649      2.209649      4.419299
     -1.926927      3.670044      3.670044      7.340088
     -1.916917      5.672538      5.672538     11.345077
     -1.906907      8.176281      8.176281     16.352563
     -1.896897     11.019502     11.019502     22.039004
     -1.886887     13.929885     13.929885     27.859770
     -1.876877     16.574940     16.574940     33.149880
     -1.866867     18.639100     18.639100     37.278200
     -1.856857     19.903078     19.903078     39.806156
     -1.846847     20.300734     20.300734     40.601469
     -1.836837     19.935980     19.935980     39.871961
     -1.826827     19.051429     19.051429     38.102858
     -1.816817     17.951491     17.951491     35.902983
     -1.806807     16.898855     16.898855     33.797710
     -1.796797     16.021854     16.021854     32.043709
     -1.786787     15.277273     15.277273     30.554546
     -1.776777     14.494684     14.494684     28.989368
     -1.766767     13.487656     13.487656     26.975311
     -1.756757     12.177918     12.177918     24.355836
     -1.746747     10.668453     10.668453     21.336905
     -1.736737      9.228436      9.228436     18.456871
     -1.726727      8.199100      8.199100     16.398200
     -1.716717      7.866215      7.866215     15.732430
     -1.706707      8.354667      8.354667     16.709334
     -1.696697      9.585175      9.585175     19.170350
     -1.686687     11.304870     11.304870     22.609739
     -1.676677     13.173968     13.173968     26.347937
     -1.666667     14.868941     14.868941     29.737883
     -1.656657     16.157194     16.157194     32.314387
     -1.646647     16.915770     16.915770     33.831541
     -1.636637     17.101122     17.101122     34.202244
     -1.626627     16.707546     16.707546     33.415091
