# EIG2DOS: Utility for SIESTA to obtain the electronic density of states
#  E. Artacho, Apr 1999, A. Garcia, Apr 2012
#  Nick R. Papior, Feb 2017
# ------------------------------------------
# Eigenvalues calculated from a non-polarized calculation
# Eigenvalues read from siesta.EIG
# Kpoint weights read from siesta.KP
# Using smearing parameter:   0.0500
# Using 1000 points in the energy range
# Selected bands: 1 to: 2981
# Emin, Emax in file for selected band(s):    -27.1754342    218.3559230
# Nbands, Nspin, Nk   =   2981     1     1
# E_F                 =    -4.2469 eV --> (shifted to ZERO)
# Broadening          =     0.0500 eV
#
#        E            N(up)  (=)   N(down)         Ntot
     -5.000000     33.800627     33.800627     67.601253
     -4.989990     37.733340     37.733340     75.466680
     -4.979980     41.095628     41.095628     82.191256
     -4.969970     43.382670     43.382670     86.765340
     -4.959960     44.216252     44.216252     88.432503
     -4.949950     43.466802     43.466802     86.933603
     -4.939940     41.308709     41.308709     82.617418
     -4.929930     38.198263     38.198263     76.396526
     -4.919920     34.797170     34.797170     69.594340
     -4.909910     31.873424     31.873424     63.746847
     -4.899900     30.192848     30.192848     60.385696
     -4.889890     30.390274     30.390274     60.780548
     -4.879880     32.809444     32.809444     65.618888
     -4.869870     37.337327     37.337327     74.674654
     -4.859860     43.307951     43.307951     86.615902
     -4.849850     49.566079     49.566079     99.132158
     -4.839840     54.729706     54.729706    109.459412
     -4.829830     57.588143     57.588143    115.176285
     -4.819820     57.481234     57.481234    114.962467
     -4.809810     54.491576     54.491576    108.983152
     -4.799800     49.365043     49.365043     98.730086
     -4.789790     43.208448     43.208448     86.416896
     -4.779780     37.114326     37.114326     74.228651
     -4.769770     31.873334     31.873334     63.746668
     -4.759760     27.860853     27.860853     55.721706
     -4.749750     25.084913     25.084913     50.169826
     -4.739740     23.319469     23.319469     46.638937
     -4.729730     22.242260     22.242260     44.484521
     -4.719720     21.530224     21.530224     43.060449
     -4.709710     20.904929     20.904929     41.809857
     -4.699700     20.146502     20.146502     40.293003
     -4.689690     19.103330     19.103330     38.206660
     -4.679680     17.718302     17.718302     35.436605
     -4.669670     16.073605     16.073605     32.147209
     -4.659660     14.433549     14.433549     28.867099
     -4.649650     13.252176     13.252176     26.504352
     -4.639640     13.118590     13.118590     26.237179
     -4.629630     14.634990     14.634990     29.269979
     -4.619620     18.248530     18.248530     36.497060
     -4.609610     24.078940     24.078940     48.157880
     -4.599600     31.795558     31.795558     63.591115
     -4.589590     40.597070     40.597070     81.194141
     -4.579580     49.328755     49.328755     98.657509
     -4.569570     56.731838     56.731838    113.463675
     -4.559560     61.766575     61.766575    123.533149
     -4.549550     63.907050     63.907050    127.814100
     -4.539540     63.296848     63.296848    126.593697
     -4.529530     60.693482     60.693482    121.386964
     -4.519520     57.206780     57.206780    114.413560
     -4.509510     53.921872     53.921872    107.843745
     -4.499499     51.550554     51.550554    103.101109
     -4.489489     50.245322     50.245322    100.490645
     -4.479479     49.637953     49.637953     99.275906
     -4.469469     49.064235     49.064235     98.128471
     -4.459459     47.860678     47.860678     95.721357
     -4.449449     45.605433     45.605433     91.210865
     -4.439439     42.224447     42.224447     84.448895
     -4.429429     37.960480     37.960480     75.920959
     -4.419419     33.261526     33.261526     66.523051
     -4.409409     28.658325     28.658325     57.316651
     -4.399399     24.671337     24.671337     49.342674
     -4.389389     21.745601     21.745601     43.491202
     -4.379379     20.190901     20.190901     40.381803
     -4.369369     20.117807     20.117807     40.235614
     -4.359359     21.391451     21.391451     42.782901
     -4.349349     23.642640     23.642640     47.285280
     -4.339339     26.359671     26.359671     52.719342
     -4.329329     29.041717     29.041717     58.083433
     -4.319319     31.355445     31.355445     62.710890
     -4.309309     33.228005     33.228005     66.456010
     -4.299299     34.836508     34.836508     69.673017
     -4.289289     36.498069     36.498069     72.996139
     -4.279279     38.501262     38.501262     77.002524
     -4.269269     40.937870     40.937870     81.875741
     -4.259259     43.595647     43.595647     87.191295
     -4.249249     45.961984     45.961984     91.923969
     -4.239239     47.360064     47.360064     94.720127
     -4.229229     47.188568     47.188568     94.377136
     -4.219219     45.177414     45.177414     90.354828
     -4.209209     41.541475     41.541475     83.082950
     -4.199199     36.945268     36.945268     73.890535
     -4.189189     32.280660     32.280660     64.561320
     -4.179179     28.357792     28.357792     56.715584
     -4.169169     25.654369     25.654369     51.308739
     -4.159159     24.231876     24.231876     48.463752
     -4.149149     23.835253     23.835253     47.670505
     -4.139139     24.102859     24.102859     48.205718
     -4.129129     24.772175     24.772175     49.544349
     -4.119119     25.783464     25.783464     51.566928
     -4.109109     27.239351     27.239351     54.478702
     -4.099099     29.246617     29.246617     58.493234
     -4.089089     31.724704     31.724704     63.449408
     -4.079079     34.291397     34.291397     68.582794
     -4.069069     36.310139     36.310139     72.620279
     -4.059059     37.104742     37.104742     74.209485
     -4.049049     36.250317     36.250317     72.500634
     -4.039039     33.793174     33.793174     67.586349
     -4.029029     30.280336     30.280336     60.560673
     -4.019019     26.580657     26.580657     53.161314
     -4.009009     23.591351     23.591351     47.182703
     -3.998999     21.975095     21.975095     43.950191
     -3.988989     22.036114     22.036114     44.072228
     -3.978979     23.751660     23.751660     47.503319
     -3.968969     26.892942     26.892942     53.785883
     -3.958959     31.146149     31.146149     62.292298
     -3.948949     36.181600     36.181600     72.363200
     -3.938939     41.677042     41.677042     83.354085
     -3.928929     47.332070     47.332070     94.664140
     -3.918919     52.896137     52.896137    105.792273
     -3.908909     58.194487     58.194487    116.388974
     -3.898899     63.114570     63.114570    126.229140
     -3.888889     67.533593     67.533593    135.067187
     -3.878879     71.214270     71.214270    142.428541
     -3.868869     73.734948     73.734948    147.469897
     -3.858859     74.520645     74.520645    149.041290
     -3.848849     72.996925     72.996925    145.993850
     -3.838839     68.821394     68.821394    137.642788
     -3.828829     62.095146     62.095146    124.190292
     -3.818819     53.450320     53.450320    106.900639
     -3.808809     43.957582     43.957582     87.915164
     -3.798799     34.875911     34.875911     69.751822
     -3.788789     27.334962     27.334962     54.669924
     -3.778779     22.063258     22.063258     44.126517
     -3.768769     19.247149     19.247149     38.494298
     -3.758759     18.548575     18.548575     37.097150
     -3.748749     19.256016     19.256016     38.512032
     -3.738739     20.512361     20.512361     41.024722
     -3.728729     21.556650     21.556650     43.113301
     -3.718719     21.923685     21.923685     43.847370
     -3.708709     21.557869     21.557869     43.115738
     -3.698699     20.813297     20.813297     41.626593
     -3.688689     20.333702     20.333702     40.667404
     -3.678679     20.835180     20.835180     41.670359
     -3.668669     22.847789     22.847789     45.695578
     -3.658659     26.497668     26.497668     52.995336
     -3.648649     31.412353     31.412353     62.824707
     -3.638639     36.796504     36.796504     73.593008
     -3.628629     41.659082     41.659082     83.318163
     -3.618619     45.105653     45.105653     90.211306
     -3.608609     46.580220     46.580220     93.160439
     -3.598599     45.970828     45.970828     91.941656
     -3.588589     43.564282     43.564282     87.128564
     -3.578579     39.901294     39.901294     79.802587
     -3.568569     35.605903     35.605903     71.211805
     -3.558559     31.241459     31.241459     62.482918
     -3.548549     27.211727     27.211727     54.423455
     -3.538539     23.709880     23.709880     47.419761
     -3.528529     20.721169     20.721169     41.442337
     -3.518519     18.084900     18.084900     36.169799
     -3.508509     15.602701     15.602701     31.205402
     -3.498498     13.153264     13.153264     26.306528
     -3.488488     10.763943     10.763943     21.527886
     -3.478478      8.609470      8.609470     17.218941
     -3.468468      6.944677      6.944677     13.889354
     -3.458458      6.005933      6.005933     12.011867
     -3.448448      5.920566      5.920566     11.841133
     -3.438438      6.651079      6.651079     13.302159
     -3.428428      7.987242      7.987242     15.974485
     -3.418418      9.591002      9.591002     19.182004
     -3.408408     11.090468     11.090468     22.180937
     -3.398398     12.202260     12.202260     24.404520
     -3.388388     12.841141     12.841141     25.682282
     -3.378378     13.168954     13.168954     26.337908
     -3.368368     13.554437     13.554437     27.108875
     -3.358358     14.455018     14.455018     28.910036
     -3.348348     16.266568     16.266568     32.533136
     -3.338338     19.194266     19.194266     38.388532
     -3.328328     23.176059     23.176059     46.352118
     -3.318318     27.862173     27.862173     55.724347
     -3.308308     32.644731     32.644731     65.289462
     -3.298298     36.742941     36.742941     73.485882
     -3.288288     39.356799     39.356799     78.713599
     -3.278278     39.879225     39.879225     79.758450
     -3.268268     38.107044     38.107044     76.214089
     -3.258258     34.354947     34.354947     68.709894
     -3.248248     29.395490     29.395490     58.790980
     -3.238238     24.225153     24.225153     48.450306
     -3.228228     19.746108     19.746108     39.492216
     -3.218218     16.497687     16.497687     32.995375
     -3.208208     14.544667     14.544667     29.089334
     -3.198198     13.552532     13.552532     27.105065
     -3.188188     12.998938     12.998938     25.997876
     -3.178178     12.423997     12.423997     24.847995
     -3.168168     11.623026     11.623026     23.246053
     -3.158158     10.723433     10.723433     21.446866
     -3.148148     10.138725     10.138725     20.277450
     -3.138138     10.432284     10.432284     20.864567
     -3.128128     12.138299     12.138299     24.276599
     -3.118118     15.582021     15.582021     31.164043
     -3.108108     20.733501     20.733501     41.467001
     -3.098098     27.130506     27.130506     54.261012
     -3.088088     33.910244     33.910244     67.820489
     -3.078078     39.974378     39.974378     79.948757
     -3.068068     44.264433     44.264433     88.528865
     -3.058058     46.061523     46.061523     92.123046
     -3.048048     45.188476     45.188476     90.376953
     -3.038038     42.021561     42.021561     84.043122
     -3.028028     37.309192     37.309192     74.618384
     -3.018018     31.893878     31.893878     63.787756
     -3.008008     26.476162     26.476162     52.952324
     -2.997998     21.518203     21.518203     43.036406
     -2.987988     17.292271     17.292271     34.584542
     -2.977978     14.000265     14.000265     28.000530
     -2.967968     11.869982     11.869982     23.739964
     -2.957958     11.169944     11.169944     22.339888
     -2.947948     12.140327     12.140327     24.280653
     -2.937938     14.878051     14.878051     29.756101
     -2.927928     19.228466     19.228466     38.456932
     -2.917918     24.732006     24.732006     49.464013
     -2.907908     30.659473     30.659473     61.318945
     -2.897898     36.144262     36.144262     72.288524
     -2.887888     40.383851     40.383851     80.767702
     -2.877878     42.846973     42.846973     85.693945
     -2.867868     43.407229     43.407229     86.814458
     -2.857858     42.344137     42.344137     84.688274
     -2.847848     40.205766     40.205766     80.411532
     -2.837838     37.589366     37.589366     75.178732
     -2.827828     34.935137     34.935137     69.870274
     -2.817818     32.421237     32.421237     64.842474
     -2.807808     29.996873     29.996873     59.993746
     -2.797798     27.520794     27.520794     55.041589
     -2.787788     24.921496     24.921496     49.842992
     -2.777778     22.290303     22.290303     44.580607
     -2.767768     19.861705     19.861705     39.723410
     -2.757758     17.902312     17.902312     35.804624
     -2.747748     16.582247     16.582247     33.164494
     -2.737738     15.909930     15.909930     31.819861
     -2.727728     15.768250     15.768250     31.536500
     -2.717718     16.022862     16.022862     32.045724
     -2.707708     16.624458     16.624458     33.248915
     -2.697698     17.629872     17.629872     35.259743
     -2.687688     19.122754     19.122754     38.245507
     -2.677678     21.087650     21.087650     42.175299
     -2.667668     23.330846     23.330846     46.661692
     -2.657658     25.516193     25.516193     51.032387
     -2.647648     27.307525     27.307525     54.615049
     -2.637638     28.533139     28.533139     57.066277
     -2.627628     29.267297     29.267297     58.534594
     -2.617618     29.775868     29.775868     59.551736
     -2.607608     30.361713     30.361713     60.723426
     -2.597598     31.206099     31.206099     62.412199
     -2.587588     32.293163     32.293163     64.586326
     -2.577578     33.438030     33.438030     66.876060
     -2.567568     34.371716     34.371716     68.743433
     -2.557558     34.818722     34.818722     69.637443
     -2.547548     34.540367     34.540367     69.080733
     -2.537538     33.365564     33.365564     66.731129
     -2.527528     31.242666     31.242666     62.485331
     -2.517518     28.311791     28.311791     56.623582
     -2.507508     24.951909     24.951909     49.903817
     -2.497497     21.745948     21.745948     43.491897
     -2.487487     19.344910     19.344910     38.689821
     -2.477477     18.272171     18.272171     36.544342
     -2.467467     18.750486     18.750486     37.500971
     -2.457457     20.631177     20.631177     41.262354
     -2.447447     23.461110     23.461110     46.922219
     -2.437437     26.661527     26.661527     53.323055
     -2.427427     29.741906     29.741906     59.483812
     -2.417417     32.454201     32.454201     64.908403
     -2.407407     34.817987     34.817987     69.635974
     -2.397397     37.006329     37.006329     74.012659
     -2.387387     39.149718     39.149718     78.299435
     -2.377377     41.158401     41.158401     82.316803
     -2.367367     42.659531     42.659531     85.319063
     -2.357357     43.093775     43.093775     86.187549
     -2.347347     41.938812     41.938812     83.877623
     -2.337337     38.961276     38.961276     77.922552
     -2.327327     34.379387     34.379387     68.758775
     -2.317317     28.858986     28.858986     57.717973
     -2.307307     23.345235     23.345235     46.690469
     -2.297297     18.805911     18.805911     37.611823
     -2.287287     15.990061     15.990061     31.980123
     -2.277277     15.279930     15.279930     30.559860
     -2.267267     16.660422     16.660422     33.320845
     -2.257257     19.783890     19.783890     39.567780
     -2.247247     24.087491     24.087491     48.174982
     -2.237237     28.921692     28.921692     57.843384
     -2.227227     33.658860     33.658860     67.317720
     -2.217217     37.763325     37.763325     75.526650
     -2.207207     40.819660     40.819660     81.639319
     -2.197197     42.533890     42.533890     85.067779
     -2.187187     42.734515     42.734515     85.469030
     -2.177177     41.394681     41.394681     82.789361
     -2.167167     38.670878     38.670878     77.341755
     -2.157157     34.922869     34.922869     69.845737
     -2.147147     30.670675     30.670675     61.341350
     -2.137137     26.473233     26.473233     52.946466
     -2.127127     22.766231     22.766231     45.532462
     -2.117117     19.735796     19.735796     39.471592
     -2.107107     17.296484     17.296484     34.592969
     -2.097097     15.186512     15.186512     30.373025
     -2.087087     13.126857     13.126857     26.253713
     -2.077077     10.958902     10.958902     21.917804
     -2.067067      8.696862      8.696862     17.393723
     -2.057057      6.486830      6.486830     12.973659
     -2.047047      4.514398      4.514398      9.028796
     -2.037037      2.918331      2.918331      5.836662
     -2.027027      1.748188      1.748188      3.496376
     -2.017017      0.970369      0.970369      1.940738
     -2.007007      0.503123      0.503123      1.006246
     -1.996997      0.256203      0.256203      0.512406
     -1.986987      0.160084      0.160084      0.320169
     -1.976977      0.181814      0.181814      0.363629
     -1.966967      0.331580      0.331580      0.663160
     -1.956957      0.664097      0.664097      1.328194
     -1.946947      1.274683      1.274683      2.549366
     -1.936937      2.285944      2.285944      4.571887
     -1.926927      3.821289      3.821289      7.642579
     -1.916917      5.967339      5.967339     11.934679
     -1.906907      8.735729      8.735729     17.471457
     -1.896897     12.039429     12.039429     24.078857
     -1.886887     15.694019     15.694019     31.388037
     -1.876877     19.442031     19.442031     38.884061
     -1.866867     22.988129     22.988129     45.976259
     -1.856857     26.033822     26.033822     52.067643
     -1.846847     28.311084     28.311084     56.622168
     -1.836837     29.621309     29.621309     59.242618
     -1.826827     29.877871     29.877871     59.755742
     -1.816817     29.133033     29.133033     58.266065
     -1.806807     27.563596     27.563596     55.127192
     -1.796797     25.409072     25.409072     50.818143
     -1.786787     22.890222     22.890222     45.780445
     -1.776777     20.154782     20.154782     40.309565
     -1.766767     17.280743     17.280743     34.561486
     -1.756757     14.326649     14.326649     28.653298
     -1.746747     11.386322     11.386322     22.772643
     -1.736737      8.607561      8.607561     17.215123
     -1.726727      6.165884      6.165884     12.331768
     -1.716717      4.217408      4.217408      8.434816
     -1.706707      2.864710      2.864710      5.729420
     -1.696697      2.152985      2.152985      4.305969
     -1.686687      2.087904      2.087904      4.175808
     -1.676677      2.651019      2.651019      5.302038
     -1.666667      3.792613      3.792613      7.585225
     -1.656657      5.401424      5.401424     10.802849
     -1.646647      7.272873      7.272873     14.545745
     -1.636637      9.108098      9.108098     18.216197
     -1.626627     10.566249     10.566249     21.132498
