# EIG2DOS: Utility for SIESTA to obtain the electronic density of states
#  E. Artacho, Apr 1999, A. Garcia, Apr 2012
#  Nick R. Papior, Feb 2017
# ------------------------------------------
# Eigenvalues calculated from a non-polarized calculation
# Eigenvalues read from siesta.EIG
# Kpoint weights read from siesta.KP
# Using smearing parameter:   0.0500
# Using 1000 points in the energy range
# Selected bands: 1 to: 2981
# Emin, Emax in file for selected band(s):    -27.2060626    218.3540220
# Nbands, Nspin, Nk   =   2981     1     1
# E_F                 =    -4.2489 eV --> (shifted to ZERO)
# Broadening          =     0.0500 eV
#
#        E            N(up)  (=)   N(down)         Ntot
     -5.000000     32.606418     32.606418     65.212836
     -4.989990     36.774733     36.774733     73.549466
     -4.979980     40.622036     40.622036     81.244073
     -4.969970     43.518043     43.518043     87.036085
     -4.959960     44.941203     44.941203     89.882406
     -4.949950     44.636353     44.636353     89.272707
     -4.939940     42.701412     42.701412     85.402823
     -4.929930     39.577989     39.577989     79.155977
     -4.919920     35.965301     35.965301     71.930603
     -4.909910     32.697449     32.697449     65.394898
     -4.899900     30.610944     30.610944     61.221887
     -4.889890     30.401660     30.401660     60.803319
     -4.879880     32.462066     32.462066     64.924133
     -4.869870     36.718808     36.718808     73.437616
     -4.859860     42.537914     42.537914     85.075828
     -4.849850     48.783701     48.783701     97.567402
     -4.839840     54.072419     54.072419    108.144838
     -4.829830     57.164261     57.164261    114.328523
     -4.819820     57.346067     57.346067    114.692134
     -4.809810     54.638067     54.638067    109.276135
     -4.799800     49.734237     49.734237     99.468475
     -4.789790     43.715341     43.715341     87.430682
     -4.779780     37.677277     37.677277     75.354554
     -4.769770     32.435001     32.435001     64.870001
     -4.759760     28.394884     28.394884     56.789768
     -4.749750     25.590288     25.590288     51.180577
     -4.739740     23.808406     23.808406     47.616812
     -4.729730     22.727250     22.727250     45.454499
     -4.719720     22.013632     22.013632     44.027263
     -4.709710     21.373282     21.373282     42.746565
     -4.699700     20.570937     20.570937     41.141874
     -4.689690     19.446330     19.446330     38.892660
     -4.679680     17.944682     17.944682     35.889363
     -4.669670     16.162543     16.162543     32.325087
     -4.659660     14.390050     14.390050     28.780099
     -4.649650     13.119466     13.119466     26.238933
     -4.639640     12.993558     12.993558     25.987115
     -4.629630     14.682867     14.682867     29.365735
     -4.619620     18.702208     18.702208     37.404416
     -4.609610     25.201302     25.201302     50.402605
     -4.599600     33.792142     33.792142     67.584283
     -4.589590     43.495576     43.495576     86.991151
     -4.579580     52.878406     52.878406    105.756813
     -4.569570     60.391459     60.391459    120.782919
     -4.559560     64.822122     64.822122    129.644244
     -4.549550     65.692577     65.692577    131.385155
     -4.539540     63.426451     63.426451    126.852902
     -4.529530     59.193473     59.193473    118.386946
     -4.519520     54.485356     54.485356    108.970712
     -4.509510     50.598757     50.598757    101.197514
     -4.499499     48.236510     48.236510     96.473021
     -4.489489     47.371813     47.371813     94.743626
     -4.479479     47.393602     47.393602     94.787204
     -4.469469     47.432979     47.432979     94.865957
     -4.459459     46.714468     46.714468     93.428935
     -4.449449     44.797326     44.797326     89.594653
     -4.439439     41.647036     41.647036     83.294072
     -4.429429     37.561060     37.561060     75.122119
     -4.419419     33.025186     33.025186     66.050373
     -4.409409     28.578437     28.578437     57.156873
     -4.399399     24.725549     24.725549     49.451099
     -4.389389     21.888029     21.888029     43.776058
     -4.379379     20.361356     20.361356     40.722712
     -4.369369     20.260524     20.260524     40.521048
     -4.359359     21.471996     21.471996     42.943993
     -4.349349     23.653934     23.653934     47.307869
     -4.339339     26.314768     26.314768     52.629537
     -4.329329     28.958336     28.958336     57.916672
     -4.319319     31.241389     31.241389     62.482778
     -4.309309     33.075685     33.075685     66.151370
     -4.299299     34.629581     34.629581     69.259162
     -4.289289     36.226562     36.226562     72.453123
     -4.279279     38.176824     38.176824     76.353649
     -4.269269     40.600298     40.600298     81.200597
     -4.259259     43.305687     43.305687     86.611375
     -4.249249     45.781874     45.781874     91.563749
     -4.239239     47.329288     47.329288     94.658576
     -4.229229     47.305224     47.305224     94.610447
     -4.219219     45.394057     45.394057     90.788114
     -4.209209     41.778707     41.778707     83.557414
     -4.199199     37.118797     37.118797     74.237594
     -4.189189     32.331384     32.331384     64.662768
     -4.179179     28.272702     28.272702     56.545403
     -4.169169     25.469908     25.469908     50.939817
     -4.159159     24.019082     24.019082     48.038163
     -4.149149     23.673590     23.673590     47.347180
     -4.139139     24.053464     24.053464     48.106928
     -4.129129     24.860039     24.860039     49.720078
     -4.119119     25.993541     25.993541     51.987083
     -4.109109     27.526243     27.526243     55.052486
     -4.099099     29.553168     29.553168     59.106335
     -4.089089     32.002092     32.002092     64.004184
     -4.079079     34.512734     34.512734     69.025468
     -4.069069     36.472076     36.472076     72.944151
     -4.059059     37.217182     37.217182     74.434365
     -4.049049     36.320824     36.320824     72.641648
     -4.039039     33.816017     33.816017     67.632034
     -4.029029     30.237625     30.237625     60.475251
     -4.019019     26.455495     26.455495     52.910990
     -4.009009     23.384955     23.384955     46.769911
     -3.998999     21.716693     21.716693     43.433386
     -3.988989     21.778351     21.778351     43.556702
     -3.978979     23.552847     23.552847     47.105694
     -3.968969     26.795142     26.795142     53.590283
     -3.958959     31.159971     31.159971     62.319942
     -3.948949     36.283920     36.283920     72.567840
     -3.938939     41.820472     41.820472     83.640944
     -3.928929     47.460116     47.460116     94.920231
     -3.918919     52.957973     52.957973    105.915945
     -3.908909     58.156366     58.156366    116.312731
     -3.898899     62.967409     62.967409    125.934818
     -3.888889     67.296403     67.296403    134.592805
     -3.878879     70.932086     70.932086    141.864172
     -3.868869     73.470237     73.470237    146.940475
     -3.858859     74.339344     74.339344    148.678688
     -3.848849     72.952770     72.952770    145.905539
     -3.838839     68.943009     68.943009    137.886019
     -3.828829     62.379202     62.379202    124.758405
     -3.818819     53.862150     53.862150    107.724300
     -3.808809     44.439065     44.439065     88.878131
     -3.798799     35.359013     35.359013     70.718025
     -3.788789     27.757776     27.757776     55.515552
     -3.778779     22.384074     22.384074     44.768147
     -3.768769     19.452187     19.452187     38.904373
     -3.758759     18.651110     18.651110     37.302221
     -3.748749     19.287736     19.287736     38.575472
     -3.738739     20.510396     20.510396     41.020791
     -3.728729     21.550638     21.550638     43.101277
     -3.718719     21.926586     21.926586     43.853171
     -3.708709     21.562741     21.562741     43.125481
     -3.698699     20.796711     20.796711     41.593421
     -3.688689     20.264944     20.264944     40.529889
     -3.678679     20.688809     20.688809     41.377618
     -3.668669     22.615574     22.615574     45.231149
     -3.658659     26.195246     26.195246     52.390492
     -3.648649     31.077197     31.077197     62.154395
     -3.638639     36.477331     36.477331     72.954661
     -3.628629     41.401173     41.401173     82.802346
     -3.618619     44.938989     44.938989     89.877977
     -3.608609     46.515676     46.515676     93.031352
     -3.598599     46.004659     46.004659     92.009318
     -3.588589     43.686092     43.686092     87.372184
     -3.578579     40.099454     40.099454     80.198908
     -3.568569     35.867622     35.867622     71.735244
     -3.558559     31.549574     31.549574     63.099149
     -3.548549     27.542788     27.542788     55.085577
     -3.538539     24.036519     24.036519     48.073038
     -3.528529     21.017922     21.017922     42.035844
     -3.518519     18.333912     18.333912     36.667824
     -3.508509     15.795990     15.795990     31.591981
     -3.498498     13.290770     13.290770     26.581539
     -3.488488     10.849129     10.849129     21.698258
     -3.478478      8.645259      8.645259     17.290519
     -3.468468      6.931830      6.931830     13.863660
     -3.458458      5.944557      5.944557     11.889113
     -3.448448      5.813980      5.813980     11.627961
     -3.438438      6.510163      6.510163     13.020327
     -3.428428      7.832747      7.832747     15.665493
     -3.418418      9.451648      9.451648     18.903296
     -3.408408     10.996238     10.996238     21.992476
     -3.398398     12.174699     12.174699     24.349397
     -3.388388     12.884381     12.884381     25.768762
     -3.378378     13.265219     13.265219     26.530439
     -3.368368     13.665894     13.665894     27.331788
     -3.358358     14.531389     14.531389     29.062778
     -3.348348     16.256601     16.256601     32.513202
     -3.338338     19.059252     19.059252     38.118504
     -3.328328     22.903889     22.903889     45.807778
     -3.318318     27.479584     27.479584     54.959169
     -3.308308     32.223808     32.223808     64.447617
     -3.298298     36.397731     36.397731     72.795461
     -3.288288     39.228690     39.228690     78.457381
     -3.278278     40.114195     40.114195     80.228390
     -3.268268     38.830172     38.830172     77.660344
     -3.258258     35.645290     35.645290     71.290579
     -3.248248     31.260233     31.260233     62.520465
     -3.238238     26.572432     26.572432     53.144863
     -3.228228     22.364708     22.364708     44.729416
     -3.218218     19.063223     19.063223     38.126445
     -3.208208     16.672837     16.672837     33.345674
     -3.198198     14.901953     14.901953     29.803906
     -3.188188     13.395582     13.395582     26.791163
     -3.178178     11.956882     11.956882     23.913765
     -3.168168     10.664551     10.664551     21.329103
     -3.158158      9.857038      9.857038     19.714075
     -3.148148     10.012316     10.012316     20.024632
     -3.138138     11.577886     11.577886     23.155773
     -3.128128     14.802488     14.802488     29.604976
     -3.118118     19.608675     19.608675     39.217350
     -3.108108     25.538496     25.538496     51.076992
     -3.098098     31.799373     31.799373     63.598745
     -3.088088     37.419003     37.419003     74.838006
     -3.078078     41.480352     41.480352     82.960704
     -3.068068     43.364969     43.364969     86.729938
     -3.058058     42.913100     42.913100     85.826201
     -3.048048     40.433142     40.433142     80.866284
     -3.038038     36.556275     36.556275     73.112550
     -3.028028     32.003542     32.003542     64.007085
     -3.018018     27.371895     27.371895     54.743789
     -3.008008     23.028996     23.028996     46.057992
     -2.997998     19.143310     19.143310     38.286621
     -2.987988     15.804378     15.804378     31.608755
     -2.977978     13.149763     13.149763     26.299525
     -2.967968     11.426650     11.426650     22.853299
     -2.957958     10.961051     10.961051     21.922102
     -2.947948     12.053941     12.053941     24.107881
     -2.937938     14.849198     14.849198     29.698395
     -2.927928     19.222194     19.222194     38.444388
     -2.917918     24.730443     24.730443     49.460887
     -2.907908     30.654384     30.654384     61.308769
     -2.897898     36.133739     36.133739     72.267478
     -2.887888     40.371012     40.371012     80.742025
     -2.877878     42.838873     42.838873     85.677747
     -2.867868     43.412884     43.412884     86.825769
     -2.857858     42.371431     42.371431     84.742861
     -2.847848     40.257896     40.257896     80.515792
     -2.837838     37.662095     37.662095     75.324191
     -2.827828     35.016137     35.016137     70.032273
     -2.817818     32.492134     32.492134     64.984267
     -2.807808     30.037512     30.037512     60.075024
     -2.797798     27.514321     27.514321     55.028641
     -2.787788     24.858576     24.858576     49.717151
     -2.777778     22.171207     22.171207     44.342415
     -2.767768     19.695661     19.695661     39.391322
     -2.757758     17.704083     17.704083     35.408165
     -2.747748     16.366350     16.366350     32.732700
     -2.737738     15.683591     15.683591     31.367182
     -2.727728     15.525457     15.525457     31.050914
     -2.717718     15.743085     15.743085     31.486170
     -2.707708     16.279352     16.279352     32.558703
     -2.697698     17.198253     17.198253     34.396505
     -2.687688     18.608889     18.608889     37.217778
     -2.677678     20.533377     20.533377     41.066755
     -2.667668     22.812218     22.812218     45.624436
     -2.657658     25.121997     25.121997     50.243994
     -2.647648     27.107344     27.107344     54.214687
     -2.637638     28.550076     28.550076     57.100153
     -2.627628     29.469318     29.469318     58.938636
     -2.617618     30.089824     30.089824     60.179648
     -2.607608     30.701804     30.701804     61.403608
     -2.597598     31.502057     31.502057     63.004113
     -2.587588     32.506470     32.506470     65.012939
     -2.577578     33.563556     33.563556     67.127112
     -2.567568     34.429892     34.429892     68.859784
     -2.557558     34.844951     34.844951     69.689902
     -2.547548     34.574892     34.574892     69.149784
     -2.537538     33.443338     33.443338     66.886675
     -2.527528     31.382724     31.382724     62.765448
     -2.517518     28.508562     28.508562     57.017123
     -2.507508     25.173088     25.173088     50.346176
     -2.497497     21.940269     21.940269     43.880537
     -2.487487     19.458628     19.458628     38.917256
     -2.477477     18.268535     18.268535     36.537070
     -2.467467     18.624611     18.624611     37.249222
     -2.457457     20.414479     20.414479     40.828957
     -2.447447     23.213580     23.213580     46.427161
     -2.437437     26.454766     26.454766     52.909531
     -2.427427     29.639092     29.639092     59.278184
     -2.417417     32.493925     32.493925     64.987851
     -2.407407     35.006695     35.006695     70.013391
     -2.397397     37.320338     37.320338     74.640676
     -2.387387     39.544291     39.544291     79.088582
     -2.377377     41.579917     41.579917     83.159833
     -2.367367     43.057271     43.057271     86.114542
     -2.357357     43.429225     43.429225     86.858449
     -2.347347     42.191335     42.191335     84.382671
     -2.337337     39.129581     39.129581     78.259162
     -2.327327     34.478751     34.478751     68.957501
     -2.317317     28.915020     28.915020     57.830041
     -2.307307     23.385748     23.385748     46.771496
     -2.297297     18.852787     18.852787     37.705575
     -2.287287     16.053065     16.053065     32.106131
     -2.277277     15.354162     15.354162     30.708324
     -2.267267     16.728596     16.728596     33.457192
     -2.257257     19.823398     19.823398     39.646796
     -2.247247     24.080206     24.080206     48.160411
     -2.237237     28.862629     28.862629     57.725259
     -2.227227     33.559587     33.559587     67.119174
     -2.217217     37.648110     37.648110     75.296220
     -2.207207     40.715954     40.715954     81.431908
     -2.197197     42.461625     42.461625     84.923250
     -2.187187     42.699176     42.699176     85.398353
     -2.177177     41.386923     41.386923     82.773847
     -2.167167     38.672153     38.672153     77.344307
     -2.157157     34.913961     34.913961     69.827923
     -2.147147     30.639330     30.639330     61.278661
     -2.137137     26.418093     26.418093     52.836187
     -2.127127     22.696200     22.696200     45.392399
     -2.117117     19.665790     19.665790     39.331580
     -2.107107     17.241649     17.241649     34.483298
     -2.097097     15.157173     15.157173     30.314346
     -2.087087     13.125862     13.125862     26.251724
     -2.077077     10.981905     10.981905     21.963810
     -2.067067      8.734915      8.734915     17.469830
     -2.057057      6.529905      6.529905     13.059810
     -2.047047      4.554355      4.554355      9.108710
     -2.037037      2.950426      2.950426      5.900851
     -2.027027      1.771023      1.771023      3.542046
     -2.017017      0.984832      0.984832      1.969664
     -2.007007      0.511005      0.511005      1.022009
     -1.996997      0.258995      0.258995      0.517991
     -1.986987      0.158076      0.158076      0.316153
     -1.976977      0.173356      0.173356      0.346713
     -1.966967      0.312326      0.312326      0.624652
     -1.956957      0.626072      0.626072      1.252145
     -1.946947      1.204953      1.204953      2.409907
     -1.936937      2.164238      2.164238      4.328475
     -1.926927      3.615173      3.615173      7.230345
     -1.916917      5.623158      5.623158     11.246316
     -1.906907      8.165022      8.165022     16.330043
     -1.896897     11.105294     11.105294     22.210588
     -1.886887     14.209388     14.209388     28.418775
     -1.876877     17.197314     17.197314     34.394628
     -1.866867     19.821343     19.821343     39.642687
     -1.856857     21.936494     21.936494     43.872988
     -1.846847     23.532642     23.532642     47.065284
     -1.836837     24.711551     24.711551     49.423103
     -1.826827     25.614587     25.614587     51.229174
     -1.816817     26.328934     26.328934     52.657868
     -1.806807     26.813939     26.813939     53.627879
     -1.796797     26.887024     26.887024     53.774048
     -1.786787     26.285834     26.285834     52.571668
     -1.776777     24.785980     24.785980     49.571960
     -1.766767     22.320939     22.320939     44.641878
     -1.756757     19.044596     19.044596     38.089193
     -1.746747     15.304784     15.304784     30.609567
     -1.736737     11.542552     11.542552     23.085104
     -1.726727      8.168126      8.168126     16.336252
     -1.716717      5.469697      5.469697     10.939393
     -1.706707      3.585968      3.585968      7.171936
     -1.696697      2.536303      2.536303      5.072605
     -1.686687      2.275336      2.275336      4.550672
     -1.676677      2.733910      2.733910      5.467820
     -1.666667      3.823660      3.823660      7.647319
     -1.656657      5.408545      5.408545     10.817091
     -1.646647      7.270121      7.270121     14.540243
     -1.636637      9.102538      9.102538     18.205077
     -1.626627     10.561505     10.561505     21.123009
