# EIG2DOS: Utility for SIESTA to obtain the electronic density of states
#  E. Artacho, Apr 1999, A. Garcia, Apr 2012
#  Nick R. Papior, Feb 2017
# ------------------------------------------
# Eigenvalues calculated from a non-polarized calculation
# Eigenvalues read from siesta.EIG
# Kpoint weights read from siesta.KP
# Using smearing parameter:   0.0500
# Using 1000 points in the energy range
# Selected bands: 1 to: 2981
# Emin, Emax in file for selected band(s):    -27.1257554    218.3653180
# Nbands, Nspin, Nk   =   2981     1     1
# E_F                 =    -4.2372 eV --> (shifted to ZERO)
# Broadening          =     0.0500 eV
#
#        E            N(up)  (=)   N(down)         Ntot
     -5.000000     32.538291     32.538291     65.076582
     -4.989990     36.768759     36.768759     73.537518
     -4.979980     40.608097     40.608097     81.216194
     -4.969970     43.464607     43.464607     86.929215
     -4.959960     44.842881     44.842881     89.685763
     -4.949950     44.503126     44.503126     89.006251
     -4.939940     42.549616     42.549616     85.099232
     -4.929930     39.423660     39.423660     78.847320
     -4.919920     35.820580     35.820580     71.641160
     -4.909910     32.570217     32.570217     65.140434
     -4.899900     30.506883     30.506883     61.013767
     -4.889890     30.327068     30.327068     60.654136
     -4.879880     32.425426     32.425426     64.850851
     -4.869870     36.729604     36.729604     73.459207
     -4.859860     42.602609     42.602609     85.205218
     -4.849850     48.900600     48.900600     97.801199
     -4.839840     54.228393     54.228393    108.456786
     -4.829830     57.335904     57.335904    114.671808
     -4.819820     57.505625     57.505625    115.011250
     -4.809810     54.761672     54.761672    109.523344
     -4.799800     49.808501     49.808501     99.617002
     -4.789790     43.739374     43.739374     87.478748
     -4.779780     37.659881     37.659881     75.319762
     -4.769770     32.389249     32.389249     64.778498
     -4.759760     28.332983     28.332983     56.665966
     -4.749750     25.520601     25.520601     51.041202
     -4.739740     23.734965     23.734965     47.469930
     -4.729730     22.651011     22.651011     45.302021
     -4.719720     21.934372     21.934372     43.868743
     -4.709710     21.291116     21.291116     42.582232
     -4.699700     20.486680     20.486680     40.973361
     -4.689690     19.360183     19.360183     38.720366
     -4.679680     17.852696     17.852696     35.705392
     -4.669670     16.049892     16.049892     32.099784
     -4.659660     14.219552     14.219552     28.439103
     -4.649650     12.814322     12.814322     25.628643
     -4.639640     12.416388     12.416388     24.832776
     -4.629630     13.619692     13.619692     27.239383
     -4.619620     16.867892     16.867892     33.735783
     -4.609610     22.286600     22.286600     44.573201
     -4.599600     29.563838     29.563838     59.127676
     -4.589590     37.936284     37.936284     75.872567
     -4.579580     46.318188     46.318188     92.636376
     -4.569570     53.559546     53.559546    107.119092
     -4.559560     58.757336     58.757336    117.514672
     -4.549550     61.504437     61.504437    123.008875
     -4.539540     61.975213     61.975213    123.950427
     -4.529530     60.813224     60.813224    121.626447
     -4.519520     58.870306     58.870306    117.740611
     -4.509510     56.903853     56.903853    113.807707
     -4.499499     55.346038     55.346038    110.692075
     -4.489489     54.219191     54.219191    108.438383
     -4.479479     53.208730     53.208730    106.417459
     -4.469469     51.845591     51.845591    103.691183
     -4.459459     49.715623     49.715623     99.431245
     -4.449449     46.614779     46.614779     93.229558
     -4.439439     42.604059     42.604059     85.208117
     -4.429429     37.968879     37.968879     75.937758
     -4.419419     33.127413     33.127413     66.254827
     -4.409409     28.540038     28.540038     57.080076
     -4.399399     24.646977     24.646977     49.293954
     -4.389389     21.825658     21.825658     43.651316
     -4.379379     20.342826     20.342826     40.685652
     -4.369369     20.292287     20.292287     40.584573
     -4.359359     21.542424     21.542424     43.084848
     -4.349349     23.737083     23.737083     47.474166
     -4.339339     26.377887     26.377887     52.755774
     -4.329329     28.972638     28.972638     57.945276
     -4.319319     31.192833     31.192833     62.385666
     -4.309309     32.971825     32.971825     65.943649
     -4.299299     34.499724     34.499724     68.999447
     -4.289289     36.114468     36.114468     72.228935
     -4.279279     38.127308     38.127308     76.254616
     -4.269269     40.643221     40.643221     81.286443
     -4.259259     43.442830     43.442830     86.885661
     -4.249249     45.982781     45.982781     91.965562
     -4.239239     47.539787     47.539787     95.079574
     -4.229229     47.466750     47.466750     94.933500
     -4.219219     45.465731     45.465731     90.931461
     -4.209209     41.751624     41.751624     83.503247
     -4.199199     37.015637     37.015637     74.031274
     -4.189189     32.192425     32.192425     64.384851
     -4.179179     28.136514     28.136514     56.273028
     -4.169169     25.358842     25.358842     50.717684
     -4.159159     23.935469     23.935469     47.870938
     -4.149149     23.605828     23.605828     47.211656
     -4.139139     23.986285     23.986285     47.972570
     -4.129129     24.782762     24.782762     49.565525
     -4.119119     25.903040     25.903040     51.806079
     -4.109109     27.425188     27.425188     54.850377
     -4.099099     29.446422     29.446422     58.892844
     -4.089089     31.894104     31.894104     63.788208
     -4.079079     34.407166     34.407166     68.814332
     -4.069069     36.372984     36.372984     72.745968
     -4.059059     37.130093     37.130093     74.260185
     -4.049049     36.252405     36.252405     72.504810
     -4.039039     33.772315     33.772315     67.544630
     -4.029029     30.221958     30.221958     60.443916
     -4.019019     26.467323     26.467323     52.934646
     -4.009009     23.420329     23.420329     46.840657
     -3.998999     21.769816     21.769816     43.539632
     -3.988989     21.843268     21.843268     43.686536
     -3.978979     23.624466     23.624466     47.248931
     -3.968969     26.869557     26.869557     53.739114
     -3.958959     31.234717     31.234717     62.469434
     -3.948949     36.358912     36.358912     72.717823
     -3.938939     41.899856     41.899856     83.799712
     -3.928929     47.554207     47.554207     95.108414
     -3.918919     53.083531     53.083531    106.167062
     -3.908909     58.333362     58.333362    116.666724
     -3.898899     63.211656     63.211656    126.423312
     -3.888889     67.609732     67.609732    135.219465
     -3.878879     71.294071     71.294071    142.588141
     -3.868869     73.836230     73.836230    147.672461
     -3.858859     74.647859     74.647859    149.295718
     -3.848849     73.141265     73.141265    146.282531
     -3.838839     68.966845     68.966845    137.933690
     -3.828829     62.226295     62.226295    124.452589
     -3.818819     53.557206     53.557206    107.114413
     -3.808809     44.035702     44.035702     88.071405
     -3.798799     34.923339     34.923339     69.846678
     -3.788789     27.350295     27.350295     54.700590
     -3.778779     22.046545     22.046545     44.093090
     -3.768769     19.202890     19.202890     38.405779
     -3.758759     18.487909     18.487909     36.975818
     -3.748749     19.195674     19.195674     38.391347
     -3.738739     20.470153     20.470153     40.940305
     -3.728729     21.545437     21.545437     43.090874
     -3.718719     21.946649     21.946649     43.893299
     -3.708709     21.607206     21.607206     43.214412
     -3.698699     20.872857     20.872857     41.745713
     -3.688689     20.384474     20.384474     40.768948
     -3.678679     20.861418     20.861418     41.722836
     -3.668669     22.841371     22.841371     45.682742
     -3.658659     26.459048     26.459048     52.918096
     -3.648649     31.348043     31.348043     62.696086
     -3.638639     36.714813     36.714813     73.429625
     -3.628629     41.566829     41.566829     83.133658
     -3.618619     45.007895     45.007895     90.015789
     -3.608609     46.482851     46.482851     92.965701
     -3.598599     45.883624     45.883624     91.767248
     -3.588589     43.501309     43.501309     87.002617
     -3.578579     39.877350     39.877350     79.754701
     -3.568569     35.630649     35.630649     71.261297
     -3.558559     31.314793     31.314793     62.629585
     -3.548549     27.323363     27.323363     54.646725
     -3.538539     23.843320     23.843320     47.686640
     -3.528529     20.859520     20.859520     41.719040
     -3.518519     18.215170     18.215170     36.430339
     -3.508509     15.716666     15.716666     31.433331
     -3.498498     13.245386     13.245386     26.490772
     -3.488488     10.828402     10.828402     21.656805
     -3.478478      8.638449      8.638449     17.276898
     -3.468468      6.929090      6.929090     13.858180
     -3.458458      5.938645      5.938645     11.877289
     -3.448448      5.801153      5.801153     11.602306
     -3.438438      6.490371      6.490371     12.980741
     -3.428428      7.809233      7.809233     15.618466
     -3.418418      9.429976      9.429976     18.859952
     -3.408408     10.982787     10.982787     21.965574
     -3.398398     12.174947     12.174947     24.349894
     -3.388388     12.901531     12.901531     25.803062
     -3.378378     13.299722     13.299722     26.599444
     -3.368368     13.716054     13.716054     27.432108
     -3.358358     14.594649     14.594649     29.189298
     -3.348348     16.330623     16.330623     32.661246
     -3.338338     19.141764     19.141764     38.283527
     -3.328328     22.990403     22.990403     45.980805
     -3.318318     27.558362     27.558362     55.116723
     -3.308308     32.267586     32.267586     64.535172
     -3.298298     36.351738     36.351738     72.703475
     -3.288288     38.994798     38.994798     77.989597
     -3.278278     39.532860     39.532860     79.065719
     -3.268268     37.666390     37.666390     75.332780
     -3.258258     33.591651     33.591651     67.183302
     -3.248248     27.975185     27.975185     55.950369
     -3.238238     21.767797     21.767797     43.535593
     -3.228228     15.937529     15.937529     31.875058
     -3.218218     11.236071     11.236071     22.472143
     -3.208208      8.078871      8.078871     16.157742
     -3.198198      6.547555      6.547555     13.095109
     -3.188188      6.467772      6.467772     12.935545
     -3.178178      7.507314      7.507314     15.014629
     -3.168168      9.267853      9.267853     18.535707
     -3.158158     11.373187     11.373187     22.746373
     -3.148148     13.559292     13.559292     27.118584
     -3.138138     15.748143     15.748143     31.496286
     -3.128128     18.065097     18.065097     36.130195
     -3.118118     20.767402     20.767402     41.534805
     -3.108108     24.093761     24.093761     48.187521
     -3.098098     28.096267     28.096267     56.192534
     -3.088088     32.538490     32.538490     65.076981
     -3.078078     36.916366     36.916366     73.832732
     -3.068068     40.595641     40.595641     81.191281
     -3.058058     42.999936     42.999936     85.999872
     -3.048048     43.763835     43.763835     87.527671
     -3.038038     42.794823     42.794823     85.589646
     -3.028028     40.243441     40.243441     80.486882
     -3.018018     36.425623     36.425623     72.851246
     -3.008008     31.749977     31.749977     63.499953
     -2.997998     26.678080     26.678080     53.356160
     -2.987988     21.711423     21.711423     43.422846
     -2.977978     17.379061     17.379061     34.758122
     -2.967968     14.203541     14.203541     28.407082
     -2.957958     12.639276     12.639276     25.278552
     -2.947948     12.992625     12.992625     25.985249
     -2.937938     15.340554     15.340554     30.681107
     -2.927928     19.468931     19.468931     38.937862
     -2.917918     24.855995     24.855995     49.711991
     -2.907908     30.726551     30.726551     61.453102
     -2.897898     36.187855     36.187855     72.375710
     -2.887888     40.426173     40.426173     80.852345
     -2.877878     42.906344     42.906344     85.812688
     -2.867868     43.498728     43.498728     86.997456
     -2.857858     42.476130     42.476130     84.952261
     -2.847848     40.375375     40.375375     80.750749
     -2.837838     37.779737     37.779737     75.559475
     -2.827828     35.116662     35.116662     70.233325
     -2.817818     32.557392     32.557392     65.114785
     -2.807808     30.053426     30.053426     60.106852
     -2.797798     27.475425     27.475425     54.950850
     -2.787788     24.770344     24.770344     49.540688
     -2.777778     22.049024     22.049024     44.098048
     -2.767768     19.560745     19.560745     39.121489
     -2.757758     17.578150     17.578150     35.156299
     -2.747748     16.267361     16.267361     32.534721
     -2.737738     15.624175     15.624175     31.248349
     -2.727728     15.513881     15.513881     31.027762
     -2.717718     15.785009     15.785009     31.570018
     -2.707708     16.378079     16.378079     32.756158
     -2.697698     17.352277     17.352277     34.704553
     -2.687688     18.807695     18.807695     37.615389
     -2.677678     20.754451     20.754451     41.508903
     -2.667668     23.022512     23.022512     46.045024
     -2.657658     25.285074     25.285074     50.570149
     -2.647648     27.194040     27.194040     54.388079
     -2.637638     28.547896     28.547896     57.095792
     -2.627628     29.386012     29.386012     58.772025
     -2.617618     29.949655     29.949655     59.899310
     -2.607608     30.536893     30.536893     61.073786
     -2.597598     31.343152     31.343152     62.686305
     -2.587588     32.376487     32.376487     64.752973
     -2.577578     33.474640     33.474640     66.949280
     -2.567568     34.382942     34.382942     68.765885
     -2.557558     34.830607     34.830607     69.661214
     -2.547548     34.576064     34.576064     69.152128
     -2.537538     33.439727     33.439727     66.879455
     -2.527528     31.356775     31.356775     62.713549
     -2.517518     28.450866     28.450866     56.901732
     -2.507508     25.085011     25.085011     50.170021
     -2.497497     21.832864     21.832864     43.665727
     -2.487487     19.348911     19.348911     38.697822
     -2.477477     18.175288     18.175288     36.350577
     -2.467467     18.565447     18.565447     37.130894
     -2.457457     20.404422     20.404422     40.808844
     -2.447447     23.264213     23.264213     46.528425
     -2.437437     26.572809     26.572809     53.145618
     -2.427427     29.824150     29.824150     59.648299
     -2.417417     32.736162     32.736162     65.472324
     -2.407407     35.285754     35.285754     70.571508
     -2.397397     37.606514     37.606514     75.213027
     -2.387387     39.802204     39.802204     79.604409
     -2.377377     41.774186     41.774186     83.548371
     -2.367367     43.159182     43.159182     86.318363
     -2.357357     43.423061     43.423061     86.846122
     -2.347347     42.078735     42.078735     84.157470
     -2.337337     38.930269     38.930269     77.860538
     -2.327327     34.226751     34.226751     68.453503
     -2.317317     28.651010     28.651010     57.302020
     -2.307307     23.147896     23.147896     46.295792
     -2.297297     18.669187     18.669187     37.338373
     -2.287287     15.938098     15.938098     31.876197
     -2.277277     15.309310     15.309310     30.618621
     -2.267267     16.746365     16.746365     33.492730
     -2.257257     19.892038     19.892038     39.784075
     -2.247247     24.187088     24.187088     48.374175
     -2.237237     28.995192     28.995192     57.990384
     -2.227227     33.704220     33.704220     67.408440
     -2.217217     37.788580     37.788580     75.577160
     -2.207207     40.833318     40.833318     81.666637
     -2.197197     42.536780     42.536780     85.073560
     -2.187187     42.717547     42.717547     85.435093
     -2.177177     41.343302     41.343302     82.686604
     -2.167167     38.573233     38.573233     77.146466
     -2.157157     34.776995     34.776995     69.553989
     -2.147147     30.487135     30.487135     60.974270
     -2.137137     26.272323     26.272323     52.544646
     -2.127127     22.571594     22.571594     45.143188
     -2.117117     19.567587     19.567587     39.135174
     -2.107107     17.166798     17.166798     34.333595
     -2.097097     15.098215     15.098215     30.196431
     -2.087087     13.075338     13.075338     26.150677
     -2.077077     10.935307     10.935307     21.870613
     -2.067067      8.691336      8.691336     17.382671
     -2.057057      6.490845      6.490845     12.981691
     -2.047047      4.521867      4.521867      9.043734
     -2.037037      2.925691      2.925691      5.851382
     -2.027027      1.753859      1.753859      3.507718
     -2.017017      0.973968      0.973968      1.947937
     -2.007007      0.504695      0.504695      1.009390
     -1.996997      0.255541      0.255541      0.511083
     -1.986987      0.156090      0.156090      0.312179
     -1.976977      0.171760      0.171760      0.343520
     -1.966967      0.310213      0.310213      0.620427
     -1.956957      0.622538      0.622538      1.245077
     -1.946947      1.198958      1.198958      2.397916
     -1.936937      2.154434      2.154434      4.308868
     -1.926927      3.599389      3.599389      7.198779
     -1.916917      5.596876      5.596876     11.193751
     -1.906907      8.117855      8.117855     16.235710
     -1.896897     11.014629     11.014629     22.029258
     -1.886887     14.031503     14.031503     28.063007
     -1.876877     16.859021     16.859021     33.718043
     -1.866867     19.218843     19.218843     38.437686
     -1.856857     20.950554     20.950554     41.901107
     -1.846847     22.066636     22.066636     44.133271
     -1.836837     22.748636     22.748636     45.497271
     -1.826827     23.274385     23.274385     46.548770
     -1.816817     23.891586     23.891586     47.783172
     -1.806807     24.682664     24.682664     49.365328
     -1.796797     25.485193     25.485193     50.970385
     -1.786787     25.921422     25.921422     51.842845
     -1.776777     25.542136     25.542136     51.084272
     -1.766767     24.025687     24.025687     48.051374
     -1.756757     21.334739     21.334739     42.669478
     -1.746747     17.751702     17.751702     35.503404
     -1.736737     13.780662     13.780662     27.561325
     -1.726727      9.974728      9.974728     19.949456
     -1.716717      6.777827      6.777827     13.555655
     -1.706707      4.445795      4.445795      8.891589
     -1.696697      3.056839      3.056839      6.113678
     -1.686687      2.574050      2.574050      5.148099
     -1.676677      2.906909      2.906909      5.813818
     -1.666667      3.935504      3.935504      7.871007
     -1.656657      5.494352      5.494352     10.988704
     -1.646647      7.342893      7.342893     14.685787
     -1.636637      9.161642      9.161642     18.323284
     -1.626627     10.600727     10.600727     21.201455
