# EIG2DOS: Utility for SIESTA to obtain the electronic density of states
#  E. Artacho, Apr 1999, A. Garcia, Apr 2012
#  Nick R. Papior, Feb 2017
# ------------------------------------------
# Eigenvalues calculated from a non-polarized calculation
# Eigenvalues read from siesta.EIG
# Kpoint weights read from siesta.KP
# Using smearing parameter:   0.0500
# Using 1000 points in the energy range
# Selected bands: 1 to: 2981
# Emin, Emax in file for selected band(s):    -27.2750305    218.4083810
# Nbands, Nspin, Nk   =   2981     1     1
# E_F                 =    -4.1847 eV --> (shifted to ZERO)
# Broadening          =     0.0500 eV
#
#        E            N(up)  (=)   N(down)         Ntot
     -5.000000     33.709240     33.709240     67.418479
     -4.989990     38.915719     38.915719     77.831438
     -4.979980     43.485299     43.485299     86.970599
     -4.969970     46.575520     46.575520     93.151039
     -4.959960     47.595052     47.595052     95.190103
     -4.949950     46.404461     46.404461     92.808921
     -4.939940     43.364213     43.364213     86.728427
     -4.929930     39.232752     39.232752     78.465504
     -4.919920     34.980412     34.980412     69.960825
     -4.909910     31.593456     31.593456     63.186911
     -4.899900     29.904730     29.904730     59.809459
     -4.889890     30.447389     30.447389     60.894778
     -4.879880     33.325306     33.325306     66.650612
     -4.869870     38.128366     38.128366     76.256732
     -4.859860     43.953100     43.953100     87.906200
     -4.849850     49.575981     49.575981     99.151963
     -4.839840     53.761336     53.761336    107.522673
     -4.829830     55.606827     55.606827    111.213653
     -4.819820     54.791939     54.791939    109.583878
     -4.809810     51.628862     51.628862    103.257725
     -4.799800     46.903868     46.903868     93.807737
     -4.789790     41.590035     41.590035     83.180069
     -4.779780     36.558271     36.558271     73.116541
     -4.769770     32.393530     32.393530     64.787059
     -4.759760     29.356103     29.356103     58.712205
     -4.749750     27.455367     27.455367     54.910733
     -4.739740     26.561886     26.561886     53.123772
     -4.729730     26.487209     26.487209     52.974418
     -4.719720     26.999598     26.999598     53.999196
     -4.709710     27.795172     27.795172     55.590345
     -4.699700     28.480594     28.480594     56.961187
     -4.689690     28.623734     28.623734     57.247468
     -4.679680     27.887743     27.887743     55.775487
     -4.669670     26.202825     26.202825     52.405650
     -4.659660     23.888074     23.888074     47.776148
     -4.649650     21.643323     21.643323     43.286647
     -4.639640     20.385316     20.385316     40.770632
     -4.629630     20.970803     20.970803     41.941606
     -4.619620     23.896523     23.896523     47.793045
     -4.609610     29.078748     29.078748     58.157495
     -4.599600     35.797614     35.797614     71.595229
     -4.589590     42.848769     42.848769     85.697538
     -4.579580     48.878365     48.878365     97.756730
     -4.569570     52.800350     52.800350    105.600700
     -4.559560     54.142460     54.142460    108.284920
     -4.549550     53.178730     53.178730    106.357461
     -4.539540     50.789940     50.789940    101.579880
     -4.529530     48.110968     48.110968     96.221936
     -4.519520     46.113342     46.113342     92.226683
     -4.509510     45.288245     45.288245     90.576490
     -4.499499     45.539110     45.539110     91.078219
     -4.489489     46.298541     46.298541     92.597081
     -4.479479     46.796797     46.796797     93.593593
     -4.469469     46.361750     46.361750     92.723500
     -4.459459     44.635777     44.635777     89.271555
     -4.449449     41.645112     41.645112     83.290224
     -4.439439     37.727295     37.727295     75.454589
     -4.429429     33.380282     33.380282     66.760564
     -4.419419     29.115997     29.115997     58.231994
     -4.409409     25.374625     25.374625     50.749250
     -4.399399     22.503084     22.503084     45.006167
     -4.389389     20.757935     20.757935     41.515869
     -4.379379     20.288892     20.288892     40.577785
     -4.369369     21.094021     21.094021     42.188042
     -4.359359     22.981187     22.981187     45.962373
     -4.349349     25.585083     25.585083     51.170165
     -4.339339     28.461144     28.461144     56.922289
     -4.329329     31.227008     31.227008     62.454017
     -4.319319     33.685815     33.685815     67.371630
     -4.309309     35.868489     35.868489     71.736978
     -4.299299     37.970433     37.970433     75.940865
     -4.289289     40.207170     40.207170     80.414340
     -4.279279     42.648667     42.648667     85.297335
     -4.269269     45.102561     45.102561     90.205122
     -4.259259     47.103280     47.103280     94.206560
     -4.249249     48.030218     48.030218     96.060436
     -4.239239     47.328040     47.328040     94.656080
     -4.229229     44.749980     44.749980     89.499960
     -4.219219     40.517399     40.517399     81.034797
     -4.209209     35.311046     35.311046     70.622092
     -4.199199     30.081088     30.081088     60.162175
     -4.189189     25.749466     25.749466     51.498931
     -4.179179     22.930829     22.930829     45.861657
     -4.169169     21.787305     21.787305     43.574609
     -4.159159     22.066358     22.066358     44.132715
     -4.149149     23.287252     23.287252     46.574504
     -4.139139     24.980327     24.980327     49.960653
     -4.129129     26.867233     26.867233     53.734465
     -4.119119     28.901762     28.901762     57.803524
     -4.109109     31.157427     31.157427     62.314853
     -4.099099     33.625781     33.625781     67.251562
     -4.089089     36.044525     36.044525     72.089050
     -4.079079     37.871959     37.871959     75.743918
     -4.069069     38.452342     38.452342     76.904684
     -4.059059     37.306182     37.306182     74.612365
     -4.049049     34.396540     34.396540     68.793080
     -4.039039     30.224870     30.224870     60.449740
     -4.029029     25.701249     25.701249     51.402499
     -4.019019     21.855493     21.855493     43.710987
     -4.009009     19.530471     19.530471     39.060943
     -3.998999     19.187016     19.187016     38.374033
     -3.988989     20.872169     20.872169     41.744337
     -3.978979     24.316528     24.316528     48.633056
     -3.968969     29.081978     29.081978     58.163956
     -3.958959     34.690865     34.690865     69.381730
     -3.948949     40.708727     40.708727     81.417454
     -3.938939     46.788262     46.788262     93.576524
     -3.928929     52.689289     52.689289    105.378578
     -3.918919     58.273200     58.273200    116.546401
     -3.908909     63.457164     63.457164    126.914327
     -3.898899     68.125639     68.125639    136.251279
     -3.888889     72.031043     72.031043    144.062085
     -3.878879     74.743106     74.743106    149.486213
     -3.868869     75.698914     75.698914    151.397827
     -3.858859     74.359468     74.359468    148.718936
     -3.848849     70.420201     70.420201    140.840402
     -3.838839     63.987653     63.987653    127.975306
     -3.828829     55.642823     55.642823    111.285646
     -3.818819     46.357162     46.357162     92.714324
     -3.808809     37.285059     37.285059     74.570118
     -3.798799     29.500226     29.500226     59.000452
     -3.788789     23.757460     23.757460     47.514920
     -3.778779     20.346058     20.346058     40.692116
     -3.768769     19.067946     19.067946     38.135891
     -3.758759     19.336728     19.336728     38.673456
     -3.748749     20.364288     20.364288     40.728575
     -3.738739     21.384420     21.384420     42.768839
     -3.728729     21.858532     21.858532     43.717064
     -3.718719     21.614475     21.614475     43.228950
     -3.708709     20.883615     20.883615     41.767231
     -3.698699     20.222035     20.222035     40.444071
     -3.688689     20.328617     20.328617     40.657234
     -3.678679     21.803486     21.803486     43.606973
     -3.668669     24.917252     24.917252     49.834503
     -3.658659     29.471303     29.471303     58.942607
     -3.648649     34.809042     34.809042     69.618085
     -3.638639     39.985663     39.985663     79.971326
     -3.628629     44.038672     44.038672     88.077343
     -3.618619     46.256411     46.256411     92.512821
     -3.608609     46.345625     46.345625     92.691251
     -3.598599     44.451283     44.451283     88.902565
     -3.588589     41.049995     41.049995     82.099990
     -3.578579     36.781350     36.781350     73.562700
     -3.568569     32.281000     32.281000     64.562000
     -3.558559     28.051791     28.051791     56.103581
     -3.548549     24.385018     24.385018     48.770036
     -3.538539     21.337858     21.337858     42.675716
     -3.528529     18.773613     18.773613     37.547227
     -3.518519     16.459884     16.459884     32.919767
     -3.508509     14.194364     14.194364     28.388728
     -3.498498     11.908415     11.908415     23.816830
     -3.488488      9.705145      9.705145     19.410289
     -3.478478      7.820891      7.820891     15.641782
     -3.468468      6.534930      6.534930     13.069861
     -3.458458      6.069444      6.069444     12.138887
     -3.448448      6.515720      6.515720     13.031440
     -3.438438      7.805669      7.805669     15.611338
     -3.428428      9.733175      9.733175     19.466350
     -3.418418     12.019224     12.019224     24.038448
     -3.408408     14.402419     14.402419     28.804837
     -3.398398     16.722849     16.722849     33.445698
     -3.388388     18.963586     18.963586     37.927172
     -3.378378     21.230968     21.230968     42.461937
     -3.368368     23.686536     23.686536     47.373072
     -3.358358     26.467293     26.467293     52.934586
     -3.348348     29.627062     29.627062     59.254124
     -3.338338     33.104495     33.104495     66.208990
     -3.328328     36.700909     36.700909     73.401818
     -3.318318     40.058819     40.058819     80.117639
     -3.308308     42.664550     42.664550     85.329100
     -3.298298     43.919508     43.919508     87.839017
     -3.288288     43.300978     43.300978     86.601956
     -3.278278     40.569898     40.569898     81.139795
     -3.268268     35.927580     35.927580     71.855160
     -3.258258     30.026390     30.026390     60.052781
     -3.248248     23.808490     23.808490     47.616979
     -3.238238     18.236257     18.236257     36.472513
     -3.228228     14.027690     14.027690     28.055379
     -3.218218     11.494165     11.494165     22.988330
     -3.208208     10.519688     10.519688     21.039376
     -3.198198     10.663830     10.663830     21.327661
     -3.188188     11.340669     11.340669     22.681337
     -3.178178     12.019541     12.019541     24.039083
     -3.168168     12.395316     12.395316     24.790632
     -3.158158     12.481061     12.481061     24.962122
     -3.148148     12.591395     12.591395     25.182790
     -3.138138     13.215326     13.215326     26.430652
     -3.128128     14.815704     14.815704     29.631409
     -3.118118     17.622511     17.622511     35.245022
     -3.108108     21.495458     21.495458     42.990916
     -3.098098     25.912822     25.912822     51.825645
     -3.088088     30.101313     30.101313     60.202626
     -3.078078     33.267187     33.267187     66.534373
     -3.068068     34.841955     34.841955     69.683909
     -3.058058     34.642198     34.642198     69.284395
     -3.048048     32.877965     32.877965     65.755929
     -3.038038     30.016994     30.016994     60.033987
     -3.028028     26.583718     26.583718     53.167435
     -3.018018     22.998633     22.998633     45.997265
     -3.008008     19.528342     19.528342     39.056684
     -2.997998     16.344335     16.344335     32.688670
     -2.987988     13.627693     13.627693     27.255385
     -2.977978     11.642745     11.642745     23.285489
     -2.967968     10.734025     10.734025     21.468049
     -2.957958     11.248053     11.248053     22.496107
     -2.947948     13.414593     13.414593     26.829187
     -2.937938     17.231808     17.231808     34.463615
     -2.927928     22.394936     22.394936     44.789871
     -2.917918     28.298560     28.298560     56.597120
     -2.907908     34.128222     34.128222     68.256443
     -2.897898     39.032572     39.032572     78.065144
     -2.887888     42.333822     42.333822     84.667644
     -2.877878     43.706208     43.706208     87.412416
     -2.867868     43.249627     43.249627     86.499254
     -2.857858     41.419634     41.419634     82.839267
     -2.847848     38.836042     38.836042     77.672085
     -2.837838     36.051091     36.051091     72.102183
     -2.827828     33.380406     33.380406     66.760813
     -2.817818     30.868980     30.868980     61.737960
     -2.807808     28.393839     28.393839     56.787678
     -2.797798     25.833976     25.833976     51.667951
     -2.787788     23.207401     23.207401     46.414801
     -2.777778     20.702028     20.702028     41.404056
     -2.767768     18.594314     18.594314     37.188627
     -2.757758     17.116167     17.116167     34.232335
     -2.747748     16.356816     16.356816     32.713632
     -2.737738     16.257087     16.257087     32.514174
     -2.727728     16.688409     16.688409     33.376817
     -2.717718     17.550729     17.550729     35.101457
     -2.707708     18.812646     18.812646     37.625291
     -2.697698     20.462841     20.462841     40.925683
     -2.687688     22.413506     22.413506     44.827012
     -2.677678     24.440990     24.440990     48.881980
     -2.667668     26.229504     26.229504     52.459009
     -2.657658     27.509774     27.509774     55.019549
     -2.647648     28.208931     28.208931     56.417862
     -2.637638     28.508793     28.508793     57.017586
     -2.627628     28.764729     28.764729     57.529458
     -2.617618     29.327826     29.327826     58.655651
     -2.607608     30.373116     30.373116     60.746233
     -2.597598     31.824523     31.824523     63.649045
     -2.587588     33.397642     33.397642     66.795284
     -2.577578     34.711043     34.711043     69.422086
     -2.567568     35.395711     35.395711     70.791422
     -2.557558     35.165397     35.165397     70.330794
     -2.547548     33.858408     33.858408     67.716816
     -2.537538     31.478940     31.478940     62.957880
     -2.527528     28.242586     28.242586     56.485173
     -2.517518     24.594732     24.594732     49.189463
     -2.507508     21.160171     21.160171     42.320343
     -2.497497     18.610613     18.610613     37.221227
     -2.487487     17.483726     17.483726     34.967452
     -2.477477     18.020764     18.020764     36.041528
     -2.467467     20.089981     20.089981     40.179963
     -2.457457     23.231889     23.231889     46.463778
     -2.447447     26.815276     26.815276     53.630551
     -2.437437     30.248089     30.248089     60.496178
     -2.427427     33.161169     33.161169     66.322338
     -2.417417     35.487722     35.487722     70.975445
     -2.407407     37.400429     37.400429     74.800858
     -2.397397     39.130156     39.130156     78.260313
     -2.387387     40.750419     40.750419     81.500838
     -2.377377     42.039405     42.039405     84.078809
     -2.367367     42.504732     42.504732     85.009463
     -2.357357     41.578499     41.578499     83.156998
     -2.347347     38.897386     38.897386     77.794773
     -2.337337     34.528954     34.528954     69.057908
     -2.327327     29.028583     29.028583     58.057167
     -2.317317     23.301054     23.301054     46.602107
     -2.307307     18.339990     18.339990     36.679980
     -2.297297     14.966119     14.966119     29.932238
     -2.287287     13.660722     13.660722     27.321443
     -2.277277     14.523850     14.523850     29.047699
     -2.267267     17.327336     17.327336     34.654671
     -2.257257     21.610322     21.610322     43.220643
     -2.247247     26.776422     26.776422     53.552844
     -2.237237     32.174705     32.174705     64.349410
     -2.227227     37.163749     37.163749     74.327499
     -2.217217     41.164957     41.164957     82.329914
     -2.207207     43.712368     43.712368     87.424736
     -2.197197     44.504332     44.504332     89.008665
     -2.187187     43.455911     43.455911     86.911822
     -2.177177     40.738000     40.738000     81.476000
     -2.167167     36.775712     36.775712     73.551425
     -2.157157     32.178421     32.178421     64.356842
     -2.147147     27.598463     27.598463     55.196927
     -2.137137     23.558080     23.558080     47.116160
     -2.127127     20.317185     20.317185     40.634371
     -2.117117     17.848250     17.848250     35.696499
     -2.107107     15.933392     15.933392     31.866785
     -2.097097     14.331565     14.331565     28.663130
     -2.087087     12.924320     12.924320     25.848639
     -2.077077     11.763493     11.763493     23.526986
     -2.067067     11.003066     11.003066     22.006132
     -2.057057     10.763125     10.763125     21.526250
     -2.047047     11.008163     11.008163     22.016326
     -2.037037     11.509132     11.509132     23.018263
     -2.027027     11.909993     11.909993     23.819985
     -2.017017     11.863601     11.863601     23.727201
     -2.007007     11.168114     11.168114     22.336228
     -1.996997      9.839892      9.839892     19.679784
     -1.986987      8.096719      8.096719     16.193438
     -1.976977      6.272438      6.272438     12.544875
     -1.966967      4.712837      4.712837      9.425674
     -1.956957      3.698793      3.698793      7.397586
     -1.946947      3.414244      3.414244      6.828489
     -1.936937      3.946153      3.946153      7.892305
     -1.926927      5.291112      5.291112     10.582224
     -1.916917      7.353122      7.353122     14.706243
     -1.906907      9.937282      9.937282     19.874564
     -1.896897     12.757398     12.757398     25.514796
     -1.886887     15.471831     15.471831     30.943662
     -1.876877     17.745646     17.745646     35.491292
     -1.866867     19.321357     19.321357     38.642714
     -1.856857     20.075669     20.075669     40.151338
     -1.846847     20.045005     20.045005     40.090010
     -1.836837     19.410868     19.410868     38.821736
     -1.826827     18.443509     18.443509     36.887018
     -1.816817     17.413046     17.413046     34.826092
     -1.806807     16.493913     16.493913     32.987825
     -1.796797     15.702741     15.702741     31.405483
     -1.786787     14.904891     14.904891     29.809781
     -1.776777     13.893938     13.893938     27.787876
     -1.766767     12.507093     12.507093     25.014187
     -1.756757     10.716812     10.716812     21.433623
     -1.746747      8.653247      8.653247     17.306494
     -1.736737      6.554264      6.554264     13.108528
     -1.726727      4.679755      4.679755      9.359511
     -1.716717      3.239117      3.239117      6.478233
     -1.706707      2.361449      2.361449      4.722897
     -1.696697      2.105277      2.105277      4.210554
     -1.686687      2.481108      2.481108      4.962215
     -1.676677      3.458534      3.458534      6.917068
     -1.666667      4.947558      4.947558      9.895116
     -1.656657      6.768794      6.768794     13.537588
     -1.646647      8.643731      8.643731     17.287461
     -1.636637     10.232890     10.232890     20.465780
     -1.626627     11.225661     11.225661     22.451322
