# EIG2DOS: Utility for SIESTA to obtain the electronic density of states
#  E. Artacho, Apr 1999, A. Garcia, Apr 2012
#  Nick R. Papior, Feb 2017
# ------------------------------------------
# Eigenvalues calculated from a non-polarized calculation
# Eigenvalues read from siesta.EIG
# Kpoint weights read from siesta.KP
# Using smearing parameter:   0.0500
# Using 1000 points in the energy range
# Selected bands: 1 to: 2981
# Emin, Emax in file for selected band(s):    -27.1029874    218.3368590
# Nbands, Nspin, Nk   =   2981     1     1
# E_F                 =    -4.2723 eV --> (shifted to ZERO)
# Broadening          =     0.0500 eV
#
#        E            N(up)  (=)   N(down)         Ntot
     -5.000000     36.053560     36.053560     72.107120
     -4.989990     38.781658     38.781658     77.563315
     -4.979980     41.024888     41.024888     82.049776
     -4.969970     42.383860     42.383860     84.767720
     -4.959960     42.595655     42.595655     85.191310
     -4.949950     41.595615     41.595615     83.191230
     -4.939940     39.537455     39.537455     79.074910
     -4.929930     36.778307     36.778307     73.556615
     -4.919920     33.843222     33.843222     67.686444
     -4.909910     31.376876     31.376876     62.753753
     -4.899900     30.072219     30.072219     60.144438
     -4.889890     30.552306     30.552306     61.104613
     -4.879880     33.194114     33.194114     66.388229
     -4.869870     37.929156     37.929156     75.858311
     -4.859860     44.111613     44.111613     88.223226
     -4.849850     50.562182     50.562182    101.124365
     -4.839840     55.838615     55.838615    111.677229
     -4.829830     58.666852     58.666852    117.333703
     -4.819820     58.359185     58.359185    116.718370
     -4.809810     55.027028     55.027028    110.054055
     -4.799800     49.491152     49.491152     98.982303
     -4.789790     42.946422     42.946422     85.892844
     -4.779780     36.552741     36.552741     73.105482
     -4.769770     31.131152     31.131152     62.262304
     -4.759760     27.054884     27.054884     54.109769
     -4.749750     24.312129     24.312129     48.624258
     -4.739740     22.651898     22.651898     45.303797
     -4.729730     21.726885     21.726885     43.453770
     -4.719720     21.189082     21.189082     42.378164
     -4.709710     20.735610     20.735610     41.471220
     -4.699700     20.124736     20.124736     40.249472
     -4.689690     19.187048     19.187048     38.374096
     -4.679680     17.850169     17.850169     35.700337
     -4.669670     16.179819     16.179819     32.359637
     -4.659660     14.420475     14.420475     28.840950
     -4.649650     13.005805     13.005805     26.011610
     -4.639640     12.511573     12.511573     25.023146
     -4.629630     13.540971     13.540971     27.081942
     -4.619620     16.556198     16.556198     33.112396
     -4.609610     21.694043     21.694043     43.388086
     -4.599600     28.624059     28.624059     57.248119
     -4.589590     36.518086     36.518086     73.036172
     -4.579580     44.183809     44.183809     88.367618
     -4.569570     50.361732     50.361732    100.723465
     -4.559560     54.107164     54.107164    108.214327
     -4.549550     55.116678     55.116678    110.233355
     -4.539540     53.855736     53.855736    107.711471
     -4.529530     51.414581     51.414581    102.829161
     -4.519520     49.132865     49.132865     98.265730
     -4.509510     48.132938     48.132938     96.265876
     -4.499499     48.939134     48.939134     97.878268
     -4.489489     51.321638     51.321638    102.643276
     -4.479479     54.410538     54.410538    108.821075
     -4.469469     57.020926     57.020926    114.041853
     -4.459459     58.056072     58.056072    116.112144
     -4.449449     56.839888     56.839888    113.679776
     -4.439439     53.274833     53.274833    106.549667
     -4.429429     47.803134     47.803134     95.606267
     -4.419419     41.227454     41.227454     82.454909
     -4.409409     34.484652     34.484652     68.969305
     -4.399399     28.451172     28.451172     56.902343
     -4.389389     23.811833     23.811833     47.623665
     -4.379379     20.983020     20.983020     41.966041
     -4.369369     20.072352     20.072352     40.144704
     -4.359359     20.875184     20.875184     41.750367
     -4.349349     22.926211     22.926211     45.852423
     -4.339339     25.617495     25.617495     51.234991
     -4.329329     28.362755     28.362755     56.725510
     -4.319319     30.755452     30.755452     61.510903
     -4.309309     32.661333     32.661333     65.322667
     -4.299299     34.211599     34.211599     68.423197
     -4.289289     35.703726     35.703726     71.407453
     -4.279279     37.448681     37.448681     74.897362
     -4.269269     39.614084     39.614084     79.228168
     -4.259259     42.109842     42.109842     84.219685
     -4.249249     44.556365     44.556365     89.112729
     -4.239239     46.363512     46.363512     92.727023
     -4.229229     46.917451     46.917451     93.834903
     -4.219219     45.820480     45.820480     91.640960
     -4.209209     43.082011     43.082011     86.164022
     -4.199199     39.158917     39.158917     78.317834
     -4.189189     34.808643     34.808643     69.617287
     -4.179179     30.817793     30.817793     61.635586
     -4.169169     27.738242     27.738242     55.476483
     -4.159159     25.755177     25.755177     51.510355
     -4.149149     24.733827     24.733827     49.467653
     -4.139139     24.396488     24.396488     48.792977
     -4.129129     24.523725     24.523725     49.047450
     -4.119119     25.074915     25.074915     50.149831
     -4.109109     26.171220     26.171220     52.342440
     -4.099099     27.952263     27.952263     55.904525
     -4.089089     30.381806     30.381806     60.763612
     -4.079079     33.113347     33.113347     66.226695
     -4.069069     35.510801     35.510801     71.021603
     -4.059059     36.846168     36.846168     73.692337
     -4.049049     36.595214     36.595214     73.190428
     -4.039039     34.683786     34.683786     69.367572
     -4.029029     31.552500     31.552500     63.105000
     -4.019019     28.004738     28.004738     56.009476
     -4.009009     24.921907     24.921907     49.843814
     -3.998999     22.993408     22.993408     45.986816
     -3.988989     22.579373     22.579373     45.158747
     -3.978979     23.730289     23.730289     47.460578
     -3.968969     26.298278     26.298278     52.596555
     -3.958959     30.046915     30.046915     60.093829
     -3.948949     34.705870     34.705870     69.411740
     -3.938939     39.980496     39.980496     79.960991
     -3.928929     45.561213     45.561213     91.122427
     -3.918919     51.160869     51.160869    102.321738
     -3.908909     56.562620     56.562620    113.125239
     -3.898899     61.630868     61.630868    123.261737
     -3.888889     66.252195     66.252195    132.504390
     -3.878879     70.223914     70.223914    140.447828
     -3.868869     73.158106     73.158106    146.316211
     -3.858859     74.481043     74.481043    148.962086
     -3.848849     73.568183     73.568183    147.136365
     -3.838839     69.981676     69.981676    139.963352
     -3.828829     63.711276     63.711276    127.422553
     -3.818819     55.300643     55.300643    110.601285
     -3.808809     45.784702     45.784702     91.569405
     -3.798799     36.448498     36.448498     72.896996
     -3.788789     28.497202     28.497202     56.994405
     -3.778779     22.759025     22.759025     45.518050
     -3.768769     19.517056     19.517056     39.034112
     -3.758759     18.506064     18.506064     37.012128
     -3.748749     19.051650     19.051650     38.103299
     -3.738739     20.295151     20.295151     40.590302
     -3.728729     21.439863     21.439863     42.879726
     -3.718719     21.961276     21.961276     43.922553
     -3.708709     21.736096     21.736096     43.472193
     -3.698699     21.059423     21.059423     42.118847
     -3.688689     20.539967     20.539967     41.079934
     -3.678679     20.892091     20.892091     41.784182
     -3.668669     22.677688     22.677688     45.355377
     -3.658659     26.078801     26.078801     52.157602
     -3.648649     30.786268     30.786268     61.572536
     -3.638639     36.057180     36.057180     72.114360
     -3.628629     40.928666     40.928666     81.857332
     -3.618619     44.505892     44.505892     89.011783
     -3.608609     46.208414     46.208414     92.416828
     -3.598599     45.884972     45.884972     91.769945
     -3.588589     43.777338     43.777338     87.554676
     -3.578579     40.382566     40.382566     80.765132
     -3.568569     36.288500     36.288500     72.576999
     -3.558559     32.036031     32.036031     64.072062
     -3.548549     28.025358     28.025358     56.050716
     -3.538539     24.465602     24.465602     48.931204
     -3.528529     21.371370     21.371370     42.742740
     -3.518519     18.613721     18.613721     37.227442
     -3.508509     16.017745     16.017745     32.035489
     -3.498498     13.472010     13.472010     26.944019
     -3.488488     11.001817     11.001817     22.003633
     -3.478478      8.774101      8.774101     17.548203
     -3.468468      7.036852      7.036852     14.073705
     -3.458458      6.024812      6.024812     12.049624
     -3.448448      5.869870      5.869870     11.739741
     -3.438438      6.543489      6.543489     13.086978
     -3.428428      7.844999      7.844999     15.689999
     -3.418418      9.441649      9.441649     18.883298
     -3.408408     10.958221     10.958221     21.916443
     -3.398398     12.097766     12.097766     24.195532
     -3.388388     12.754086     12.754086     25.508172
     -3.378378     13.067607     13.067607     26.135213
     -3.368368     13.393290     13.393290     26.786581
     -3.358358     14.187886     14.187886     28.375772
     -3.348348     15.860414     15.860414     31.720827
     -3.338338     18.640017     18.640017     37.280034
     -3.328328     22.495295     22.495295     44.990589
     -3.318318     27.109665     27.109665     54.219330
     -3.308308     31.904624     31.904624     63.809249
     -3.298298     36.112899     36.112899     72.225797
     -3.288288     38.914548     38.914548     77.829096
     -3.278278     39.632796     39.632796     79.265593
     -3.268268     37.941305     37.941305     75.882610
     -3.258258     33.995988     33.995988     67.991976
     -3.248248     28.415106     28.415106     56.830211
     -3.238238     22.098959     22.098959     44.197918
     -3.228228     15.963786     15.963786     31.927572
     -3.218218     10.706046     10.706046     21.412093
     -3.208208      6.687165      6.687165     13.374329
     -3.198198      3.958833      3.958833      7.917665
     -3.188188      2.383949      2.383949      4.767897
     -3.178178      1.782086      1.782086      3.564173
     -3.168168      2.041133      2.041133      4.082265
     -3.158158      3.166284      3.166284      6.332567
     -3.148148      5.263126      5.263126     10.526251
     -3.138138      8.467058      8.467058     16.934116
     -3.128128     12.841836     12.841836     25.683672
     -3.118118     18.279983     18.279983     36.559965
     -3.108108     24.443891     24.443891     48.887782
     -3.098098     30.780317     30.780317     61.560634
     -3.088088     36.617963     36.617963     73.235927
     -3.078078     41.323460     41.323460     82.646920
     -3.068068     44.460167     44.460167     88.920334
     -3.058058     45.884180     45.884180     91.768361
     -3.048048     45.733362     45.733362     91.466724
     -3.038038     44.314081     44.314081     88.628162
     -3.028028     41.944512     41.944512     83.889025
     -3.018018     38.840322     38.840322     77.680644
     -3.008008     35.105794     35.105794     70.211588
     -2.997998     30.829291     30.829291     61.658581
     -2.987988     26.216639     26.216639     52.433277
     -2.977978     21.673880     21.673880     43.347761
     -2.967968     17.784792     17.784792     35.569584
     -2.957958     15.190270     15.190270     30.380541
     -2.947948     14.422433     14.422433     28.844867
     -2.937938     15.753639     15.753639     31.507278
     -2.927928     19.101006     19.101006     38.202012
     -2.917918     24.005843     24.005843     48.011687
     -2.907908     29.696672     29.696672     59.393343
     -2.897898     35.235396     35.235396     70.470791
     -2.887888     39.725122     39.725122     79.450245
     -2.877878     42.527011     42.527011     85.054022
     -2.867868     43.412341     43.412341     86.824682
     -2.857858     42.586729     42.586729     85.173457
     -2.847848     40.570335     40.570335     81.140670
     -2.837838     37.980785     37.980785     75.961570
     -2.827828     35.311035     35.311035     70.622070
     -2.817818     32.796308     32.796308     65.592617
     -2.807808     30.419399     30.419399     60.838799
     -2.797798     28.034550     28.034550     56.069099
     -2.787788     25.532771     25.532771     51.065542
     -2.777778     22.956192     22.956192     45.912385
     -2.767768     20.503572     20.503572     41.007144
     -2.757758     18.434121     18.434121     36.868241
     -2.747748     16.935591     16.935591     33.871182
     -2.737738     16.041127     16.041127     32.082254
     -2.727728     15.646199     15.646199     31.292398
     -2.717718     15.611385     15.611385     31.222770
     -2.707708     15.879366     15.879366     31.758731
     -2.697698     16.523027     16.523027     33.046053
     -2.687688     17.685885     17.685885     35.371769
     -2.677678     19.449438     19.449438     38.898877
     -2.667668     21.716211     21.716211     43.432422
     -2.657658     24.193636     24.193636     48.387272
     -2.647648     26.501232     26.501232     53.002463
     -2.637638     28.341518     28.341518     56.683036
     -2.627628     29.630178     29.630178     59.260356
     -2.617618     30.506151     30.506151     61.012302
     -2.607608     31.221375     31.221375     62.442750
     -2.597598     31.985983     31.985983     63.971965
     -2.587588     32.863220     32.863220     65.726441
     -2.577578     33.759976     33.759976     67.519951
     -2.567568     34.487262     34.487262     68.974525
     -2.557558     34.829245     34.829245     69.658489
     -2.547548     34.582367     34.582367     69.164734
     -2.537538     33.577055     33.577055     67.154110
     -2.527528     31.719794     31.719794     63.439588
     -2.517518     29.068177     29.068177     58.136355
     -2.507508     25.901058     25.901058     51.802117
     -2.497497     22.720096     22.720096     45.440191
     -2.487487     20.145553     20.145553     40.291106
     -2.477477     18.731302     18.731302     37.462604
     -2.467467     18.777477     18.777477     37.554954
     -2.457457     20.229116     20.229116     40.458232
     -2.447447     22.711124     22.711124     45.422248
     -2.437437     25.686300     25.686300     51.372599
     -2.427427     28.665796     28.665796     57.331592
     -2.417417     31.376288     31.376288     62.752576
     -2.407407     33.806998     33.806998     67.613996
     -2.397397     36.115541     36.115541     72.231082
     -2.387387     38.439835     38.439835     76.879670
     -2.377377     40.711904     40.711904     81.423808
     -2.367367     42.573893     42.573893     85.147785
     -2.357357     43.452107     43.452107     86.904213
     -2.347347     42.769770     42.769770     85.539539
     -2.337337     40.208224     40.208224     80.416447
     -2.327327     35.896514     35.896514     71.793028
     -2.317317     30.439521     30.439521     60.879042
     -2.307307     24.771014     24.771014     49.542029
     -2.297297     19.897788     19.897788     39.795576
     -2.287287     16.640372     16.640372     33.280743
     -2.277277     15.459176     15.459176     30.918351
     -2.267267     16.402821     16.402821     32.805643
     -2.257257     19.163789     19.163789     38.327579
     -2.247247     23.198683     23.198683     46.397367
     -2.237237     27.866560     27.866560     55.733120
     -2.227227     32.547285     32.547285     65.094571
     -2.217217     36.715337     36.715337     73.430674
     -2.207207     39.963086     39.963086     79.926172
     -2.197197     41.990335     41.990335     83.980669
     -2.187187     42.593726     42.593726     85.187452
     -2.177177     41.685833     41.685833     83.371666
     -2.167167     39.344883     39.344883     78.689765
     -2.157157     35.858202     35.858202     71.716405
     -2.147147     31.705734     31.705734     63.411469
     -2.137137     27.454911     27.454911     54.909823
     -2.127127     23.594729     23.594729     47.189457
     -2.117117     20.386067     20.386067     40.772135
     -2.107107     17.808017     17.808017     35.616034
     -2.097097     15.629138     15.629138     31.258276
     -2.087087     13.561469     13.561469     27.122939
     -2.077077     11.411924     11.411924     22.823848
     -2.067067      9.157134      9.157134     18.314268
     -2.057057      6.920622      6.920622     13.841243
     -2.047047      4.886428      4.886428      9.772856
     -2.037037      3.207270      3.207270      6.414539
     -2.027027      1.951494      1.951494      3.902989
     -2.017017      1.100160      1.100160      2.200320
     -2.007007      0.578198      0.578198      1.156396
     -1.996997      0.294868      0.294868      0.589736
     -1.986987      0.175906      0.175906      0.351813
     -1.976977      0.182096      0.182096      0.364192
     -1.966967      0.317250      0.317250      0.634500
     -1.956957      0.629650      0.629650      1.259301
     -1.946947      1.207103      1.207103      2.414207
     -1.936937      2.161501      2.161501      4.323002
     -1.926927      3.598632      3.598632      7.197265
     -1.916917      5.575029      5.575029     11.150057
     -1.906907      8.053642      8.053642     16.107283
     -1.896897     10.877677     10.877677     21.755355
     -1.886887     13.779911     13.779911     27.559822
     -1.876877     16.431831     16.431831     32.863663
     -1.866867     18.519764     18.519764     37.039529
     -1.856857     19.824003     19.824003     39.648005
     -1.846847     20.277033     20.277033     40.554066
     -1.836837     19.984488     19.984488     39.968976
     -1.826827     19.201240     19.201240     38.402480
     -1.816817     18.264151     18.264151     36.528302
     -1.806807     17.496163     17.496163     34.992325
     -1.796797     17.111959     17.111959     34.223918
     -1.786787     17.161924     17.161924     34.323847
     -1.776777     17.536818     17.536818     35.073636
     -1.766767     18.024716     18.024716     36.049432
     -1.756757     18.385728     18.385728     36.771455
     -1.746747     18.409635     18.409635     36.819270
     -1.736737     17.945540     17.945540     35.891080
     -1.726727     16.917675     16.917675     33.835350
     -1.716717     15.344768     15.344768     30.689536
     -1.706707     13.361625     13.361625     26.723250
     -1.696697     11.222012     11.222012     22.444025
     -1.686687      9.261818      9.261818     18.523637
     -1.676677      7.821286      7.821286     15.642571
     -1.666667      7.148445      7.148445     14.296889
     -1.656657      7.317158      7.317158     14.634315
     -1.646647      8.189653      8.189653     16.379306
     -1.636637      9.441020      9.441020     18.882040
     -1.626627     10.646274     10.646274     21.292549
