# EIG2DOS: Utility for SIESTA to obtain the electronic density of states
#  E. Artacho, Apr 1999, A. Garcia, Apr 2012
#  Nick R. Papior, Feb 2017
# ------------------------------------------
# Eigenvalues calculated from a non-polarized calculation
# Eigenvalues read from siesta.EIG
# Kpoint weights read from siesta.KP
# Using smearing parameter:   0.0500
# Using 1000 points in the energy range
# Selected bands: 1 to: 2981
# Emin, Emax in file for selected band(s):    -27.0739768    218.3403450
# Nbands, Nspin, Nk   =   2981     1     1
# E_F                 =    -4.2652 eV --> (shifted to ZERO)
# Broadening          =     0.0500 eV
#
#        E            N(up)  (=)   N(down)         Ntot
     -5.000000     36.414035     36.414035     72.828069
     -4.989990     39.295311     39.295311     78.590622
     -4.979980     41.661333     41.661333     83.322667
     -4.969970     43.059663     43.059663     86.119326
     -4.959960     43.201736     43.201736     86.403473
     -4.949950     42.035160     42.035160     84.070320
     -4.939940     39.758110     39.758110     79.516221
     -4.929930     36.787639     36.787639     73.575278
     -4.919920     33.705060     33.705060     67.410119
     -4.909910     31.192552     31.192552     62.385103
     -4.899900     29.952375     29.952375     59.904751
     -4.889890     30.584344     30.584344     61.168689
     -4.879880     33.411412     33.411412     66.822824
     -4.869870     38.291752     38.291752     76.583504
     -4.859860     44.509644     44.509644     89.019288
     -4.849850     50.847552     50.847552    101.695105
     -4.839840     55.877114     55.877114    111.754229
     -4.829830     58.389782     58.389782    116.779565
     -4.819820     57.790658     57.790658    115.581316
     -4.809810     54.274305     54.274305    108.548611
     -4.799800     48.704141     48.704141     97.408282
     -4.789790     42.266607     42.266607     84.533214
     -4.779780     36.073230     36.073230     72.146460
     -4.769770     30.879722     30.879722     61.759444
     -4.759760     26.999456     26.999456     53.998912
     -4.749750     24.380644     24.380644     48.761287
     -4.739740     22.757642     22.757642     45.515285
     -4.729730     21.792510     21.792510     43.585020
     -4.719720     21.164461     21.164461     42.328922
     -4.709710     20.605966     20.605966     41.211933
     -4.699700     19.907794     19.907794     39.815588
     -4.689690     18.921787     18.921787     37.843575
     -4.679680     17.583187     17.583187     35.166374
     -4.669670     15.955875     15.955875     31.911749
     -4.659660     14.280763     14.280763     28.561526
     -4.649650     12.992621     12.992621     25.985242
     -4.639640     12.673748     12.673748     25.347495
     -4.629630     13.932711     13.932711     27.865422
     -4.619620     17.223799     17.223799     34.447597
     -4.609610     22.650587     22.650587     45.301175
     -4.599600     29.820558     29.820558     59.641116
     -4.589590     37.826545     37.826545     75.653090
     -4.579580     45.407605     45.407605     90.815210
     -4.569570     51.277700     51.277700    102.555400
     -4.559560     54.525642     54.525642    109.051285
     -4.549550     54.931784     54.931784    109.863568
     -4.539540     53.060260     53.060260    106.120520
     -4.529530     50.074392     50.074392    100.148783
     -4.519520     47.342374     47.342374     94.684747
     -4.509510     45.986513     45.986513     91.973026
     -4.499499     46.541135     46.541135     93.082270
     -4.489489     48.826040     48.826040     97.652080
     -4.479479     52.052458     52.052458    104.104916
     -4.469469     55.099983     55.099983    110.199966
     -4.459459     56.860929     56.860929    113.721859
     -4.449449     56.545681     56.545681    113.091361
     -4.439439     53.869526     53.869526    107.739053
     -4.429429     49.086340     49.086340     98.172679
     -4.419419     42.883922     42.883922     85.767844
     -4.409409     36.193574     36.193574     72.387147
     -4.399399     29.978219     29.978219     59.956438
     -4.389389     25.048571     25.048571     50.097143
     -4.379379     21.931350     21.931350     43.862700
     -4.369369     20.797520     20.797520     41.595039
     -4.359359     21.457553     21.457553     42.915106
     -4.349349     23.431967     23.431967     46.863934
     -4.339339     26.092459     26.092459     52.184919
     -4.329329     28.841157     28.841157     57.682315
     -4.319319     31.271126     31.271126     62.542251
     -4.309309     33.251511     33.251511     66.503022
     -4.299299     34.909804     34.909804     69.819607
     -4.289289     36.524428     36.524428     73.048857
     -4.279279     38.370101     38.370101     76.740202
     -4.269269     40.566540     40.566540     81.133081
     -4.259259     42.976221     42.976221     85.952443
     -4.249249     45.189070     45.189070     90.378140
     -4.239239     46.617827     46.617827     93.235653
     -4.229229     46.694224     46.694224     93.388449
     -4.219219     45.103858     45.103858     90.207715
     -4.209209     41.955726     41.955726     83.911453
     -4.199199     37.791204     37.791204     75.582409
     -4.189189     33.409317     33.409317     66.818633
     -4.179179     29.583874     29.583874     59.167749
     -4.169169     26.809072     26.809072     53.618144
     -4.159159     25.192179     25.192179     50.384358
     -4.149149     24.528340     24.528340     49.056680
     -4.139139     24.497760     24.497760     48.995520
     -4.129129     24.872257     24.872257     49.744514
     -4.119119     25.625302     25.625302     51.250605
     -4.109109     26.893591     26.893591     53.787181
     -4.099099     28.812073     28.812073     57.624147
     -4.089089     31.310708     31.310708     62.621416
     -4.079079     33.992177     33.992177     67.984354
     -4.069069     36.182279     36.182279     72.364558
     -4.059059     37.158791     37.158791     74.317581
     -4.049049     36.459748     36.459748     72.919495
     -4.039039     34.113347     34.113347     68.226695
     -4.029029     30.664589     30.664589     61.329177
     -4.019019     26.984472     26.984472     53.968945
     -4.009009     23.965979     23.965979     47.931959
     -3.998999     22.260948     22.260948     44.521895
     -3.988989     22.166750     22.166750     44.333500
     -3.978979     23.670770     23.670770     47.341539
     -3.968969     26.575979     26.575979     53.151958
     -3.958959     30.613388     30.613388     61.226776
     -3.948949     35.493908     35.493908     70.987816
     -3.938939     40.916055     40.916055     81.832110
     -3.928929     46.575425     46.575425     93.150850
     -3.918919     52.200273     52.200273    104.400547
     -3.908909     57.591809     57.591809    115.183619
     -3.898899     62.622691     62.622691    125.245383
     -3.888889     67.167652     67.167652    134.335304
     -3.878879     70.992761     70.992761    141.985522
     -3.868869     73.675108     73.675108    147.350215
     -3.858859     74.627239     74.627239    149.254478
     -3.848849     73.252953     73.252953    146.505906
     -3.838839     69.187690     69.187690    138.375380
     -3.828829     62.519617     62.519617    125.039235
     -3.818819     53.881556     53.881556    107.763112
     -3.808809     44.355888     44.355888     88.711777
     -3.798799     35.217746     35.217746     70.435491
     -3.788789     27.611207     27.611207     55.222413
     -3.778779     22.274456     22.274456     44.548911
     -3.768769     19.398902     19.398902     38.797805
     -3.758759     18.648816     18.648816     37.297632
     -3.748749     19.314296     19.314296     38.628593
     -3.738739     20.540388     20.540388     41.080777
     -3.728729     21.568907     21.568907     43.137813
     -3.718719     21.937029     21.937029     43.874057
     -3.708709     21.589389     21.589389     43.178779
     -3.698699     20.876354     20.876354     41.752707
     -3.688689     20.432906     20.432906     40.865813
     -3.678679     20.961945     20.961945     41.923889
     -3.668669     22.978705     22.978705     45.957409
     -3.658659     26.597802     26.597802     53.195603
     -3.648649     31.444108     31.444108     62.888217
     -3.638639     36.732088     36.732088     73.464176
     -3.628629     41.492164     41.492164     82.984329
     -3.618619     44.857133     44.857133     89.714266
     -3.608609     46.295027     46.295027     92.590054
     -3.598599     45.706428     45.706428     91.412855
     -3.588589     43.374983     43.374983     86.749966
     -3.578579     39.823834     39.823834     79.647667
     -3.568569     35.650727     35.650727     71.301453
     -3.558559     31.391659     31.391659     62.783319
     -3.548549     27.429103     27.429103     54.858205
     -3.538539     23.945838     23.945838     47.891676
     -3.528529     20.929326     20.929326     41.858653
     -3.518519     18.232095     18.232095     36.464190
     -3.508509     15.675650     15.675650     31.351300
     -3.498498     13.159391     13.159391     26.318782
     -3.488488     10.726723     10.726723     21.453446
     -3.478478      8.560290      8.560290     17.120579
     -3.468468      6.913910      6.913910     13.827821
     -3.458458      6.015439      6.015439     12.030878
     -3.448448      5.978706      5.978706     11.957412
     -3.438438      6.750626      6.750626     13.501253
     -3.428428      8.106491      8.106491     16.212983
     -3.418418      9.698461      9.698461     19.396922
     -3.408408     11.152898     11.152898     22.305797
     -3.398398     12.194445     12.194445     24.388891
     -3.388388     12.754542     12.754542     25.509083
     -3.378378     13.016423     13.016423     26.032847
     -3.368368     13.369498     13.369498     26.738996
     -3.358358     14.285791     14.285791     28.571582
     -3.348348     16.165313     16.165313     32.330627
     -3.338338     19.203837     19.203837     38.407674
     -3.328328     23.315390     23.315390     46.630780
     -3.318318     28.114554     28.114554     56.229108
     -3.308308     32.953432     32.953432     65.906864
     -3.298298     37.016392     37.016392     74.032784
     -3.288288     39.479708     39.479708     78.959416
     -3.278278     39.720108     39.720108     79.440215
     -3.268268     37.512296     37.512296     75.024592
     -3.258258     33.128102     33.128102     66.256204
     -3.248248     27.275027     27.275027     54.550055
     -3.238238     20.886118     20.886118     41.772236
     -3.228228     14.849434     14.849434     29.698868
     -3.218218      9.791510      9.791510     19.583019
     -3.208208      5.990465      5.990465     11.980930
     -3.198198      3.422685      3.422685      6.845371
     -3.188188      1.890505      1.890505      3.781011
     -3.178178      1.163977      1.163977      2.327954
     -3.168168      1.090383      1.090383      2.180766
     -3.158158      1.654499      1.654499      3.308997
     -3.148148      2.989376      2.989376      5.978753
     -3.138138      5.338254      5.338254     10.676508
     -3.128128      8.964959      8.964959     17.929918
     -3.118118     14.018356     14.018356     28.036711
     -3.108108     20.381699     20.381699     40.763398
     -3.098098     27.568425     27.568425     55.136850
     -3.088088     34.736205     34.736205     69.472411
     -3.078078     40.858242     40.858242     81.716485
     -3.068068     45.016934     45.016934     90.033867
     -3.058058     46.706670     46.706670     93.413340
     -3.048048     46.002754     46.002754     92.005508
     -3.038038     43.504280     43.504280     87.008561
     -3.028028     40.071122     40.071122     80.142243
     -3.018018     36.484190     36.484190     72.968380
     -3.008008     33.196133     33.196133     66.392266
     -2.997998     30.283283     30.283283     60.566565
     -2.987988     27.596014     27.596014     55.192028
     -2.977978     25.003180     25.003180     50.006360
     -2.967968     22.591278     22.591278     45.182557
     -2.957958     20.718846     20.718846     41.437692
     -2.947948     19.907712     19.907712     39.815425
     -2.937938     20.628618     20.628618     41.257237
     -2.927928     23.077942     23.077942     46.155883
     -2.917918     27.038546     27.038546     54.077091
     -2.907908     31.881910     31.881910     63.763821
     -2.897898     36.716713     36.716713     73.433426
     -2.887888     40.636112     40.636112     81.272224
     -2.877878     42.977448     42.977448     85.954896
     -2.867868     43.498897     43.498897     86.997795
     -2.857858     42.406155     42.406155     84.812309
     -2.847848     40.221685     40.221685     80.443369
     -2.837838     37.555589     37.555589     75.111179
     -2.827828     34.879187     34.879187     69.758374
     -2.817818     32.397590     32.397590     64.795180
     -2.807808     30.066458     30.066458     60.132915
     -2.797798     27.725774     27.725774     55.451548
     -2.787788     25.267415     25.267415     50.534829
     -2.777778     22.742884     22.742884     45.485767
     -2.767768     20.357939     20.357939     40.715878
     -2.757758     18.368825     18.368825     36.737649
     -2.747748     16.951612     16.951612     33.903224
     -2.737738     16.128586     16.128586     32.257173
     -2.727728     15.796035     15.796035     31.592070
     -2.717718     15.830112     15.830112     31.660223
     -2.707708     16.194437     16.194437     32.388874
     -2.697698     16.970411     16.970411     33.940821
     -2.687688     18.283035     18.283035     36.566070
     -2.677678     20.168873     20.168873     40.337746
     -2.667668     22.478507     22.478507     44.957014
     -2.657658     24.889525     24.889525     49.779050
     -2.647648     27.034850     27.034850     54.069700
     -2.637638     28.672076     28.672076     57.344152
     -2.627628     29.788203     29.788203     59.576407
     -2.617618     30.575093     30.575093     61.150186
     -2.607608     31.296043     31.296043     62.592085
     -2.597598     32.131517     32.131517     64.263034
     -2.587588     33.093974     33.093974     66.187948
     -2.577578     34.041815     34.041815     68.083630
     -2.567568     34.753095     34.753095     69.506190
     -2.557558     34.996045     34.996045     69.992089
     -2.547548     34.566648     34.566648     69.133296
     -2.537538     33.313392     33.313392     66.626784
     -2.527528     31.184837     31.184837     62.369674
     -2.517518     28.302699     28.302699     56.605398
     -2.507508     25.015557     25.015557     50.031114
     -2.497497     21.873737     21.873737     43.747475
     -2.487487     19.502118     19.502118     39.004236
     -2.477477     18.409437     18.409437     36.818875
     -2.467467     18.816548     18.816548     37.633096
     -2.457457     20.584342     20.584342     41.168684
     -2.447447     23.277755     23.277755     46.555510
     -2.437437     26.340198     26.340198     52.680395
     -2.427427     29.302478     29.302478     58.604956
     -2.417417     31.933667     31.933667     63.867334
     -2.407407     34.265999     34.265999     68.531998
     -2.397397     36.482593     36.482593     72.965186
     -2.387387     38.721567     38.721567     77.443134
     -2.377377     40.893799     40.893799     81.787599
     -2.367367     42.612273     42.612273     85.224546
     -2.357357     43.284075     43.284075     86.568149
     -2.347347     42.338938     42.338938     84.677876
     -2.337337     39.496267     39.496267     78.992535
     -2.327327     34.945483     34.945483     69.890967
     -2.317317     29.352115     29.352115     58.704230
     -2.307307     23.686412     23.686412     47.372824
     -2.297297     18.953472     18.953472     37.906943
     -2.287287     15.937321     15.937321     31.874642
     -2.277277     15.044548     15.044548     30.089096
     -2.267267     16.273764     16.273764     32.547529
     -2.257257     19.285464     19.285464     38.570928
     -2.247247     23.524536     23.524536     47.049073
     -2.237237     28.350598     28.350598     56.701196
     -2.227227     33.144320     33.144320     66.288640
     -2.217217     37.372449     37.372449     74.744898
     -2.207207     40.610788     40.610788     81.221576
     -2.197197     42.542780     42.542780     85.085559
     -2.187187     42.962867     42.962867     85.925734
     -2.177177     41.806327     41.806327     83.612653
     -2.167167     39.198672     39.198672     78.397344
     -2.157157     35.485120     35.485120     70.970240
     -2.147147     31.191835     31.191835     62.383671
     -2.137137     26.901603     26.901603     53.803206
     -2.127127     23.082696     23.082696     46.165392
     -2.117117     19.951393     19.951393     39.902787
     -2.107107     17.441112     17.441112     34.882224
     -2.097097     15.294253     15.294253     30.588505
     -2.087087     13.223868     13.223868     26.447737
     -2.077077     11.057717     11.057717     22.115433
     -2.067067      8.797484      8.797484     17.594968
     -2.057057      6.582146      6.582146     13.164292
     -2.047047      4.596311      4.596311      9.192621
     -2.037037      2.981895      2.981895      5.963790
     -2.027027      1.792850      1.792850      3.585699
     -2.017017      0.999039      0.999039      1.998078
     -2.007007      0.520466      0.520466      1.040932
     -1.996997      0.267325      0.267325      0.534649
     -1.986987      0.170127      0.170127      0.340254
     -1.976977      0.196337      0.196337      0.392673
     -1.966967      0.357074      0.357074      0.714149
     -1.956957      0.707500      0.707500      1.415000
     -1.946947      1.340216      1.340216      2.680431
     -1.936937      2.367263      2.367263      4.734525
     -1.926927      3.887264      3.887264      7.774527
     -1.916917      5.941334      5.941334     11.882668
     -1.906907      8.471478      8.471478     16.942955
     -1.896897     11.301117     11.301117     22.602234
     -1.886887     14.152850     14.152850     28.305701
     -1.876877     16.703651     16.703651     33.407301
     -1.866867     18.661002     18.661002     37.322005
     -1.856857     19.835085     19.835085     39.670169
     -1.846847     20.185227     20.185227     40.370454
     -1.836837     19.827824     19.827824     39.655648
     -1.826827     19.001348     19.001348     38.002696
     -1.816817     17.992969     17.992969     35.985938
     -1.806807     17.045453     17.045453     34.090905
     -1.796797     16.279683     16.279683     32.559366
     -1.786787     15.672621     15.672621     31.345241
     -1.776777     15.108914     15.108914     30.217828
     -1.766767     14.482034     14.482034     28.964068
     -1.756757     13.785094     13.785094     27.570188
     -1.746747     13.131880     13.131880     26.263761
     -1.736737     12.690687     12.690687     25.381375
     -1.726727     12.571257     12.571257     25.142513
     -1.716717     12.738816     12.738816     25.477632
     -1.706707     13.014708     13.014708     26.029415
     -1.696697     13.168831     13.168831     26.337661
     -1.686687     13.050113     13.050113     26.100225
     -1.676677     12.675285     12.675285     25.350571
     -1.666667     12.219824     12.219824     24.439647
     -1.656657     11.913236     11.913236     23.826472
     -1.646647     11.898147     11.898147     23.796293
     -1.636637     12.134628     12.134628     24.269255
     -1.626627     12.405968     12.405968     24.811936
