# EIG2DOS: Utility for SIESTA to obtain the electronic density of states
#  E. Artacho, Apr 1999, A. Garcia, Apr 2012
#  Nick R. Papior, Feb 2017
# ------------------------------------------
# Eigenvalues calculated from a non-polarized calculation
# Eigenvalues read from siesta.EIG
# Kpoint weights read from siesta.KP
# Using smearing parameter:   0.0500
# Using 1000 points in the energy range
# Selected bands: 1 to: 2981
# Emin, Emax in file for selected band(s):    -27.1160656    218.3417090
# Nbands, Nspin, Nk   =   2981     1     1
# E_F                 =    -4.2633 eV --> (shifted to ZERO)
# Broadening          =     0.0500 eV
#
#        E            N(up)  (=)   N(down)         Ntot
     -5.000000     36.891720     36.891720     73.783440
     -4.989990     39.622225     39.622225     79.244450
     -4.979980     41.722182     41.722182     83.444363
     -4.969970     42.810741     42.810741     85.621482
     -4.959960     42.677331     42.677331     85.354662
     -4.949950     41.327735     41.327735     82.655469
     -4.939940     38.984952     38.984952     77.969905
     -4.929930     36.059778     36.059778     72.119556
     -4.919920     33.109095     33.109095     66.218191
     -4.909910     30.786688     30.786688     61.573376
     -4.899900     29.770205     29.770205     59.540409
     -4.889890     30.637651     30.637651     61.275302
     -4.879880     33.686997     33.686997     67.373994
     -4.869870     38.744299     38.744299     77.488598
     -4.859860     45.058456     45.058456     90.116913
     -4.849850     51.385443     51.385443    102.770886
     -4.839840     56.293693     56.293693    112.587387
     -4.829830     58.602039     58.602039    117.204078
     -4.819820     57.767275     57.767275    115.534551
     -4.809810     54.041630     54.041630    108.083261
     -4.799800     48.330929     48.330929     96.661858
     -4.789790     41.835677     41.835677     83.671353
     -4.779780     35.653769     35.653769     71.307538
     -4.769770     30.511171     30.511171     61.022342
     -4.759760     26.689908     26.689908     53.379815
     -4.749750     24.115636     24.115636     48.231272
     -4.739740     22.512894     22.512894     45.025789
     -4.729730     21.545747     21.545747     43.091493
     -4.719720     20.903893     20.903893     41.807785
     -4.709710     20.334302     20.334302     40.668604
     -4.699700     19.641341     19.641341     39.282683
     -4.689690     18.685457     18.685457     37.370913
     -4.679680     17.403978     17.403978     34.807957
     -4.669670     15.858262     15.858262     31.716524
     -4.659660     14.286077     14.286077     28.572153
     -4.649650     13.121451     13.121451     26.242903
     -4.639640     12.947422     12.947422     25.894844
     -4.629630     14.369238     14.369238     28.738476
     -4.619620     17.826480     17.826480     35.652960
     -4.609610     23.393068     23.393068     46.786135
     -4.599600     30.637568     30.637568     61.275136
     -4.589590     38.621229     38.621229     77.242458
     -4.579580     46.081411     46.081411     92.162821
     -4.569570     51.778269     51.778269    103.556539
     -4.559560     54.896634     54.896634    109.793269
     -4.549550     55.341953     55.341953    110.683906
     -4.539540     53.791035     53.791035    107.582070
     -4.529530     51.455465     51.455465    102.910929
     -4.519520     49.641430     49.641430     99.282861
     -4.509510     49.279697     49.279697     98.559395
     -4.499499     50.610124     50.610124    101.220248
     -4.489489     53.135236     53.135236    106.270471
     -4.479479     55.842708     55.842708    111.685415
     -4.469469     57.589727     57.589727    115.179453
     -4.459459     57.488892     57.488892    114.977783
     -4.449449     55.155403     55.155403    110.310806
     -4.439439     50.753318     50.753318    101.506636
     -4.429429     44.871369     44.871369     89.742737
     -4.419419     38.318544     38.318544     76.637088
     -4.409409     31.931696     31.931696     63.863393
     -4.399399     26.443414     26.443414     52.886828
     -4.389389     22.405904     22.405904     44.811808
     -4.379379     20.141789     20.141789     40.283579
     -4.369369     19.705770     19.705770     39.411540
     -4.359359     20.871739     20.871739     41.743479
     -4.349349     23.176176     23.176176     46.352352
     -4.339339     26.032269     26.032269     52.064537
     -4.329329     28.890124     28.890124     57.780248
     -4.319319     31.385416     31.385416     62.770832
     -4.309309     33.416986     33.416986     66.833973
     -4.299299     35.125001     35.125001     70.250003
     -4.289289     36.783902     36.783902     73.567803
     -4.279279     38.653259     38.653259     77.306518
     -4.269269     40.835672     40.835672     81.671345
     -4.259259     43.184025     43.184025     86.368050
     -4.249249     45.292434     45.292434     90.584868
     -4.239239     46.592474     46.592474     93.184947
     -4.229229     46.544703     46.544703     93.089406
     -4.219219     44.864968     44.864968     89.729936
     -4.209209     41.684172     41.684172     83.368344
     -4.199199     37.549604     37.549604     75.099208
     -4.189189     33.247749     33.247749     66.495498
     -4.179179     29.525516     29.525516     59.051031
     -4.169169     26.845203     26.845203     53.690406
     -4.159159     25.288229     25.288229     50.576458
     -4.149149     24.638413     24.638413     49.276827
     -4.139139     24.582086     24.582086     49.164171
     -4.129129     24.911136     24.911136     49.822273
     -4.119119     25.624287     25.624287     51.248574
     -4.109109     26.877562     26.877562     53.755123
     -4.099099     28.810252     28.810252     57.620504
     -4.089089     31.339251     31.339251     62.678502
     -4.079079     34.043387     34.043387     68.086773
     -4.069069     36.227128     36.227128     72.454255
     -4.059059     37.162429     37.162429     74.324857
     -4.049049     36.401712     36.401712     72.803425
     -4.039039     34.000649     34.000649     68.001298
     -4.029029     30.529773     30.529773     61.059546
     -4.019019     26.869892     26.869892     53.739784
     -4.009009     23.903830     23.903830     47.807660
     -3.998999     22.260547     22.260547     44.521094
     -3.988989     22.215181     22.215181     44.430362
     -3.978979     23.744444     23.744444     47.488887
     -3.968969     26.654903     26.654903     53.309805
     -3.958959     30.690254     30.690254     61.380509
     -3.948949     35.575230     35.575230     71.150459
     -3.938939     41.017858     41.017858     82.035715
     -3.928929     46.717632     46.717632     93.435263
     -3.918919     52.401596     52.401596    104.803193
     -3.908909     57.863915     57.863915    115.727831
     -3.898899     62.962139     62.962139    125.924279
     -3.888889     67.547272     67.547272    135.094545
     -3.878879     71.357914     71.357914    142.715828
     -3.868869     73.950695     73.950695    147.901390
     -3.858859     74.736789     74.736789    149.473578
     -3.848849     73.143942     73.143942    146.287885
     -3.838839     68.852280     68.852280    137.704559
     -3.828829     62.000946     62.000946    124.001893
     -3.818819     53.262381     53.262381    106.524762
     -3.808809     43.734632     43.734632     87.469265
     -3.798799     34.681975     34.681975     69.363951
     -3.788789     27.217993     27.217993     54.435986
     -3.778779     22.042410     22.042410     44.084820
     -3.768769     19.311426     19.311426     38.622851
     -3.758759     18.664931     18.664931     37.329861
     -3.748749     19.382844     19.382844     38.765687
     -3.738739     20.614218     20.614218     41.228437
     -3.728729     21.616608     21.616608     43.233216
     -3.718719     21.950226     21.950226     43.900452
     -3.708709     21.583948     21.583948     43.167896
     -3.698699     20.886584     20.886584     41.773169
     -3.688689     20.499417     20.499417     40.998834
     -3.678679     21.116017     21.116017     42.232034
     -3.668669     23.228202     23.228202     46.456405
     -3.658659     26.920281     26.920281     53.840561
     -3.648649     31.790841     31.790841     63.581681
     -3.638639     37.042247     37.042247     74.084493
     -3.628629     41.711478     41.711478     83.422955
     -3.618619     44.952949     44.952949     89.905898
     -3.608609     46.261801     46.261801     92.523602
     -3.598599     45.561056     45.561056     91.122111
     -3.588589     43.146554     43.146554     86.293108
     -3.578579     39.543897     39.543897     79.087794
     -3.568569     35.347672     35.347672     70.695344
     -3.558559     31.088884     31.088884     62.177769
     -3.548549     27.144555     27.144555     54.289110
     -3.538539     23.691280     23.691280     47.382559
     -3.528529     20.709709     20.709709     41.419419
     -3.518519     18.046445     18.046445     36.092889
     -3.508509     15.519976     15.519976     31.039953
     -3.498498     13.030498     13.030498     26.060997
     -3.488488     10.624962     10.624962     21.249923
     -3.478478      8.489894      8.489894     16.979789
     -3.468468      6.880906      6.880906     13.761811
     -3.458458      6.024114      6.024114     12.048229
     -3.448448      6.028000      6.028000     12.055999
     -3.438438      6.831707      6.831707     13.663413
     -3.428428      8.202679      8.202679     16.405358
     -3.418418      9.788259      9.788259     19.576519
     -3.408408     11.215921     11.215921     22.431842
     -3.398398     12.218630     12.218630     24.437261
     -3.388388     12.742032     12.742032     25.484064
     -3.378378     12.985698     12.985698     25.971396
     -3.368368     13.352768     13.352768     26.705537
     -3.358358     14.322295     14.322295     28.644590
     -3.348348     16.291927     16.291927     32.583854
     -3.338338     19.444339     19.444339     38.888677
     -3.328328     23.669874     23.669874     47.339749
     -3.318318     28.551728     28.551728     57.103455
     -3.308308     33.410069     33.410069     66.820137
     -3.298298     37.407873     37.407873     74.815747
     -3.288288     39.721586     39.721586     79.443172
     -3.278278     39.754329     39.754329     79.508658
     -3.268268     37.327236     37.327236     74.654472
     -3.258258     32.762972     32.762972     65.525944
     -3.248248     26.806823     26.806823     53.613645
     -3.238238     20.406720     20.406720     40.813441
     -3.228228     14.445958     14.445958     28.891915
     -3.218218      9.541467      9.541467     19.082934
     -3.208208      5.976189      5.976189     11.952377
     -3.198198      3.760281      3.760281      7.520561
     -3.188188      2.760184      2.760184      5.520369
     -3.178178      2.822310      2.822310      5.644621
     -3.168168      3.843053      3.843053      7.686106
     -3.158158      5.775299      5.775299     11.550598
     -3.148148      8.592098      8.592098     17.184196
     -3.138138     12.240242     12.240242     24.480484
     -3.128128     16.609690     16.609690     33.219381
     -3.118118     21.526289     21.526289     43.052577
     -3.108108     26.757554     26.757554     53.515107
     -3.098098     32.017017     32.017017     64.034035
     -3.088088     36.964576     36.964576     73.929153
     -3.078078     41.216951     41.216951     82.433902
     -3.068068     44.385785     44.385785     88.771569
     -3.058058     46.144049     46.144049     92.288097
     -3.048048     46.297091     46.297091     92.594182
     -3.038038     44.825249     44.825249     89.650497
     -3.028028     41.880787     41.880787     83.761575
     -3.018018     37.750429     37.750429     75.500857
     -3.008008     32.811876     32.811876     65.623751
     -2.997998     27.505754     27.505754     55.011507
     -2.987988     22.322297     22.322297     44.644594
     -2.977978     17.785228     17.785228     35.570457
     -2.967968     14.415451     14.415451     28.830903
     -2.957958     12.669740     12.669740     25.339479
     -2.947948     12.862213     12.862213     25.724426
     -2.937938     15.083142     15.083142     30.166285
     -2.927928     19.134125     19.134125     38.268250
     -2.917918     24.504772     24.504772     49.009545
     -2.907908     30.418654     30.418654     60.837307
     -2.897898     35.963899     35.963899     71.927798
     -2.887888     40.291918     40.291918     80.583837
     -2.877878     42.828009     42.828009     85.656019
     -2.867868     43.414722     43.414722     86.829445
     -2.857858     42.323175     42.323175     84.646349
     -2.847848     40.119233     40.119233     80.238467
     -2.837838     37.437119     37.437119     74.874238
     -2.827828     34.757608     34.757608     69.515215
     -2.817818     32.285749     32.285749     64.571498
     -2.807808     29.972763     29.972763     59.945526
     -2.797798     27.654101     27.654101     55.308202
     -2.787788     25.219283     25.219283     50.438566
     -2.777778     22.719401     22.719401     45.438803
     -2.767768     20.359938     20.359938     40.719877
     -2.757758     18.395537     18.395537     36.791074
     -2.747748     16.999853     16.999853     33.999706
     -2.737738     16.194358     16.194358     32.388715
     -2.727728     15.878510     15.878510     31.757020
     -2.717718     15.935379     15.935379     31.870757
     -2.707708     16.335261     16.335261     32.670521
     -2.697698     17.159969     17.159969     34.319938
     -2.687688     18.524604     18.524604     37.049208
     -2.677678     20.447222     20.447222     40.894444
     -2.667668     22.759386     22.759386     45.518772
     -2.657658     25.129804     25.129804     50.259608
     -2.647648     27.199436     27.199436     54.398872
     -2.637638     28.748883     28.748883     57.497765
     -2.627628     29.792824     29.792824     59.585648
     -2.617618     30.542653     30.542653     61.085307
     -2.607608     31.265129     31.265129     62.530258
     -2.597598     32.128968     32.128968     64.257937
     -2.587588     33.127271     33.127271     66.254543
     -2.577578     34.100069     34.100069     68.200137
     -2.567568     34.812990     34.812990     69.625979
     -2.557558     35.028706     35.028706     70.057413
     -2.547548     34.544172     34.544172     69.088345
     -2.537538     33.216032     33.216032     66.432064
     -2.527528     31.008999     31.008999     62.017999
     -2.517518     28.067001     28.067001     56.134002
     -2.507508     24.760568     24.760568     49.521136
     -2.497497     21.652927     21.652927     43.305854
     -2.487487     19.366075     19.366075     38.732150
     -2.477477     18.389434     18.389434     36.778867
     -2.467467     18.914369     18.914369     37.828738
     -2.457457     20.772568     20.772568     41.545136
     -2.447447     23.510038     23.510038     47.020075
     -2.437437     26.566901     26.566901     53.133802
     -2.427427     29.485251     29.485251     58.970502
     -2.417417     32.053627     32.053627     64.107254
     -2.407407     34.323503     34.323503     68.647006
     -2.397397     36.490182     36.490182     72.980364
     -2.387387     38.693963     38.693963     77.387926
     -2.377377     40.839218     40.839218     81.678435
     -2.367367     42.528278     42.528278     85.056556
     -2.357357     43.159443     43.159443     86.318887
     -2.347347     42.160766     42.160766     84.321532
     -2.337337     39.259189     39.259189     78.518379
     -2.327327     34.658479     34.658479     69.316959
     -2.317317     29.039220     29.039220     58.078439
     -2.307307     23.380782     23.380782     46.761564
     -2.297297     18.687909     18.687909     37.375818
     -2.287287     15.736025     15.736025     31.472050
     -2.277277     14.919588     14.919588     29.839175
     -2.267267     16.226592     16.226592     32.453184
     -2.257257     19.311023     19.311023     38.622045
     -2.247247     23.614693     23.614693     47.229385
     -2.237237     28.494883     28.494883     56.989765
     -2.227227     33.328177     33.328177     66.656354
     -2.217217     37.575077     37.575077     75.150154
     -2.207207     40.805207     40.805207     81.610415
     -2.197197     42.699700     42.699700     85.399401
     -2.187187     43.057814     43.057814     86.115627
     -2.177177     41.827310     41.827310     83.654620
     -2.167167     39.150722     39.150722     78.301445
     -2.157157     35.388898     35.388898     70.777797
     -2.147147     31.076101     31.076101     62.152202
     -2.137137     26.792410     26.792410     53.584820
     -2.127127     22.994103     22.994103     45.988205
     -2.117117     19.881987     19.881987     39.763974
     -2.107107     17.377764     17.377764     34.755529
     -2.097097     15.220787     15.220787     30.441574
     -2.087087     13.129932     13.129932     26.259865
     -2.077077     10.943521     10.943521     21.887042
     -2.067067      8.672791      8.672791     17.345582
     -2.057057      6.461111      6.461111     12.922222
     -2.047047      4.491519      4.491519      8.983038
     -2.037037      2.900495      2.900495      5.800990
     -2.027027      1.735846      1.735846      3.471692
     -2.017017      0.963011      0.963011      1.926021
     -2.007007      0.500188      0.500188      1.000376
     -1.996997      0.258047      0.258047      0.516095
     -1.986987      0.169015      0.169015      0.338031
     -1.976977      0.203167      0.203167      0.406334
     -1.966967      0.374438      0.374438      0.748875
     -1.956957      0.740540      0.740540      1.481080
     -1.946947      1.395614      1.395614      2.791228
     -1.936937      2.451133      2.451133      4.902267
     -1.926927      4.002021      4.002021      8.004041
     -1.916917      6.082446      6.082446     12.164892
     -1.906907      8.625764      8.625764     17.251528
     -1.896897     11.448251     11.448251     22.896502
     -1.886887     14.270618     14.270618     28.541237
     -1.876877     16.775772     16.775772     33.551544
     -1.866867     18.685116     18.685116     37.370232
     -1.856857     19.828977     19.828977     39.657954
     -1.846847     20.191465     20.191465     40.382929
     -1.836837     19.919231     19.919231     39.838463
     -1.826827     19.290161     19.290161     38.580322
     -1.816817     18.643283     18.643283     37.286566
     -1.806807     18.281718     18.281718     36.563436
     -1.796797     18.375991     18.375991     36.751982
     -1.786787     18.904118     18.904118     37.808235
     -1.776777     19.655254     19.655254     39.310507
     -1.766767     20.297062     20.297062     40.594125
     -1.756757     20.479905     20.479905     40.959809
     -1.746747     19.940141     19.940141     39.880283
     -1.736737     18.572641     18.572641     37.145282
     -1.726727     16.458390     16.458390     32.916781
     -1.716717     13.846485     13.846485     27.692970
     -1.706707     11.098697     11.098697     22.197395
     -1.696697      8.611775      8.611775     17.223551
     -1.686687      6.736839      6.736839     13.473678
     -1.676677      5.713008      5.713008     11.426016
     -1.666667      5.624083      5.624083     11.248166
     -1.656657      6.379861      6.379861     12.759722
     -1.646647      7.724038      7.724038     15.448077
     -1.636637      9.275924      9.275924     18.551848
     -1.626627     10.612188     10.612188     21.224377
