# EIG2DOS: Utility for SIESTA to obtain the electronic density of states
#  E. Artacho, Apr 1999, A. Garcia, Apr 2012
#  Nick R. Papior, Feb 2017
# ------------------------------------------
# Eigenvalues calculated from a non-polarized calculation
# Eigenvalues read from siesta.EIG
# Kpoint weights read from siesta.KP
# Using smearing parameter:   0.0500
# Using 1000 points in the energy range
# Selected bands: 1 to: 2981
# Emin, Emax in file for selected band(s):    -27.0316983    218.3064260
# Nbands, Nspin, Nk   =   2981     1     1
# E_F                 =    -4.3028 eV --> (shifted to ZERO)
# Broadening          =     0.0500 eV
#
#        E            N(up)  (=)   N(down)         Ntot
     -5.000000     42.613187     42.613187     85.226375
     -4.989990     47.419904     47.419904     94.839808
     -4.979980     51.015330     51.015330    102.030661
     -4.969970     52.881923     52.881923    105.763847
     -4.959960     52.753112     52.753112    105.506224
     -4.949950     50.699135     50.699135    101.398270
     -4.939940     47.121616     47.121616     94.243232
     -4.929930     42.670876     42.670876     85.341752
     -4.919920     38.131552     38.131552     76.263103
     -4.909910     34.318749     34.318749     68.637498
     -4.899900     31.992631     31.992631     63.985261
     -4.889890     31.762699     31.762699     63.525399
     -4.879880     33.949963     33.949963     67.899926
     -4.869870     38.420241     38.420241     76.840482
     -4.859860     44.468373     44.468373     88.936747
     -4.849850     50.863961     50.863961    101.727922
     -4.839840     56.119526     56.119526    112.239053
     -4.829830     58.923209     58.923209    117.846417
     -4.819820     58.563141     58.563141    117.126282
     -4.809810     55.145540     55.145540    110.291080
     -4.799800     49.503609     49.503609     99.007217
     -4.789790     42.853790     42.853790     85.707580
     -4.779780     36.376089     36.376089     72.752178
     -4.769770     30.903483     30.903483     61.806965
     -4.759760     26.812533     26.812533     53.625066
     -4.749750     24.089496     24.089496     48.178992
     -4.739740     22.479005     22.479005     44.958011
     -4.729730     21.627109     21.627109     43.254219
     -4.719720     21.175727     21.175727     42.351455
     -4.709710     20.808604     20.808604     41.617209
     -4.699700     20.269715     20.269715     40.539429
     -4.689690     19.377413     19.377413     38.754826
     -4.679680     18.050218     18.050218     36.100436
     -4.669670     16.346338     16.346338     32.692675
     -4.659660     14.502198     14.502198     29.004397
     -4.649650     12.943516     12.943516     25.887032
     -4.639640     12.243771     12.243771     24.487542
     -4.629630     13.019031     13.019031     26.038061
     -4.619620     15.768137     15.768137     31.536275
     -4.609610     20.688769     20.688769     41.377539
     -4.599600     27.521888     27.521888     55.043775
     -4.589590     35.493383     35.493383     70.986766
     -4.579580     43.414820     43.414820     86.829640
     -4.569570     49.958367     49.958367     99.916734
     -4.559560     54.041191     54.041191    108.082383
     -4.549550     55.181355     55.181355    110.362709
     -4.539540     53.671281     53.671281    107.342561
     -4.529530     50.479457     50.479457    100.958915
     -4.519520     46.909114     46.909114     93.818227
     -4.509510     44.151181     44.151181     88.302362
     -4.499499     42.909933     42.909933     85.819866
     -4.489489     43.236008     43.236008     86.472017
     -4.479479     44.602974     44.602974     89.205948
     -4.469469     46.164085     46.164085     92.328171
     -4.459459     47.070509     47.070509     94.141018
     -4.449449     46.735572     46.735572     93.471145
     -4.439439     44.975363     44.975363     89.950727
     -4.429429     42.013293     42.013293     84.026585
     -4.419419     38.378775     38.378775     76.757551
     -4.409409     34.747608     34.747608     69.495215
     -4.399399     31.769167     31.769167     63.538333
     -4.389389     29.915784     29.915784     59.831569
     -4.379379     29.381712     29.381712     58.763424
     -4.369369     30.052888     30.052888     60.105776
     -4.359359     31.557395     31.557395     63.114790
     -4.349349     33.385827     33.385827     66.771653
     -4.339339     35.046515     35.046515     70.093030
     -4.329329     36.205824     36.205824     72.411648
     -4.319319     36.768927     36.768927     73.537855
     -4.309309     36.880546     36.880546     73.761092
     -4.299299     36.855129     36.855129     73.710258
     -4.289289     37.066128     37.066128     74.132256
     -4.279279     37.826338     37.826338     75.652675
     -4.269269     39.281780     39.281780     78.563559
     -4.259259     41.335140     41.335140     82.670281
     -4.249249     43.620129     43.620129     87.240257
     -4.239239     45.555821     45.555821     91.111642
     -4.229229     46.497457     46.497457     92.994914
     -4.219219     45.955559     45.955559     91.911118
     -4.209209     43.799608     43.799608     87.599216
     -4.199199     40.341398     40.341398     80.682795
     -4.189189     36.238545     36.238545     72.477090
     -4.179179     32.253096     32.253096     64.506192
     -4.169169     28.982886     28.982886     57.965771
     -4.159159     26.696806     26.696806     53.393611
     -4.149149     25.341590     25.341590     50.683179
     -4.139139     24.692065     24.692065     49.384130
     -4.129129     24.547624     24.547624     49.095248
     -4.119119     24.866155     24.866155     49.732311
     -4.109109     25.767079     25.767079     51.534159
     -4.099099     27.402717     27.402717     54.805434
     -4.089089     29.765458     29.765458     59.530916
     -4.079079     32.540755     32.540755     65.081511
     -4.069069     35.107707     35.107707     70.215414
     -4.059059     36.720463     36.720463     73.440926
     -4.049049     36.801636     36.801636     73.603272
     -4.039039     35.202930     35.202930     70.405861
     -4.029029     32.293746     32.293746     64.587491
     -4.019019     28.830667     28.830667     57.661335
     -4.009009     25.682596     25.682596     51.365192
     -3.998999     23.557710     23.557710     47.115421
     -3.988989     22.855785     22.855785     45.711570
     -3.978979     23.676551     23.676551     47.353103
     -3.968969     25.921857     25.921857     51.843714
     -3.958959     29.397676     29.397676     58.795351
     -3.948949     33.860903     33.860903     67.721805
     -3.938939     39.022328     39.022328     78.044657
     -3.928929     44.554746     44.554746     89.109492
     -3.918919     50.138372     50.138372    100.276744
     -3.908909     55.526082     55.526082    111.052165
     -3.898899     60.574609     60.574609    121.149217
     -3.888889     65.197572     65.197572    130.395143
     -3.878879     69.247994     69.247994    138.495989
     -3.868869     72.396530     72.396530    144.793059
     -3.858859     74.095885     74.095885    148.191769
     -3.848849     73.690367     73.690367    147.380733
     -3.838839     70.653641     70.653641    141.307281
     -3.828829     64.858151     64.858151    129.716303
     -3.818819     56.744624     56.744624    113.489248
     -3.808809     47.295792     47.295792     94.591584
     -3.798799     37.808549     37.808549     75.617097
     -3.788789     29.551886     29.551886     59.103772
     -3.778779     23.442550     23.442550     46.885100
     -3.768769     19.848653     19.848653     39.697305
     -3.758759     18.567008     18.567008     37.134016
     -3.748749     18.953946     18.953946     37.907892
     -3.738739     20.150374     20.150374     40.300747
     -3.728729     21.333168     21.333168     42.666336
     -3.718719     21.933650     21.933650     43.867300
     -3.708709     21.777345     21.777345     43.554691
     -3.698699     21.113862     21.113862     42.227725
     -3.688689     20.524903     20.524903     41.049807
     -3.678679     20.725856     20.725856     41.451712
     -3.668669     22.309971     22.309971     44.619941
     -3.658659     25.513340     25.513340     51.026679
     -3.648649     30.086809     30.086809     60.173619
     -3.638639     35.333033     35.333033     70.666065
     -3.628629     40.304616     40.304616     80.609233
     -3.618619     44.088332     44.088332     88.176664
     -3.608609     46.060749     46.060749     92.121499
     -3.598599     46.019690     46.019690     92.039379
     -3.588589     44.163287     44.163287     88.326573
     -3.578579     40.959968     40.959968     81.919935
     -3.568569     36.984190     36.984190     73.968380
     -3.558559     32.775598     32.775598     65.551196
     -3.548549     28.742623     28.742623     57.485245
     -3.538539     25.110333     25.110333     50.220667
     -3.528529     21.914324     21.914324     43.828648
     -3.518519     19.047017     19.047017     38.094035
     -3.508509     16.349957     16.349957     32.699914
     -3.498498     13.719992     13.719992     27.439984
     -3.488488     11.182857     11.182857     22.365714
     -3.478478      8.901283      8.901283     17.802566
     -3.468468      7.118343      7.118343     14.236687
     -3.458458      6.065872      6.065872     12.131744
     -3.448448      5.875651      5.875651     11.751302
     -3.438438      6.521072      6.521072     13.042145
     -3.428428      7.803781      7.803781     15.607563
     -3.418418      9.391781      9.391781     18.783561
     -3.408408     10.907392     10.907392     21.814783
     -3.398398     12.047305     12.047305     24.094610
     -3.388388     12.695902     12.695902     25.391803
     -3.378378     12.983387     12.983387     25.966775
     -3.368368     13.256570     13.256570     26.513141
     -3.358358     13.968562     13.968562     27.937124
     -3.348348     15.530960     15.530960     31.061920
     -3.338338     18.183187     18.183187     36.366374
     -3.328328     21.913514     21.913514     43.827028
     -3.318318     26.435081     26.435081     52.870163
     -3.308308     31.205688     31.205688     62.411376
     -3.298298     35.490736     35.490736     70.981473
     -3.288288     38.484012     38.484012     76.968024
     -3.278278     39.490359     39.490359     78.980718
     -3.268268     38.131403     38.131403     76.262806
     -3.258258     34.491885     34.491885     68.983771
     -3.248248     29.125036     29.125036     58.250072
     -3.238238     22.895383     22.895383     45.790765
     -3.228228     16.721322     16.721322     33.442645
     -3.218218     11.329753     11.329753     22.659506
     -3.208208      7.118692      7.118692     14.237383
     -3.198198      4.158387      4.158387      8.316773
     -3.188188      2.294566      2.294566      4.589132
     -3.178178      1.287032      1.287032      2.574064
     -3.168168      0.927491      0.927491      1.854981
     -3.158158      1.110621      1.110621      2.221241
     -3.148148      1.857171      1.857171      3.714341
     -3.138138      3.296664      3.296664      6.593328
     -3.128128      5.615404      5.615404     11.230807
     -3.118118      8.974973      8.974973     17.949945
     -3.108108     13.415240     13.415240     26.830480
     -3.098098     18.771252     18.771252     37.542503
     -3.088088     24.642772     24.642772     49.285543
     -3.078078     30.444748     30.444748     60.889496
     -3.068068     35.533588     35.533588     71.067176
     -3.058058     39.363131     39.363131     78.726262
     -3.048048     41.603016     41.603016     83.206031
     -3.038038     42.170821     42.170821     84.341641
     -3.028028     41.180912     41.180912     82.361823
     -3.018018     38.862882     38.862882     77.725764
     -3.008008     35.513221     35.513221     71.026442
     -2.997998     31.506222     31.506222     63.012444
     -2.987988     27.333530     27.333530     54.667060
     -2.977978     23.610616     23.610616     47.221232
     -2.967968     21.005919     21.005919     42.011838
     -2.957958     20.098978     20.098978     40.197957
     -2.947948     21.219938     21.219938     42.439877
     -2.937938     24.335808     24.335808     48.671617
     -2.927928     29.027345     29.027345     58.054691
     -2.917918     34.563774     34.563774     69.127547
     -2.907908     40.051929     40.051929     80.103859
     -2.897898     44.621150     44.621150     89.242300
     -2.887888     47.602265     47.602265     95.204530
     -2.877878     48.661411     48.661411     97.322821
     -2.867868     47.854887     47.854887     95.709775
     -2.857858     45.584363     45.584363     91.168725
     -2.847848     42.457319     42.457319     84.914637
     -2.837838     39.092093     39.092093     78.184186
     -2.827828     35.934966     35.934966     71.869931
     -2.817818     33.159543     33.159543     66.319085
     -2.807808     30.687312     30.687312     61.374624
     -2.797798     28.313532     28.313532     56.627065
     -2.787788     25.871841     25.871841     51.743681
     -2.777778     23.352721     23.352721     46.705442
     -2.767768     20.917714     20.917714     41.835429
     -2.757758     18.810141     18.810141     37.620282
     -2.747748     17.221808     17.221808     34.443617
     -2.737738     16.199332     16.199332     32.398664
     -2.727728     15.647598     15.647598     31.295196
     -2.717718     15.425621     15.425621     30.851242
     -2.707708     15.469367     15.469367     30.938735
     -2.697698     15.856184     15.856184     31.712368
     -2.687688     16.761235     16.761235     33.522469
     -2.677678     18.327075     18.327075     36.654149
     -2.667668     20.528052     20.528052     41.056104
     -2.657658     23.120718     23.120718     46.241435
     -2.647648     25.720569     25.720569     51.441138
     -2.637638     27.965109     27.965109     55.930218
     -2.627628     29.666358     29.666358     59.332717
     -2.617618     30.862606     30.862606     61.725212
     -2.607608     31.746082     31.746082     63.492165
     -2.597598     32.523025     32.523025     65.046051
     -2.587588     33.297510     33.297510     66.595020
     -2.577578     34.037851     34.037851     68.075703
     -2.567568     34.616137     34.616137     69.232274
     -2.557558     34.866231     34.866231     69.732461
     -2.547548     34.617406     34.617406     69.234812
     -2.537538     33.709418     33.709418     67.418836
     -2.527528     32.027342     32.027342     64.054684
     -2.517518     29.576593     29.576593     59.153187
     -2.507508     26.566817     26.566817     53.133635
     -2.497497     23.438120     23.438120     46.876239
     -2.487487     20.780670     20.780670     41.561340
     -2.477477     19.160114     19.160114     38.320229
     -2.467467     18.922588     18.922588     37.845176
     -2.457457     20.073089     20.073089     40.146179
     -2.447447     22.288460     22.288460     44.576920
     -2.437437     25.061503     25.061503     50.123007
     -2.427427     27.909924     27.909924     55.819849
     -2.417417     30.552437     30.552437     61.104873
     -2.407407     32.969026     32.969026     65.938052
     -2.397397     35.317075     35.317075     70.634151
     -2.387387     37.745475     37.745475     75.490951
     -2.377377     40.201593     40.201593     80.403186
     -2.367367     42.334634     42.334634     84.669267
     -2.357357     43.557198     43.557198     87.114396
     -2.347347     43.252182     43.252182     86.504364
     -2.337337     41.039231     41.039231     82.078463
     -2.327327     36.980608     36.980608     73.961216
     -2.317317     31.630850     31.630850     63.261700
     -2.307307     25.907076     25.907076     51.814153
     -2.297297     20.837823     20.837823     41.675647
     -2.287287     17.293849     17.293849     34.587698
     -2.277277     15.795068     15.795068     31.590136
     -2.267267     16.439690     16.439690     32.879381
     -2.257257     18.948887     18.948887     37.897774
     -2.247247     22.787676     22.787676     45.575353
     -2.237237     27.313198     27.313198     54.626397
     -2.227227     31.905742     31.905742     63.811483
     -2.217217     36.050008     36.050008     72.100016
     -2.207207     39.355394     39.355394     78.710789
     -2.197197     41.532962     41.532962     83.065924
     -2.187187     42.370073     42.370073     84.740145
     -2.177177     41.742444     41.742444     83.484889
     -2.167167     39.670881     39.670881     79.341761
     -2.157157     36.384109     36.384109     72.768219
     -2.147147     32.324959     32.324959     64.649918
     -2.137137     28.059636     28.059636     56.119272
     -2.127127     24.110449     24.110449     48.220897
     -2.117117     20.789736     20.789736     41.579472
     -2.107107     18.123233     18.123233     36.246465
     -2.097097     15.903295     15.903295     31.806591
     -2.087087     13.837910     13.837910     27.675819
     -2.077077     11.710630     11.710630     23.421260
     -2.067067      9.470920      9.470920     18.941841
     -2.057057      7.224732      7.224732     14.449464
     -2.047047      5.153444      5.153444     10.306889
     -2.037037      3.418949      3.418949      6.837898
     -2.027027      2.103238      2.103238      4.206477
     -2.017017      1.198751      1.198751      2.397503
     -2.007007      0.636259      0.636259      1.272519
     -1.996997      0.325504      0.325504      0.651008
     -1.986987      0.189339      0.189339      0.378679
     -1.976977      0.184404      0.184404      0.368808
     -1.966967      0.310425      0.310425      0.620850
     -1.956957      0.612215      0.612215      1.224429
     -1.946947      1.174940      1.174940      2.349879
     -1.936937      2.108962      2.108962      4.217924
     -1.926927      3.520099      3.520099      7.040198
     -1.916917      5.466881      5.466881     10.933763
     -1.906907      7.916287      7.916287     15.832573
     -1.896897     10.717057     10.717057     21.434114
     -1.886887     13.607969     13.607969     27.215938
     -1.876877     16.265567     16.265567     32.531135
     -1.866867     18.378583     18.378583     36.757166
     -1.856857     19.724981     19.724981     39.449962
     -1.846847     20.227656     20.227656     40.455313
     -1.836837     19.972549     19.972549     39.945098
     -1.826827     19.181763     19.181763     38.363525
     -1.816817     18.143431     18.143431     36.286862
     -1.806807     17.113939     17.113939     34.227877
     -1.796797     16.225888     16.225888     32.451776
     -1.786787     15.444287     15.444287     30.888575
     -1.776777     14.598828     14.598828     29.197655
     -1.766767     13.482361     13.482361     26.964721
     -1.756757     11.967124     11.967124     23.934247
     -1.746747     10.079239     10.079239     20.158477
     -1.736737      7.998345      7.998345     15.996690
     -1.726727      5.994507      5.994507     11.989013
     -1.716717      4.347079      4.347079      8.694158
     -1.706707      3.289806      3.289806      6.579612
     -1.696697      2.997838      2.997838      5.995677
     -1.686687      3.598148      3.598148      7.196297
     -1.676677      5.167970      5.167970     10.335939
     -1.666667      7.696557      7.696557     15.393115
     -1.656657     11.017432     11.017432     22.034865
     -1.646647     14.752671     14.752671     29.505342
     -1.636637     18.324478     18.324478     36.648955
     -1.626627     21.067047     21.067047     42.134094
