# EIG2DOS: Utility for SIESTA to obtain the electronic density of states
#  E. Artacho, Apr 1999, A. Garcia, Apr 2012
#  Nick R. Papior, Feb 2017
# ------------------------------------------
# Eigenvalues calculated from a non-polarized calculation
# Eigenvalues read from siesta.EIG
# Kpoint weights read from siesta.KP
# Using smearing parameter:   0.0500
# Using 1000 points in the energy range
# Selected bands: 1 to: 2981
# Emin, Emax in file for selected band(s):    -27.3887756    218.3925420
# Nbands, Nspin, Nk   =   2981     1     1
# E_F                 =    -4.2060 eV --> (shifted to ZERO)
# Broadening          =     0.0500 eV
#
#        E            N(up)  (=)   N(down)         Ntot
     -5.000000     34.488954     34.488954     68.977907
     -4.989990     39.044212     39.044212     78.088424
     -4.979980     42.887792     42.887792     85.775584
     -4.969970     45.357343     45.357343     90.714687
     -4.959960     46.008540     46.008540     92.017080
     -4.949950     44.763711     44.763711     89.527422
     -4.939940     41.944852     41.944852     83.889704
     -4.929930     38.196884     38.196884     76.393769
     -4.919920     34.350798     34.350798     68.701596
     -4.909910     31.278075     31.278075     62.556150
     -4.899900     29.756054     29.756054     59.512109
     -4.889890     30.333833     30.333833     60.667667
     -4.879880     33.192525     33.192525     66.385050
     -4.869870     38.032379     38.032379     76.064758
     -4.859860     44.056533     44.056533     88.113067
     -4.849850     50.113327     50.113327    100.226653
     -4.839840     54.993080     54.993080    109.986160
     -4.829830     57.784992     57.784992    115.569983
     -4.819820     58.145533     58.145533    116.291067
     -4.809810     56.355160     56.355160    112.710320
     -4.799800     53.138827     53.138827    106.277654
     -4.789790     49.342264     49.342264     98.684527
     -4.779780     45.621191     45.621191     91.242381
     -4.769770     42.277997     42.277997     84.555995
     -4.759760     39.288951     39.288951     78.577902
     -4.749750     36.464040     36.464040     72.928081
     -4.739740     33.628708     33.628708     67.257415
     -4.729730     30.731967     30.731967     61.463934
     -4.719720     27.846362     27.846362     55.692725
     -4.709710     25.090415     25.090415     50.180829
     -4.699700     22.540466     22.540466     45.080933
     -4.689690     20.194602     20.194602     40.389203
     -4.679680     18.014723     18.014723     36.029446
     -4.669670     16.024770     16.024770     32.049539
     -4.659660     14.408023     14.408023     28.816047
     -4.649650     13.541612     13.541612     27.083223
     -4.639640     13.932312     13.932312     27.864623
     -4.629630     16.060041     16.060041     32.120081
     -4.619620     20.175582     20.175582     40.351165
     -4.609610     26.124801     26.124801     52.249602
     -4.599600     33.276112     33.276112     66.552225
     -4.589590     40.605285     40.605285     81.210569
     -4.579580     46.939524     46.939524     93.879048
     -4.569570     51.293974     51.293974    102.587948
     -4.559560     53.179652     53.179652    106.359304
     -4.549550     52.756888     52.756888    105.513777
     -4.539540     50.764225     50.764225    101.528450
     -4.529530     48.245584     48.245584     96.491168
     -4.519520     46.182586     46.182586     92.365171
     -4.509510     45.174094     45.174094     90.348188
     -4.499499     45.278506     45.278506     90.557012
     -4.489489     46.062229     46.062229     92.124459
     -4.479479     46.814224     46.814224     93.628449
     -4.469469     46.826972     46.826972     93.653945
     -4.459459     45.631640     45.631640     91.263279
     -4.449449     43.110887     43.110887     86.221775
     -4.439439     39.476245     39.476245     78.952491
     -4.429429     35.155694     35.155694     70.311389
     -4.419419     30.662652     30.662652     61.325303
     -4.409409     26.500684     26.500684     53.001368
     -4.399399     23.114879     23.114879     46.229758
     -4.389389     20.862979     20.862979     41.725958
     -4.379379     19.974005     19.974005     39.948010
     -4.369369     20.490822     20.490822     40.981643
     -4.359359     22.229962     22.229962     44.459924
     -4.349349     24.803824     24.803824     49.607649
     -4.339339     27.723301     27.723301     55.446603
     -4.329329     30.550432     30.550432     61.100864
     -4.319319     33.035118     33.035118     66.070235
     -4.309309     35.171959     35.171959     70.343919
     -4.299299     37.150328     37.150328     74.300656
     -4.289289     39.218676     39.218676     78.437353
     -4.279279     41.518048     41.518048     83.036096
     -4.269269     43.950112     43.950112     87.900225
     -4.259259     46.135676     46.135676     92.271352
     -4.249249     47.494653     47.494653     94.989306
     -4.239239     47.437642     47.437642     94.875284
     -4.229229     45.607860     45.607860     91.215720
     -4.219219     42.072491     42.072491     84.144981
     -4.209209     37.365773     37.365773     74.731546
     -4.199199     32.345690     32.345690     64.691381
     -4.189189     27.916947     27.916947     55.833894
     -4.179179     24.742449     24.742449     49.484899
     -4.169169     23.070513     23.070513     46.141026
     -4.159159     22.743364     22.743364     45.486728
     -4.149149     23.362435     23.362435     46.724870
     -4.139139     24.516750     24.516750     49.033501
     -4.129129     25.961804     25.961804     51.923608
     -4.119119     27.668118     27.668118     55.336236
     -4.109109     29.722960     29.722960     59.445921
     -4.099099     32.140771     32.140771     64.281542
     -4.089089     34.690162     34.690162     69.380324
     -4.079079     36.849684     36.849684     73.699368
     -4.069069     37.946478     37.946478     75.892955
     -4.059059     37.431173     37.431173     74.862345
     -4.049049     35.154750     35.154750     70.309500
     -4.039039     31.498278     31.498278     62.996555
     -4.029029     27.281332     27.281332     54.562665
     -4.019019     23.494715     23.494715     46.989431
     -4.009009     20.991286     20.991286     41.982572
     -3.998999     20.273586     20.273586     40.547171
     -3.988989     21.445519     21.445519     42.891037
     -3.978979     24.302089     24.302089     48.604179
     -3.968969     28.474639     28.474639     56.949278
     -3.958959     33.553584     33.553584     67.107169
     -3.948949     39.157100     39.157100     78.314201
     -3.938939     44.959890     44.959890     89.919780
     -3.928929     50.708541     50.708541    101.417081
     -3.918919     56.229258     56.229258    112.458516
     -3.908909     61.409162     61.409162    122.818324
     -3.898899     66.134169     66.134169    132.268337
     -3.888889     70.198324     70.198324    140.396648
     -3.878879     73.235099     73.235099    146.470197
     -3.868869     74.728235     74.728235    149.456469
     -3.858859     74.127194     74.127194    148.254388
     -3.848849     71.038027     71.038027    142.076055
     -3.838839     65.416262     65.416262    130.832524
     -3.828829     57.678178     57.678178    115.356355
     -3.818819     48.674907     48.674907     97.349813
     -3.808809     39.526233     39.526233     79.052466
     -3.798799     31.364233     31.364233     62.728467
     -3.788789     25.068890     25.068890     50.137781
     -3.778779     21.077231     21.077231     42.154462
     -3.768769     19.318210     19.318210     38.636420
     -3.758759     19.282869     19.282869     38.565737
     -3.748749     20.200616     20.200616     40.401233
     -3.738739     21.268688     21.268688     42.537376
     -3.728729     21.874746     21.874746     43.749493
     -3.718719     21.758561     21.758561     43.517121
     -3.708709     21.073262     21.073262     42.146524
     -3.698699     20.327648     20.327648     40.655296
     -3.688689     20.217838     20.217838     40.435677
     -3.678679     21.387707     21.387707     42.775414
     -3.668669     24.186377     24.186377     48.372755
     -3.658659     28.504922     28.504922     57.009844
     -3.648649     33.759144     33.759144     67.518289
     -3.638639     39.036522     39.036522     78.073043
     -3.628629     43.358571     43.358571     86.717142
     -3.618619     45.958434     45.958434     91.916869
     -3.608609     46.469049     46.469049     92.938099
     -3.598599     44.964974     44.964974     89.929949
     -3.588589     41.871149     41.871149     83.742298
     -3.578579     37.801075     37.801075     75.602150
     -3.568569     33.391761     33.391761     66.783521
     -3.558559     29.175877     29.175877     58.351754
     -3.548549     25.504299     25.504299     51.008598
     -3.538539     22.522617     22.522617     45.045233
     -3.528529     20.204293     20.204293     40.408586
     -3.518519     18.431871     18.431871     36.863742
     -3.508509     17.093777     17.093777     34.187554
     -3.498498     16.148613     16.148613     32.297225
     -3.488488     15.623263     15.623263     31.246527
     -3.478478     15.552607     15.552607     31.105214
     -3.468468     15.907069     15.907069     31.814137
     -3.458458     16.558840     16.558840     33.117679
     -3.448448     17.305353     17.305353     34.610705
     -3.438438     17.927858     17.927858     35.855717
     -3.428428     18.247133     18.247133     36.494267
     -3.418418     18.155831     18.155831     36.311662
     -3.408408     17.635240     17.635240     35.270480
     -3.398398     16.773687     16.773687     33.547374
     -3.388388     15.786998     15.786998     31.573997
     -3.378378     15.018681     15.018681     30.037363
     -3.368368     14.894778     14.894778     29.789556
     -3.358358     15.831003     15.831003     31.662006
     -3.348348     18.118427     18.118427     36.236853
     -3.338338     21.825132     21.825132     43.650265
     -3.328328     26.740389     26.740389     53.480779
     -3.318318     32.370546     32.370546     64.741093
     -3.308308     37.988741     37.988741     75.977482
     -3.298298     42.741934     42.741934     85.483869
     -3.288288     45.811956     45.811956     91.623913
     -3.278278     46.602306     46.602306     93.204612
     -3.268268     44.893296     44.893296     89.786592
     -3.258258     40.902897     40.902897     81.805795
     -3.248248     35.223345     35.223345     70.446689
     -3.238238     28.657574     28.657574     57.315147
     -3.228228     22.020351     22.020351     44.040702
     -3.218218     15.973586     15.973586     31.947171
     -3.208208     10.938259     10.938259     21.876519
     -3.198198      7.089007      7.089007     14.178013
     -3.188188      4.411179      4.411179      8.822358
     -3.178178      2.790003      2.790003      5.580007
     -3.168168      2.102235      2.102235      4.204470
     -3.158158      2.285783      2.285783      4.571567
     -3.148148      3.368699      3.368699      6.737398
     -3.138138      5.446270      5.446270     10.892541
     -3.128128      8.606817      8.606817     17.213635
     -3.118118     12.825016     12.825016     25.650032
     -3.108108     17.862454     17.862454     35.724907
     -3.098098     23.227035     23.227035     46.454069
     -3.088088     28.231484     28.231484     56.462969
     -3.078078     32.151584     32.151584     64.303167
     -3.068068     34.431447     34.431447     68.862895
     -3.058058     34.847349     34.847349     69.694698
     -3.048048     33.551775     33.551775     67.103550
     -3.038038     30.977743     30.977743     61.955486
     -3.028028     27.657820     27.657820     55.315640
     -3.018018     24.055300     24.055300     48.110599
     -3.008008     20.488243     20.488243     40.976486
     -2.997998     17.163601     17.163601     34.327203
     -2.987988     14.272827     14.272827     28.545653
     -2.977978     12.073644     12.073644     24.147287
     -2.967968     10.903657     10.903657     21.807315
     -2.957958     11.116423     11.116423     22.232846
     -2.947948     12.968153     12.968153     25.936307
     -2.937938     16.498890     16.498890     32.997780
     -2.927928     21.450671     21.450671     42.901341
     -2.917918     27.256679     27.256679     54.513358
     -2.907908     33.120932     33.120932     66.241865
     -2.897898     38.183225     38.183225     76.366451
     -2.887888     41.729895     41.729895     83.459790
     -2.877878     43.381273     43.381273     86.762546
     -2.867868     43.181361     43.181361     86.362723
     -2.857858     41.546008     41.546008     83.092015
     -2.847848     39.084433     39.084433     78.168866
     -2.837838     36.368168     36.368168     72.736337
     -2.827828     33.748625     33.748625     67.497250
     -2.817818     31.301239     31.301239     62.602478
     -2.807808     28.909505     28.909505     57.819011
     -2.797798     26.430458     26.430458     52.860916
     -2.787788     23.844369     23.844369     47.688738
     -2.777778     21.307685     21.307685     42.615370
     -2.767768     19.089322     19.089322     38.178644
     -2.757758     17.439894     17.439894     34.879788
     -2.747748     16.479855     16.479855     32.959710
     -2.737738     16.174322     16.174322     32.348644
     -2.727728     16.401439     16.401439     32.802879
     -2.717718     17.057029     17.057029     34.114057
     -2.707708     18.114274     18.114274     36.228549
     -2.697698     19.591716     19.591716     39.183432
     -2.687688     21.453895     21.453895     42.907791
     -2.677678     23.526099     23.526099     47.052198
     -2.667668     25.503224     25.503224     51.006448
     -2.657658     27.068889     27.068889     54.137778
     -2.647648     28.058037     28.058037     56.116073
     -2.637638     28.556104     28.556104     57.112207
     -2.627628     28.863097     28.863097     57.726195
     -2.617618     29.338326     29.338326     58.676653
     -2.607608     30.217669     30.217669     60.435339
     -2.597598     31.505668     31.505668     63.011336
     -2.587588     32.986513     32.986513     65.973026
     -2.577578     34.320285     34.320285     68.640570
     -2.567568     35.152734     35.152734     70.305468
     -2.557558     35.189123     35.189123     70.378247
     -2.547548     34.234184     34.234184     68.468368
     -2.537538     32.230072     32.230072     64.460143
     -2.527528     29.307989     29.307989     58.615979
     -2.517518     25.827876     25.827876     51.655752
     -2.507508     22.357466     22.357466     44.714931
     -2.497497     19.561989     19.561989     39.123978
     -2.487487     18.025985     18.025985     36.051971
     -2.477477     18.073409     18.073409     36.146818
     -2.467467     19.662880     19.662880     39.325760
     -2.457457     22.406932     22.406932     44.813863
     -2.447447     25.713073     25.713073     51.426146
     -2.437437     28.993159     28.993159     57.986318
     -2.427427     31.856648     31.856648     63.713296
     -2.417417     34.206293     34.206293     68.412587
     -2.407407     36.193386     36.193386     72.386773
     -2.397397     38.050693     38.050693     76.101386
     -2.387387     39.879924     39.879924     79.759849
     -2.377377     41.499590     41.499590     82.999179
     -2.367367     42.440152     42.440152     84.880305
     -2.357357     42.107794     42.107794     84.215587
     -2.347347     40.052293     40.052293     80.104586
     -2.337337     36.213787     36.213787     72.427575
     -2.327327     31.026684     31.026684     62.053368
     -2.317317     25.330056     25.330056     50.660112
     -2.307307     20.130762     20.130762     40.261523
     -2.297297     16.329111     16.329111     32.658223
     -2.287287     14.513980     14.513980     29.027959
     -2.277277     14.879413     14.879413     29.758826
     -2.267267     17.252182     17.252182     34.504365
     -2.257257     21.185320     21.185320     42.370640
     -2.247247     26.072260     26.072260     52.144521
     -2.237237     31.252789     31.252789     62.505579
     -2.227227     36.097874     36.097874     72.195748
     -2.217217     40.070247     40.070247     80.140495
     -2.207207     42.764969     42.764969     85.529939
     -2.197197     43.940698     43.940698     87.881396
     -2.187187     43.552298     43.552298     87.104597
     -2.177177     41.781977     41.781977     83.563953
     -2.167167     39.043309     39.043309     78.086617
     -2.157157     35.919748     35.919748     71.839497
     -2.147147     33.018099     33.018099     66.036198
     -2.137137     30.769165     30.769165     61.538330
     -2.127127     29.261347     29.261347     58.522695
     -2.117117     28.202970     28.202970     56.405939
     -2.107107     27.054073     27.054073     54.108147
     -2.097097     25.275275     25.275275     50.550550
     -2.087087     22.571335     22.571335     45.142671
     -2.077077     19.009812     19.009812     38.019624
     -2.067067     14.968904     14.968904     29.937808
     -2.057057     10.962443     10.962443     21.924886
     -2.047047      7.443730      7.443730     14.887460
     -2.037037      4.678274      4.678274      9.356549
     -2.027027      2.719394      2.719394      5.438788
     -2.017017      1.463622      1.463622      2.927245
     -2.007007      0.736441      0.736441      1.472881
     -1.996997      0.366197      0.366197      0.732394
     -1.986987      0.227977      0.227977      0.455955
     -1.976977      0.260075      0.260075      0.520151
     -1.966967      0.464094      0.464094      0.928187
     -1.956957      0.896839      0.896839      1.793677
     -1.946947      1.654890      1.654890      3.309779
     -1.936937      2.847958      2.847958      5.695916
     -1.926927      4.559134      4.559134      9.118268
     -1.916917      6.798542      6.798542     13.597084
     -1.906907      9.466578      9.466578     18.933157
     -1.896897     12.345911     12.345911     24.691823
     -1.886887     15.133002     15.133002     30.266004
     -1.876877     17.503295     17.503295     35.006591
     -1.866867     19.189505     19.189505     38.379011
     -1.856857     20.048020     20.048020     40.096040
     -1.846847     20.094167     20.094167     40.188334
     -1.836837     19.495874     19.495874     38.991747
     -1.826827     18.523074     18.523074     37.046148
     -1.816817     17.460548     17.460548     34.921096
     -1.806807     16.508466     16.508466     33.016933
     -1.796797     15.710645     15.710645     31.421290
     -1.786787     14.948978     14.948978     29.897955
     -1.776777     14.014434     14.014434     28.028868
     -1.766767     12.722819     12.722819     25.445637
     -1.756757     11.015938     11.015938     22.031875
     -1.746747      8.997488      8.997488     17.994976
     -1.736737      6.892836      6.892836     13.785672
     -1.726727      4.964760      4.964760      9.929520
     -1.716717      3.434941      3.434941      6.869881
     -1.706707      2.445976      2.445976      4.891952
     -1.696697      2.066310      2.066310      4.132619
     -1.686687      2.313887      2.313887      4.627773
     -1.676677      3.168514      3.168514      6.337028
     -1.666667      4.557880      4.557880      9.115759
     -1.656657      6.326996      6.326996     12.653991
     -1.646647      8.220251      8.220251     16.440502
     -1.636637      9.906743      9.906743     19.813485
     -1.626627     11.059457     11.059457     22.118914
