# EIG2DOS: Utility for SIESTA to obtain the electronic density of states
#  E. Artacho, Apr 1999, A. Garcia, Apr 2012
#  Nick R. Papior, Feb 2017
# ------------------------------------------
# Eigenvalues calculated from a non-polarized calculation
# Eigenvalues read from siesta.EIG
# Kpoint weights read from siesta.KP
# Using smearing parameter:   0.0500
# Using 1000 points in the energy range
# Selected bands: 1 to: 2981
# Emin, Emax in file for selected band(s):    -27.1092896    218.3311410
# Nbands, Nspin, Nk   =   2981     1     1
# E_F                 =    -4.2790 eV --> (shifted to ZERO)
# Broadening          =     0.0500 eV
#
#        E            N(up)  (=)   N(down)         Ntot
     -5.000000     39.363065     39.363065     78.726130
     -4.989990     41.203560     41.203560     82.407120
     -4.979980     42.824587     42.824587     85.649174
     -4.969970     43.888812     43.888812     87.777624
     -4.959960     44.051072     44.051072     88.102145
     -4.949950     43.101089     43.101089     86.202178
     -4.939940     41.059333     41.059333     82.118666
     -4.929930     38.202923     38.202923     76.405846
     -4.919920     35.033200     35.033200     70.066399
     -4.909910     32.208980     32.208980     64.417959
     -4.899900     30.455861     30.455861     60.911723
     -4.889890     30.440448     30.440448     60.880897
     -4.879880     32.597529     32.597529     65.195058
     -4.869870     36.933957     36.933957     73.867915
     -4.859860     42.887450     42.887450     85.774899
     -4.849850     49.344749     49.344749     98.689499
     -4.839840     54.880143     54.880143    109.760287
     -4.829830     58.167376     58.167376    116.334751
     -4.819820     58.407077     58.407077    116.814154
     -4.809810     55.577320     55.577320    111.154641
     -4.799800     50.392341     50.392341    100.784681
     -4.789790     44.001701     44.001701     88.003402
     -4.779780     37.586048     37.586048     75.172097
     -4.769770     32.031023     32.031023     64.062046
     -4.759760     27.785386     27.785386     55.570773
     -4.749750     24.897199     24.897199     49.794399
     -4.739740     23.147214     23.147214     46.294427
     -4.729730     22.191534     22.191534     44.383068
     -4.719720     21.663903     21.663903     43.327806
     -4.709710     21.231295     21.231295     42.462589
     -4.699700     20.620853     20.620853     41.241706
     -4.689690     19.640677     19.640677     39.281354
     -4.679680     18.209273     18.209273     36.418546
     -4.669670     16.394335     16.394335     32.788670
     -4.659660     14.445983     14.445983     28.891965
     -4.649650     12.800438     12.800438     25.600876
     -4.639640     12.033053     12.033053     24.066105
     -4.629630     12.752870     12.752870     25.505741
     -4.619620     15.448191     15.448191     30.896381
     -4.609610     20.310989     20.310989     40.621978
     -4.599600     27.088426     27.088426     54.176852
     -4.589590     35.026427     35.026427     70.052853
     -4.579580     42.965886     42.965886     85.931771
     -4.569570     49.608819     49.608819     99.217639
     -4.559560     53.894997     53.894997    107.789993
     -4.549550     55.356697     55.356697    110.713394
     -4.539540     54.299651     54.299651    108.599303
     -4.529530     51.716345     51.716345    103.432690
     -4.519520     48.950332     48.950332     97.900665
     -4.509510     47.238455     47.238455     94.476911
     -4.499499     47.305996     47.305996     94.611993
     -4.489489     49.158441     49.158441     98.316882
     -4.479479     52.126254     52.126254    104.252508
     -4.469469     55.121887     55.121887    110.243775
     -4.459459     57.001386     57.001386    114.002773
     -4.449449     56.904423     56.904423    113.808846
     -4.439439     54.472647     54.472647    108.945295
     -4.429429     49.900670     49.900670     99.801340
     -4.419419     43.834992     43.834992     87.669983
     -4.409409     37.180799     37.180799     74.361598
     -4.399399     30.888621     30.888621     61.777241
     -4.389389     25.773285     25.773285     51.546570
     -4.379379     22.386169     22.386169     44.772338
     -4.369369     20.942402     20.942402     41.884804
     -4.359359     21.305560     21.305560     42.611121
     -4.349349     23.039808     23.039808     46.079616
     -4.339339     25.532984     25.532984     51.065967
     -4.329329     28.168529     28.168529     56.337057
     -4.319319     30.495514     30.495514     60.991027
     -4.309309     32.337611     32.337611     64.675221
     -4.299299     33.802904     33.802904     67.605809
     -4.289289     35.194527     35.194527     70.389054
     -4.279279     36.855496     36.855496     73.710992
     -4.269269     38.997493     38.997493     77.994986
     -4.259259     41.566050     41.566050     83.132100
     -4.249249     44.190942     44.190942     88.381884
     -4.239239     46.257140     46.257140     92.514280
     -4.229229     47.096506     47.096506     94.193012
     -4.219219     46.243734     46.243734     92.487467
     -4.209209     43.649405     43.649405     87.298809
     -4.199199     39.740611     39.740611     79.481221
     -4.189189     35.284604     35.284604     70.569209
     -4.179179     31.113343     31.113343     62.226686
     -4.169169     27.842206     27.842206     55.684413
     -4.159159     25.714533     25.714533     51.429067
     -4.149149     24.628404     24.628404     49.256808
     -4.139139     24.304557     24.304557     48.609114
     -4.129129     24.491653     24.491653     48.983306
     -4.119119     25.101963     25.101963     50.203926
     -4.109109     26.215390     26.215390     52.430781
     -4.099099     27.955685     27.955685     55.911370
     -4.089089     30.305393     30.305393     60.610786
     -4.079079     32.963947     32.963947     65.927895
     -4.069069     35.345010     35.345010     70.690019
     -4.059059     36.745889     36.745889     73.491778
     -4.049049     36.626362     36.626362     73.252724
     -4.039039     34.860897     34.860897     69.721794
     -4.029029     31.829701     31.829701     63.659402
     -4.019019     28.297882     28.297882     56.595764
     -4.009009     25.147945     25.147945     50.295889
     -3.998999     23.103943     23.103943     46.207886
     -3.988989     22.571401     22.571401     45.142801
     -3.978979     23.632967     23.632967     47.265934
     -3.968969     26.148449     26.148449     52.296898
     -3.958959     29.869174     29.869174     59.738349
     -3.948949     34.505382     34.505382     69.010763
     -3.938939     39.746323     39.746323     79.492645
     -3.928929     45.273012     45.273012     90.546025
     -3.918919     50.794673     50.794673    101.589347
     -3.908909     56.097371     56.097371    112.194742
     -3.898899     61.059626     61.059626    122.119252
     -3.888889     65.597888     65.597888    131.195775
     -3.878879     69.552511     69.552511    139.105023
     -3.868869     72.578537     72.578537    145.157073
     -3.858859     74.125022     74.125022    148.250044
     -3.848849     73.552996     73.552996    147.105992
     -3.838839     70.369125     70.369125    140.738250
     -3.828829     64.480101     64.480101    128.960201
     -3.818819     56.345082     56.345082    112.690164
     -3.808809     46.940802     46.940802     93.881604
     -3.798799     37.538239     37.538239     75.076477
     -3.788789     29.374294     29.374294     58.748587
     -3.778779     23.341473     23.341473     46.682945
     -3.768769     19.798401     19.798401     39.596802
     -3.758759     18.545292     18.545292     37.090585
     -3.748749     18.947691     18.947691     37.895382
     -3.738739     20.154442     20.154442     40.308884
     -3.728729     21.345443     21.345443     42.690887
     -3.718719     21.950490     21.950490     43.900981
     -3.708709     21.791933     21.791933     43.583866
     -3.698699     21.117873     21.117873     42.235746
     -3.688689     20.512325     20.512325     41.024651
     -3.678679     20.696966     20.696966     41.393933
     -3.668669     22.273366     22.273366     44.546732
     -3.658659     25.484455     25.484455     50.968911
     -3.648649     30.082636     30.082636     60.165272
     -3.638639     35.364622     35.364622     70.729244
     -3.628629     40.370623     40.370623     80.741245
     -3.618619     44.173091     44.173091     88.346182
     -3.608609     46.138567     46.138567     92.277134
     -3.598599     46.063834     46.063834     92.127668
     -3.588589     44.155585     44.155585     88.311170
     -3.578579     40.896680     40.896680     81.793360
     -3.568569     36.876097     36.876097     73.752194
     -3.558559     32.643416     32.643416     65.286832
     -3.548549     28.610686     28.610686     57.221373
     -3.538539     25.001133     25.001133     50.002266
     -3.528529     21.844727     21.844727     43.689455
     -3.518519     19.025693     19.025693     38.051385
     -3.508509     16.375521     16.375521     32.751043
     -3.498498     13.780267     13.780267     27.560534
     -3.488488     11.256099     11.256099     22.512198
     -3.478478      8.959855      8.959855     17.919711
     -3.468468      7.134408      7.134408     14.268816
     -3.458458      6.018111      6.018111     12.036222
     -3.448448      5.755865      5.755865     11.511729
     -3.438438      6.339197      6.339197     12.678394
     -3.428428      7.589337      7.589337     15.178674
     -3.418418      9.189663      9.189663     18.379327
     -3.408408     10.767358     10.767358     21.534717
     -3.398398     12.009412     12.009412     24.018825
     -3.388388     12.776895     12.776895     25.553789
     -3.378378     13.169450     13.169450     26.338900
     -3.368368     13.505341     13.505341     27.010681
     -3.358358     14.219488     14.219488     28.438975
     -3.348348     15.720439     15.720439     31.440877
     -3.338338     18.260551     18.260551     36.521101
     -3.328328     21.854675     21.854675     43.709350
     -3.318318     26.250928     26.250928     52.501857
     -3.308308     30.942013     30.942013     61.884027
     -3.298298     35.217447     35.217447     70.434894
     -3.288288     38.275001     38.275001     76.550002
     -3.278278     39.400502     39.400502     78.801005
     -3.268268     38.180063     38.180063     76.360125
     -3.258258     34.660139     34.660139     69.320279
     -3.248248     29.367306     29.367306     58.734613
     -3.238238     23.159372     23.159372     46.318745
     -3.228228     16.967704     16.967704     33.935408
     -3.218218     11.546132     11.546132     23.092264
     -3.208208      7.328401      7.328401     14.656801
     -3.198198      4.429372      4.429372      8.858743
     -3.188188      2.753694      2.753694      5.507388
     -3.178178      2.139807      2.139807      4.279614
     -3.168168      2.474072      2.474072      4.948145
     -3.158158      3.740301      3.740301      7.480603
     -3.148148      6.001209      6.001209     12.002418
     -3.138138      9.329619      9.329619     18.659237
     -3.128128     13.718831     13.718831     27.437661
     -3.118118     19.006003     19.006003     38.012006
     -3.108108     24.839181     24.839181     49.678361
     -3.098098     30.706285     30.706285     61.412571
     -3.088088     36.024554     36.024554     72.049109
     -3.078078     40.266945     40.266945     80.533891
     -3.068068     43.084548     43.084548     86.169096
     -3.058058     44.378119     44.378119     88.756238
     -3.048048     44.284526     44.284526     88.569052
     -3.038038     43.077992     43.077992     86.155985
     -3.028028     41.031093     41.031093     82.062187
     -3.018018     38.310268     38.310268     76.620537
     -3.008008     34.968357     34.968357     69.936714
     -2.997998     31.040668     31.040668     62.081336
     -2.987988     26.684947     26.684947     53.369895
     -2.977978     22.275844     22.275844     44.551687
     -2.967968     18.391998     18.391998     36.783996
     -2.957958     15.696011     15.696011     31.392022
     -2.947948     14.759451     14.759451     29.518903
     -2.937938     15.898515     15.898515     31.797031
     -2.927928     19.067643     19.067643     38.135286
     -2.917918     23.833949     23.833949     47.667898
     -2.907908     29.440273     29.440273     58.880547
     -2.897898     34.953361     34.953361     69.906723
     -2.887888     39.473272     39.473272     78.946543
     -2.877878     42.350927     42.350927     84.701854
     -2.867868     43.341044     43.341044     86.682088
     -2.857858     42.628613     42.628613     85.257226
     -2.847848     40.713098     40.713098     81.426197
     -2.837838     38.196020     38.196020     76.392039
     -2.827828     35.562183     35.562183     71.124367
     -2.817818     33.047039     33.047039     66.094078
     -2.807808     30.639371     30.639371     61.278741
     -2.797798     28.201295     28.201295     56.402590
     -2.787788     25.630973     25.630973     51.261945
     -2.777778     22.977046     22.977046     45.954092
     -2.767768     20.446031     20.446031     40.892062
     -2.757758     18.307074     18.307074     36.614149
     -2.747748     16.757527     16.757527     33.515055
     -2.737738     15.833993     15.833993     31.667985
     -2.727728     15.423774     15.423774     30.847547
     -2.717718     15.367695     15.367695     30.735389
     -2.707708     15.585681     15.585681     31.171362
     -2.697698     16.139451     16.139451     32.278902
     -2.687688     17.185431     17.185431     34.370863
     -2.677678     18.843136     18.843136     37.686271
     -2.667668     21.063666     21.063666     42.127332
     -2.657658     23.589068     23.589068     47.178136
     -2.647648     26.038469     26.038469     52.076938
     -2.637638     28.074953     28.074953     56.149906
     -2.627628     29.552718     29.552718     59.105435
     -2.617618     30.556061     30.556061     61.112122
     -2.607608     31.313055     31.313055     62.626111
     -2.597598     32.046713     32.046713     64.093426
     -2.587588     32.857451     32.857451     65.714901
     -2.577578     33.693720     33.693720     67.387440
     -2.567568     34.397950     34.397950     68.795900
     -2.557558     34.771221     34.771221     69.542443
     -2.547548     34.613654     34.613654     69.227308
     -2.537538     33.745974     33.745974     67.491948
     -2.527528     32.048765     32.048765     64.097530
     -2.517518     29.537598     29.537598     59.075196
     -2.507508     26.442438     26.442438     52.884877
     -2.497497     23.227211     23.227211     46.454422
     -2.487487     20.504076     20.504076     41.008152
     -2.477477     18.856672     18.856672     37.713343
     -2.467467     18.645038     18.645038     37.290076
     -2.457457     19.883345     19.883345     39.766689
     -2.447447     22.250091     22.250091     44.500181
     -2.437437     25.228334     25.228334     50.456667
     -2.427427     28.312390     28.312390     56.624780
     -2.417417     31.185620     31.185620     62.371240
     -2.407407     33.786459     33.786459     67.572918
     -2.397397     36.232819     36.232819     72.465639
     -2.387387     38.645029     38.645029     77.290057
     -2.377377     40.960678     40.960678     81.921357
     -2.367367     42.843403     42.843403     85.686806
     -2.357357     43.745167     43.745167     87.490335
     -2.347347     43.106936     43.106936     86.213872
     -2.337337     40.611716     40.611716     81.223431
     -2.327327     36.373369     36.373369     72.746737
     -2.317317     30.972006     30.972006     61.944012
     -2.307307     25.318700     25.318700     50.637400
     -2.297297     20.409287     20.409287     40.818573
     -2.287287     17.067754     17.067754     34.135508
     -2.277277     15.767888     15.767888     31.535776
     -2.267267     16.574198     16.574198     33.148396
     -2.257257     19.192400     19.192400     38.384800
     -2.247247     23.089130     23.089130     46.178260
     -2.237237     27.632962     27.632962     55.265923
     -2.227227     32.215383     32.215383     64.430766
     -2.217217     36.324492     36.324492     72.648985
     -2.207207     39.564844     39.564844     79.129687
     -2.197197     41.641640     41.641640     83.283280
     -2.187187     42.345369     42.345369     84.690737
     -2.177177     41.569349     41.569349     83.138698
     -2.167167     39.362980     39.362980     78.725959
     -2.157157     35.983700     35.983700     71.967399
     -2.147147     31.891222     31.891222     63.782445
     -2.137137     27.650410     27.650410     55.300821
     -2.127127     23.766011     23.766011     47.532023
     -2.117117     20.525116     20.525116     41.050233
     -2.107107     17.930755     17.930755     35.861509
     -2.097097     15.762297     15.762297     31.524595
     -2.087087     13.726160     13.726160     27.452320
     -2.077077     11.612512     11.612512     23.225024
     -2.067067      9.380113      9.380113     18.760225
     -2.057057      7.142136      7.142136     14.284271
     -2.047047      5.082943      5.082943     10.165887
     -2.037037      3.363651      3.363651      6.727303
     -2.027027      2.063629      2.063629      4.127259
     -2.017017      1.172727      1.172727      2.345454
     -2.007007      0.620119      0.620119      1.240239
     -1.996997      0.314892      0.314892      0.629783
     -1.986987      0.179510      0.179510      0.359019
     -1.976977      0.169721      0.169721      0.339441
     -1.966967      0.283441      0.283441      0.566882
     -1.956957      0.563057      0.563057      1.126114
     -1.946947      1.091982      1.091982      2.183963
     -1.936937      1.981672      1.981672      3.963344
     -1.926927      3.344185      3.344185      6.688369
     -1.916917      5.250296      5.250296     10.500592
     -1.906907      7.682998      7.682998     15.365996
     -1.896897     10.504989     10.504989     21.009977
     -1.886887     13.459347     13.459347     26.918695
     -1.876877     16.211792     16.211792     32.423585
     -1.866867     18.425651     18.425651     36.851302
     -1.856857     19.846737     19.846737     39.693473
     -1.846847     20.371504     20.371504     40.743009
     -1.836837     20.077122     20.077122     40.154245
     -1.826827     19.201512     19.201512     38.403024
     -1.816817     18.073552     18.073552     36.147105
     -1.806807     17.010635     17.010635     34.021269
     -1.796797     16.219857     16.219857     32.439714
     -1.786787     15.747226     15.747226     31.494453
     -1.776777     15.501977     15.501977     31.003955
     -1.766767     15.342380     15.342380     30.684761
     -1.756757     15.169928     15.169928     30.339855
     -1.746747     14.971842     14.971842     29.943683
     -1.736737     14.787927     14.787927     29.575853
     -1.726727     14.633400     14.633400     29.266800
     -1.716717     14.442995     14.442995     28.885989
     -1.706707     14.086684     14.086684     28.173368
     -1.696697     13.454030     13.454030     26.908061
     -1.686687     12.551641     12.551641     25.103282
     -1.676677     11.544247     11.544247     23.088495
     -1.666667     10.703152     10.703152     21.406305
     -1.656657     10.282475     10.282475     20.564951
     -1.646647     10.387385     10.387385     20.774771
     -1.636637     10.904996     10.904996     21.809992
     -1.626627     11.537182     11.537182     23.074364
