# EIG2DOS: Utility for SIESTA to obtain the electronic density of states
#  E. Artacho, Apr 1999, A. Garcia, Apr 2012
#  Nick R. Papior, Feb 2017
# ------------------------------------------
# Eigenvalues calculated from a non-polarized calculation
# Eigenvalues read from siesta.EIG
# Kpoint weights read from siesta.KP
# Using smearing parameter:   0.0500
# Using 1000 points in the energy range
# Selected bands: 1 to: 2981
# Emin, Emax in file for selected band(s):    -27.0993168    218.3508040
# Nbands, Nspin, Nk   =   2981     1     1
# E_F                 =    -4.2533 eV --> (shifted to ZERO)
# Broadening          =     0.0500 eV
#
#        E            N(up)  (=)   N(down)         Ntot
     -5.000000     35.925528     35.925528     71.851056
     -4.989990     39.453987     39.453987     78.907974
     -4.979980     42.136950     42.136950     84.273900
     -4.969970     43.572165     43.572165     87.144330
     -4.959960     43.549041     43.549041     87.098083
     -4.949950     42.109477     42.109477     84.218954
     -4.939940     39.547918     39.547918     79.095836
     -4.929930     36.364587     36.364587     72.729173
     -4.919920     33.199130     33.199130     66.398261
     -4.909910     30.760001     30.760001     61.520002
     -4.899900     29.738941     29.738941     59.477883
     -4.889890     30.685462     30.685462     61.370923
     -4.879880     33.835732     33.835732     67.671464
     -4.869870     38.941907     38.941907     77.883814
     -4.859860     45.196381     45.196381     90.392762
     -4.849850     51.342892     51.342892    102.685785
     -4.839840     55.991647     55.991647    111.983294
     -4.829830     58.041769     58.041769    116.083537
     -4.819820     57.034319     57.034319    114.068639
     -4.809810     53.274291     53.274291    106.548582
     -4.799800     47.670660     47.670660     95.341320
     -4.789790     41.383242     41.383242     82.766485
     -4.779780     35.447296     35.447296     70.894593
     -4.769770     30.528019     30.528019     61.056038
     -4.759760     26.864034     26.864034     53.728068
     -4.749750     24.360399     24.360399     48.720798
     -4.739740     22.742851     22.742851     45.485702
     -4.729730     21.694399     21.694399     43.388799
     -4.719720     20.935153     20.935153     41.870305
     -4.709710     20.245543     20.245543     40.491087
     -4.699700     19.457920     19.457920     38.915841
     -4.689690     18.450222     18.450222     36.900445
     -4.679680     17.167684     17.167684     34.335369
     -4.669670     15.675408     15.675408     31.350816
     -4.659660     14.216037     14.216037     28.432074
     -4.649650     13.229774     13.229774     26.459548
     -4.639640     13.300241     13.300241     26.600483
     -4.629630     15.016552     15.016552     30.033104
     -4.619620     18.777295     18.777295     37.554590
     -4.609610     24.594448     24.594448     49.188896
     -4.599600     31.975421     31.975421     63.950843
     -4.589590     39.957038     39.957038     79.914075
     -4.579580     47.322956     47.322956     94.645913
     -4.569570     52.958376     52.958376    105.916752
     -4.559560     56.215279     56.215279    112.430558
     -4.549550     57.129247     57.129247    114.258493
     -4.539540     56.378627     56.378627    112.757254
     -4.529530     54.992774     54.992774    109.985548
     -4.519520     53.936341     53.936341    107.872682
     -4.509510     53.752679     53.752679    107.505359
     -4.499499     54.411267     54.411267    108.822533
     -4.489489     55.397827     55.397827    110.795655
     -4.479479     55.973673     55.973673    111.947346
     -4.469469     55.470951     55.470951    110.941903
     -4.459459     53.503935     53.503935    107.007871
     -4.449449     50.041280     50.041280    100.082561
     -4.439439     45.356415     45.356415     90.712830
     -4.429429     39.916231     39.916231     79.832463
     -4.419419     34.269915     34.269915     68.539830
     -4.409409     28.971030     28.971030     57.942061
     -4.399399     24.529491     24.529491     49.058981
     -4.389389     21.368150     21.368150     42.736299
     -4.379379     19.763772     19.763772     39.527545
     -4.369369     19.779316     19.779316     39.558632
     -4.359359     21.222877     21.222877     42.445754
     -4.349349     23.674015     23.674015     47.348030
     -4.339339     26.591162     26.591162     53.182324
     -4.329329     29.469299     29.469299     58.938598
     -4.319319     31.984717     31.984717     63.969433
     -4.309309     34.065815     34.065815     68.131630
     -4.299299     35.863569     35.863569     71.727139
     -4.289289     37.639104     37.639104     75.278208
     -4.279279     39.613983     39.613983     79.227965
     -4.269269     41.834224     41.834224     83.668448
     -4.259259     44.091862     44.091862     88.183724
     -4.249249     45.937809     45.937809     91.875618
     -4.239239     46.801806     46.801806     93.603613
     -4.229229     46.198111     46.198111     92.396222
     -4.219219     43.945048     43.945048     87.890096
     -4.209209     40.294891     40.294891     80.589783
     -4.199199     35.893651     35.893651     71.787302
     -4.189189     31.570540     31.570540     63.141081
     -4.179179     28.049970     28.049970     56.099940
     -4.169169     25.723646     25.723646     51.447291
     -4.159159     24.586521     24.586521     49.173041
     -4.149149     24.350960     24.350960     48.701920
     -4.139139     24.663870     24.663870     49.327740
     -4.129129     25.308526     25.308526     50.617052
     -4.119119     26.289723     26.289723     52.579445
     -4.109109     27.762271     27.762271     55.524542
     -4.099099     29.841314     29.841314     59.682628
     -4.089089     32.398060     32.398060     64.796120
     -4.079079     34.965299     34.965299     69.930598
     -4.069069     36.832513     36.832513     73.665026
     -4.059059     37.310779     37.310779     74.621558
     -4.049049     36.044095     36.044095     72.088189
     -4.039039     33.203529     33.203529     66.407059
     -4.029029     29.457770     29.457770     58.915541
     -4.019019     25.736887     25.736887     51.473774
     -4.009009     22.916298     22.916298     45.832596
     -3.998999     21.575750     21.575750     43.151500
     -3.988989     21.923593     21.923593     43.847185
     -3.978979     23.871769     23.871769     47.743538
     -3.968969     27.173370     27.173370     54.346740
     -3.958959     31.532157     31.532157     63.064314
     -3.948949     36.647887     36.647887     73.295773
     -3.938939     42.221522     42.221522     84.443044
     -3.928929     47.964590     47.964590     95.929181
     -3.918919     53.629583     53.629583    107.259165
     -3.908909     59.035781     59.035781    118.071563
     -3.898899     64.049448     64.049448    128.098895
     -3.888889     68.505460     68.505460    137.010920
     -3.878879     72.108272     72.108272    144.216545
     -3.868869     74.383541     74.383541    148.767083
     -3.858859     74.740040     74.740040    149.480079
     -3.848849     72.647134     72.647134    145.294268
     -3.838839     67.866251     67.866251    135.732503
     -3.828829     60.633764     60.633764    121.267528
     -3.818819     51.702473     51.702473    103.404945
     -3.808809     42.206573     42.206573     84.413145
     -3.798799     33.391239     33.391239     66.782478
     -3.788789     26.303542     26.303542     52.607084
     -3.778779     21.550663     21.550663     43.101327
     -3.768769     19.196200     19.196200     38.392401
     -3.758759     18.809949     18.809949     37.619897
     -3.748749     19.638629     19.638629     39.277259
     -3.738739     20.839494     20.839494     41.678987
     -3.728729     21.714496     21.714496     43.428992
     -3.718719     21.891046     21.891046     43.782092
     -3.708709     21.409133     21.409133     42.818266
     -3.698699     20.692382     20.692382     41.384764
     -3.688689     20.404200     20.404200     40.808400
     -3.678679     21.220194     21.220194     42.440388
     -3.668669     23.579149     23.579149     47.158297
     -3.658659     27.494298     27.494298     54.988597
     -3.648649     32.498790     32.498790     64.997581
     -3.638639     37.756374     37.756374     75.512748
     -3.628629     42.302249     42.302249     84.604497
     -3.618619     45.321350     45.321350     90.642700
     -3.608609     46.356706     46.356706     92.713411
     -3.598599     45.380098     45.380098     90.760196
     -3.588589     42.726328     42.726328     85.452656
     -3.578579     38.946797     38.946797     77.893594
     -3.568569     34.649049     34.649049     69.298097
     -3.558559     30.364286     30.364286     60.728573
     -3.548549     26.456673     26.456673     52.913346
     -3.538539     23.079243     23.079243     46.158486
     -3.528529     20.185485     20.185485     40.370970
     -3.518519     17.601024     17.601024     35.202049
     -3.508509     15.136834     15.136834     30.273669
     -3.498498     12.699547     12.699547     25.399095
     -3.488488     10.350286     10.350286     20.700572
     -3.478478      8.288478      8.288478     16.576955
     -3.468468      6.774226      6.774226     13.548453
     -3.458458      6.026943      6.026943     12.053886
     -3.448448      6.138662      6.138662     12.277325
     -3.438438      7.026995      7.026995     14.053990
     -3.428428      8.439663      8.439663     16.879327
     -3.418418     10.014061     10.014061     20.028122
     -3.408408     11.384009     11.384009     22.768018
     -3.398398     12.306778     12.306778     24.613556
     -3.388388     12.764838     12.764838     25.529676
     -3.378378     12.995767     12.995767     25.991533
     -3.368368     13.429137     13.429137     26.858275
     -3.358358     14.549700     14.549700     29.099400
     -3.348348     16.736850     16.736850     33.473701
     -3.338338     20.132900     20.132900     40.265801
     -3.328328     24.570991     24.570991     49.141982
     -3.318318     29.569377     29.569377     59.138754
     -3.308308     34.390537     34.390537     68.781073
     -3.298298     38.167321     38.167321     76.334642
     -3.288288     40.092314     40.092314     80.184627
     -3.278278     39.636480     39.636480     79.272960
     -3.268268     36.724359     36.724359     73.448718
     -3.258258     31.783140     31.783140     63.566280
     -3.248248     25.626371     25.626371     51.252743
     -3.238238     19.211938     19.211938     38.423876
     -3.228228     13.377219     13.377219     26.754438
     -3.218218      8.659221      8.659221     17.318441
     -3.208208      5.254360      5.254360     10.508720
     -3.198198      3.100847      3.100847      6.201693
     -3.188188      2.020113      2.020113      4.040227
     -3.178178      1.849319      1.849319      3.698638
     -3.168168      2.521498      2.521498      5.042996
     -3.158158      4.079954      4.079954      8.159908
     -3.148148      6.634592      6.634592     13.269184
     -3.138138     10.279574     10.279574     20.559147
     -3.128128     14.999073     14.999073     29.998146
     -3.118118     20.592769     20.592769     41.185538
     -3.108108     26.651443     26.651443     53.302886
     -3.098098     32.601457     32.601457     65.202913
     -3.088088     37.815147     37.815147     75.630293
     -3.078078     41.757754     41.757754     83.515508
     -3.068068     44.120038     44.120038     88.240075
     -3.058058     44.880823     44.880823     89.761645
     -3.048048     44.265385     44.265385     88.530770
     -3.038038     42.612734     42.612734     85.225468
     -3.028028     40.217017     40.217017     80.434033
     -3.018018     37.230912     37.230912     74.461823
     -3.008008     33.688009     33.688009     67.376019
     -2.997998     29.629123     29.629123     59.258245
     -2.987988     25.251175     25.251175     50.502349
     -2.977978     20.983498     20.983498     41.966996
     -2.967968     17.442468     17.442468     34.884937
     -2.957958     15.284495     15.284495     30.568989
     -2.947948     15.022145     15.022145     30.044291
     -2.937938     16.869471     16.869471     33.738941
     -2.927928     20.657212     20.657212     41.314423
     -2.917918     25.834140     25.834140     51.668281
     -2.907908     31.557792     31.557792     63.115585
     -2.897898     36.866101     36.866101     73.732201
     -2.887888     40.898877     40.898877     81.797755
     -2.877878     43.109160     43.109160     86.218320
     -2.867868     43.389927     43.389927     86.779855
     -2.857858     42.061018     42.061018     84.122036
     -2.847848     39.714259     39.714259     79.428517
     -2.837838     36.978111     36.978111     73.956222
     -2.827828     34.302175     34.302175     68.604350
     -2.817818     31.852550     31.852550     63.705100
     -2.807808     29.553338     29.553338     59.106677
     -2.797798     27.236008     27.236008     54.472016
     -2.787788     24.806632     24.806632     49.613264
     -2.777778     22.339322     22.339322     44.678644
     -2.767768     20.052651     20.052651     40.105301
     -2.757758     18.196225     18.196225     36.392450
     -2.747748     16.925714     16.925714     33.851429
     -2.737738     16.246400     16.246400     32.492801
     -2.727728     16.056715     16.056715     32.113430
     -2.717718     16.254732     16.254732     32.509463
     -2.707708     16.826923     16.826923     33.653846
     -2.697698     17.850303     17.850303     35.700606
     -2.687688     19.400842     19.400842     38.801685
     -2.677678     21.431799     21.431799     42.863597
     -2.667668     23.714810     23.714810     47.429619
     -2.657658     25.899854     25.899854     51.799708
     -2.647648     27.669309     27.669309     55.338618
     -2.637638     28.892368     28.892368     57.784735
     -2.627628     29.680043     29.680043     59.360087
     -2.617618     30.304806     30.304806     60.609611
     -2.607608     31.037370     31.037370     62.074740
     -2.597598     32.001877     32.001877     64.003754
     -2.587588     33.126339     33.126339     66.252677
     -2.577578     34.192223     34.192223     68.384445
     -2.567568     34.925992     34.925992     69.851984
     -2.557558     35.071295     35.071295     70.142589
     -2.547548     34.425508     34.425508     68.851016
     -2.537538     32.869160     32.869160     65.738320
     -2.527528     30.418066     30.418066     60.836131
     -2.517518     27.287654     27.287654     54.575308
     -2.507508     23.918841     23.918841     47.837682
     -2.497497     20.915794     20.915794     41.831588
     -2.487487     18.891933     18.891933     37.783866
     -2.477477     18.278347     18.278347     36.556693
     -2.467467     19.178727     19.178727     38.357454
     -2.457457     21.339234     21.339234     42.678468
     -2.447447     24.251167     24.251167     48.502334
     -2.437437     27.345206     27.345206     54.690411
     -2.427427     30.194944     30.194944     60.389888
     -2.417417     32.641651     32.641651     65.283303
     -2.407407     34.784963     34.784963     69.569926
     -2.397397     36.843016     36.843016     73.686032
     -2.387387     38.946338     38.946338     77.892676
     -2.377377     40.965862     40.965862     81.931724
     -2.367367     42.468188     42.468188     84.936375
     -2.357357     42.838055     42.838055     85.676110
     -2.347347     41.527810     41.527810     83.055619
     -2.337337     38.324297     38.324297     76.648593
     -2.327327     33.505952     33.505952     67.011903
     -2.317317     27.813137     27.813137     55.626275
     -2.307307     22.246888     22.246888     44.493777
     -2.297297     17.790060     17.790060     35.580120
     -2.287287     15.165630     15.165630     30.331261
     -2.277277     14.707165     14.707165     29.414331
     -2.267267     16.352492     16.352492     32.704984
     -2.257257     19.724723     19.724723     39.449446
     -2.247247     24.251612     24.251612     48.503224
     -2.237237     29.284371     29.284371     58.568741
     -2.227227     34.192737     34.192737     68.385475
     -2.217217     38.426068     38.426068     76.852137
     -2.207207     41.542610     41.542610     83.085219
     -2.197197     43.222065     43.222065     86.444131
     -2.187187     43.283222     43.283222     86.566443
     -2.177177     41.718826     41.718826     83.437651
     -2.167167     38.734235     38.734235     77.468470
     -2.157157     34.751503     34.751503     69.503005
     -2.147147     30.341020     30.341020     60.682039
     -2.137137     26.078675     26.078675     52.157350
     -2.127127     22.378688     22.378688     44.757377
     -2.117117     19.382082     19.382082     38.764165
     -2.107107     16.960448     16.960448     33.920897
     -2.097097     14.832654     14.832654     29.665308
     -2.087087     12.729499     12.729499     25.458999
     -2.077077     10.520228     10.520228     21.040455
     -2.067067      8.246313      8.246313     16.492626
     -2.057057      6.066221      6.066221     12.132443
     -2.047047      4.159751      4.159751      8.319502
     -2.037037      2.648203      2.648203      5.296406
     -2.027027      1.562056      1.562056      3.124111
     -2.017017      0.854619      0.854619      1.709238
     -2.007007      0.439706      0.439706      0.879411
     -1.996997      0.230071      0.230071      0.460143
     -1.986987      0.164019      0.164019      0.328037
     -1.976977      0.219012      0.219012      0.438023
     -1.966967      0.416498      0.416498      0.832995
     -1.956957      0.820737      0.820737      1.641474
     -1.946947      1.529856      1.529856      3.059712
     -1.936937      2.654454      2.654454      5.308909
     -1.926927      4.281635      4.281635      8.563269
     -1.916917      6.430661      6.430661     12.861322
     -1.906907      9.016196      9.016196     18.032391
     -1.896897     11.838634     11.838634     23.677268
     -1.886887     14.613214     14.613214     29.226429
     -1.876877     17.033057     17.033057     34.066113
     -1.866867     18.846275     18.846275     37.692551
     -1.856857     19.923044     19.923044     39.846088
     -1.846847     20.294704     20.294704     40.589407
     -1.836837     20.155154     20.155154     40.310308
     -1.826827     19.818821     19.818821     39.637642
     -1.816817     19.634136     19.634136     39.268271
     -1.806807     19.865737     19.865737     39.731474
     -1.796797     20.581558     20.581558     41.163115
     -1.786787     21.596055     21.596055     43.192110
     -1.776777     22.508998     22.508998     45.017996
     -1.766767     22.838332     22.838332     45.676664
     -1.756757     22.197166     22.197166     44.394332
     -1.746747     20.439371     20.439371     40.878743
     -1.736737     17.712763     17.712763     35.425526
     -1.726727     14.404791     14.404791     28.809582
     -1.716717     11.015669     11.015669     22.031337
     -1.706707      8.020158      8.020158     16.040317
     -1.696697      5.770670      5.770670     11.541340
     -1.686687      4.461037      4.461037      8.922074
     -1.676677      4.135309      4.135309      8.270618
     -1.666667      4.710078      4.710078      9.420155
     -1.656657      5.988687      5.988687     11.977375
     -1.646647      7.670558      7.670558     15.341116
     -1.636637      9.378378      9.378378     18.756755
     -1.626627     10.723906     10.723906     21.447813
