# EIG2DOS: Utility for SIESTA to obtain the electronic density of states
#  E. Artacho, Apr 1999, A. Garcia, Apr 2012
#  Nick R. Papior, Feb 2017
# ------------------------------------------
# Eigenvalues calculated from a non-polarized calculation
# Eigenvalues read from siesta.EIG
# Kpoint weights read from siesta.KP
# Using smearing parameter:   0.0500
# Using 1000 points in the energy range
# Selected bands: 1 to: 2981
# Emin, Emax in file for selected band(s):    -27.2578021    218.3796970
# Nbands, Nspin, Nk   =   2981     1     1
# E_F                 =    -4.2180 eV --> (shifted to ZERO)
# Broadening          =     0.0500 eV
#
#        E            N(up)  (=)   N(down)         Ntot
     -5.000000     31.817187     31.817187     63.634374
     -4.989990     36.544645     36.544645     73.089289
     -4.979980     40.983313     40.983313     81.966626
     -4.969970     44.401187     44.401187     88.802373
     -4.959960     46.167960     46.167960     92.335919
     -4.949950     45.963220     45.963220     91.926441
     -4.939940     43.890709     43.890709     87.781419
     -4.929930     40.464598     40.464598     80.929196
     -4.919920     36.493169     36.493169     72.986338
     -4.909910     32.915397     32.915397     65.830795
     -4.899900     30.633424     30.633424     61.266848
     -4.889890     30.351131     30.351131     60.702261
     -4.879880     32.414731     32.414731     64.829463
     -4.869870     36.674724     36.674724     73.349448
     -4.859860     42.428632     42.428632     84.857263
     -4.849850     48.515185     48.515185     97.030370
     -4.839840     53.583248     53.583248    107.166496
     -4.829830     56.469505     56.469505    112.939010
     -4.819820     56.543944     56.543944    113.087889
     -4.809810     53.877013     53.877013    107.754025
     -4.799800     49.159337     49.159337     98.318674
     -4.789790     43.421380     43.421380     86.842761
     -4.779780     37.687188     37.687188     75.374376
     -4.769770     32.705934     32.705934     65.411868
     -4.759760     28.842012     28.842012     57.684023
     -4.749750     26.116983     26.116983     52.233966
     -4.739740     24.337196     24.337196     48.674393
     -4.729730     23.231187     23.231187     46.462375
     -4.719720     22.547796     22.547796     45.095593
     -4.709710     22.101889     22.101889     44.203779
     -4.699700     21.780290     21.780290     43.560580
     -4.689690     21.530353     21.530353     43.060707
     -4.679680     21.350193     21.350193     42.700386
     -4.669670     21.288904     21.288904     42.577808
     -4.659660     21.454609     21.454609     42.909217
     -4.649650     22.022258     22.022258     44.044515
     -4.639640     23.229966     23.229966     46.459932
     -4.629630     25.348336     25.348336     50.696671
     -4.619620     28.606059     28.606059     57.212119
     -4.609610     33.070214     33.070214     66.140428
     -4.599600     38.516176     38.516176     77.032352
     -4.589590     44.360335     44.360335     88.720670
     -4.579580     49.731325     49.731325     99.462651
     -4.569570     53.700374     53.700374    107.400748
     -4.559560     55.600346     55.600346    111.200693
     -4.549550     55.293645     55.293645    110.587289
     -4.539540     53.252686     53.252686    106.505372
     -4.529530     50.398732     50.398732    100.797465
     -4.519520     47.760290     47.760290     95.520579
     -4.509510     46.097281     46.097281     92.194562
     -4.499499     45.648798     45.648798     91.297595
     -4.489489     46.099610     46.099610     92.199220
     -4.479479     46.759543     46.759543     93.519087
     -4.469469     46.860672     46.860672     93.721344
     -4.459459     45.839796     45.839796     91.679593
     -4.449449     43.499571     43.499571     86.999143
     -4.439439     40.011619     40.011619     80.023238
     -4.429429     35.800224     35.800224     71.600449
     -4.419419     31.387841     31.387841     62.775682
     -4.409409     27.275935     27.275935     54.551871
     -4.399399     23.888475     23.888475     47.776949
     -4.389389     21.554979     21.554979     43.109959
     -4.379379     20.490548     20.490548     40.981097
     -4.369369     20.752486     20.752486     41.504973
     -4.359359     22.195570     22.195570     44.391140
     -4.349349     24.473194     24.473194     48.946387
     -4.339339     27.116539     27.116539     54.233077
     -4.329329     29.677832     29.677832     59.355664
     -4.319319     31.879840     31.879840     63.759679
     -4.309309     33.702086     33.702086     67.404172
     -4.299299     35.360488     35.360488     70.720976
     -4.289289     37.182922     37.182922     74.365844
     -4.279279     39.424995     39.424995     78.849990
     -4.269269     42.094702     42.094702     84.189404
     -4.259259     44.858939     44.858939     89.717879
     -4.249249     47.086665     47.086665     94.173329
     -4.239239     48.038668     48.038668     96.077336
     -4.229229     47.148357     47.148357     94.296714
     -4.219219     44.279700     44.279700     88.559400
     -4.209209     39.837700     39.837700     79.675400
     -4.199199     34.664750     34.664750     69.329500
     -4.189189     29.759690     29.759690     59.519381
     -4.179179     25.946189     25.946189     51.892378
     -4.169169     23.638710     23.638710     47.277420
     -4.159159     22.797356     22.797356     45.594711
     -4.149149     23.065419     23.065419     46.130839
     -4.139139     24.001663     24.001663     48.003326
     -4.129129     25.289637     25.289637     50.579273
     -4.119119     26.831413     26.831413     53.662826
     -4.109109     28.692734     28.692734     57.385468
     -4.099099     30.935935     30.935935     61.871871
     -4.089089     33.432936     33.432936     66.865871
     -4.079079     35.769658     35.769658     71.539316
     -4.069069     37.317567     37.317567     74.635134
     -4.059059     37.463020     37.463020     74.926039
     -4.049049     35.891443     35.891443     71.782887
     -4.039039     32.779557     32.779557     65.559114
     -4.029029     28.789704     28.789704     57.579408
     -4.019019     24.865283     24.865283     49.730565
     -4.009009     21.929606     21.929606     43.859213
     -3.998999     20.629008     20.629008     41.258016
     -3.988989     21.217999     21.217999     42.435998
     -3.978979     23.596862     23.596862     47.193725
     -3.968969     27.439034     27.439034     54.878067
     -3.958959     32.326213     32.326213     64.652426
     -3.948949     37.841024     37.841024     75.682047
     -3.938939     43.614982     43.614982     87.229965
     -3.928929     49.355001     49.355001     98.710003
     -3.918919     54.861347     54.861347    109.722694
     -3.908909     60.023507     60.023507    120.047014
     -3.898899     64.770630     64.770630    129.541260
     -3.888889     68.976463     68.976463    137.952926
     -3.878879     72.359886     72.359886    144.719773
     -3.868869     74.447359     74.447359    148.894717
     -3.858859     74.647836     74.647836    149.295672
     -3.848849     72.437236     72.437236    144.874472
     -3.838839     67.587477     67.587477    135.174953
     -3.828829     60.340533     60.340533    120.681065
     -3.818819     51.441933     51.441933    102.883866
     -3.808809     42.005110     42.005110     84.010220
     -3.798799     33.248944     33.248944     66.497888
     -3.788789     26.200439     26.200439     52.400879
     -3.778779     21.461267     21.461267     42.922534
     -3.768769     19.104239     19.104239     38.208478
     -3.758759     18.715562     18.715562     37.431123
     -3.748749     19.555004     19.555004     39.110009
     -3.738739     20.781575     20.781575     41.563149
     -3.728729     21.685970     21.685970     43.371940
     -3.718719     21.876204     21.876204     43.752407
     -3.708709     21.373975     21.373975     42.747949
     -3.698699     20.595767     20.595767     41.191533
     -3.688689     20.215871     20.215871     40.431741
     -3.678679     20.938923     20.938923     41.877846
     -3.668669     23.242313     23.242313     46.484627
     -3.658659     27.171868     27.171868     54.343736
     -3.648649     32.270952     32.270952     64.541904
     -3.638639     37.682858     37.682858     75.365717
     -3.628629     42.397657     42.397657     84.795314
     -3.618619     45.549348     45.549348     91.098696
     -3.608609     46.646332     46.646332     93.292664
     -3.598599     45.655296     45.655296     91.310591
     -3.588589     42.933241     42.933241     85.866482
     -3.578579     39.066596     39.066596     78.133191
     -3.568569     34.694055     34.694055     69.388109
     -3.558559     30.364414     30.364414     60.728829
     -3.548549     26.445741     26.445741     52.891482
     -3.538539     23.086529     23.086529     46.173058
     -3.528529     20.231917     20.231917     40.463834
     -3.518519     17.696616     17.696616     35.393233
     -3.508509     15.277525     15.277525     30.555051
     -3.498498     12.864752     12.864752     25.729504
     -3.488488     10.503908     10.503908     21.007815
     -3.478478      8.384995      8.384995     16.769991
     -3.468468      6.769283      6.769283     13.538566
     -3.458458      5.890361      5.890361     11.780723
     -3.448448      5.867089      5.867089     11.734179
     -3.438438      6.652587      6.652587     13.305173
     -3.428428      8.030461      8.030461     16.060922
     -3.418418      9.662670      9.662670     19.325339
     -3.408408     11.185346     11.185346     22.370691
     -3.398398     12.331978     12.331978     24.663956
     -3.388388     13.043119     13.043119     26.086239
     -3.378378     13.515562     13.515562     27.031124
     -3.368368     14.163707     14.163707     28.327413
     -3.358358     15.503582     15.503582     31.007165
     -3.348348     18.000885     18.000885     36.001771
     -3.338338     21.928190     21.928190     43.856379
     -3.328328     27.257001     27.257001     54.514003
     -3.318318     33.592998     33.592998     67.185996
     -3.308308     40.168485     40.168485     80.336970
     -3.298298     45.925496     45.925496     91.850992
     -3.288288     49.720073     49.720073     99.440145
     -3.278278     50.627382     50.627382    101.254765
     -3.268268     48.249430     48.249430     96.498860
     -3.258258     42.884352     42.884352     85.768703
     -3.248248     35.459174     35.459174     70.918347
     -3.238238     27.243301     27.243301     54.486602
     -3.228228     19.473247     19.473247     38.946495
     -3.218218     13.053640     13.053640     26.107280
     -3.208208      8.438272      8.438272     16.876545
     -3.198198      5.688349      5.688349     11.376699
     -3.188188      4.624807      4.624807      9.249614
     -3.178178      4.977111      4.977111      9.954222
     -3.168168      6.471749      6.471749     12.943499
     -3.158158      8.859571      8.859571     17.719141
     -3.148148     11.914825     11.914825     23.829650
     -3.138138     15.436253     15.436253     30.872506
     -3.128128     19.253953     19.253953     38.507906
     -3.118118     23.222312     23.222312     46.444623
     -3.108108     27.181992     27.181992     54.363984
     -3.098098     30.903599     30.903599     61.807198
     -3.088088     34.056941     34.056941     68.113882
     -3.078078     36.250430     36.250430     72.500861
     -3.068068     37.144438     37.144438     74.288877
     -3.058058     36.585952     36.585952     73.171904
     -3.048048     34.684415     34.684415     69.368829
     -3.038038     31.777116     31.777116     63.554232
     -3.028028     28.300953     28.300953     56.601906
     -3.018018     24.646773     24.646773     49.293546
     -3.008008     21.079603     21.079603     42.159206
     -2.997998     17.759458     17.759458     35.518917
     -2.987988     14.830811     14.830811     29.661622
     -2.977978     12.510669     12.510669     25.021338
     -2.967968     11.115142     11.115142     22.230284
     -2.957958     11.005828     11.005828     22.011656
     -2.947948     12.478436     12.478436     24.956872
     -2.937938     15.636890     15.636890     31.273781
     -2.927928     20.297690     20.297690     40.595380
     -2.917918     25.961316     25.961316     51.922631
     -2.907908     31.873652     31.873652     63.747305
     -2.897898     37.176910     37.176910     74.353820
     -2.887888     41.115989     41.115989     82.231979
     -2.877878     43.234518     43.234518     86.469037
     -2.867868     43.484947     43.484947     86.969895
     -2.857858     42.202734     42.202734     84.405469
     -2.847848     39.950129     39.950129     79.900259
     -2.837838     37.294869     37.294869     74.589739
     -2.827828     34.620941     34.620941     69.241881
     -2.817818     32.052625     32.052625     64.105251
     -2.807808     29.515116     29.515116     59.030232
     -2.797798     26.885193     26.885193     53.770387
     -2.787788     24.141862     24.141862     48.283723
     -2.777778     21.433405     21.433405     42.866810
     -2.767768     19.029784     19.029784     38.059569
     -2.757758     17.197188     17.197188     34.394376
     -2.747748     16.075600     16.075600     32.151200
     -2.737738     15.634695     15.634695     31.269390
     -2.727728     15.731324     15.731324     31.462649
     -2.717718     16.224966     16.224966     32.449931
     -2.707708     17.068584     17.068584     34.137169
     -2.697698     18.308787     18.308787     36.617575
     -2.687688     19.993048     19.993048     39.986097
     -2.677678     22.051301     22.051301     44.102602
     -2.667668     24.244639     24.244639     48.489277
     -2.657658     26.233039     26.233039     52.466078
     -2.647648     27.731656     27.731656     55.463312
     -2.637638     28.658920     28.658920     57.317839
     -2.627628     29.178926     29.178926     58.357853
     -2.617618     29.608205     29.608205     59.216411
     -2.607608     30.244647     30.244647     60.489294
     -2.597598     31.220706     31.220706     62.441412
     -2.587588     32.455035     32.455035     64.910070
     -2.577578     33.703970     33.703970     67.407939
     -2.567568     34.656186     34.656186     69.312373
     -2.557558     35.011250     35.011250     70.022500
     -2.547548     34.525805     34.525805     69.051610
     -2.537538     33.052585     33.052585     66.105169
     -2.527528     30.597783     30.597783     61.195565
     -2.517518     27.384776     27.384776     54.769552
     -2.507508     23.875978     23.875978     47.751957
     -2.497497     20.706966     20.706966     41.413933
     -2.487487     18.530590     18.530590     37.061180
     -2.477477     17.822867     17.822867     35.645733
     -2.467467     18.731008     18.731008     37.462017
     -2.457457     21.031083     21.031083     42.062166
     -2.447447     24.217378     24.217378     48.434755
     -2.437437     27.689444     27.689444     55.378889
     -2.427427     30.959596     30.959596     61.919192
     -2.417417     33.791715     33.791715     67.583431
     -2.407407     36.209793     36.209793     72.419586
     -2.397397     38.373301     38.373301     76.746601
     -2.387387     40.381551     40.381551     80.763102
     -2.377377     42.108892     42.108892     84.217784
     -2.367367     43.164233     43.164233     86.328466
     -2.357357     43.011140     43.011140     86.022280
     -2.347347     41.203248     41.203248     82.406496
     -2.337337     37.625655     37.625655     75.251310
     -2.327327     32.623776     32.623776     65.247552
     -2.317317     26.955511     26.955511     53.911022
     -2.307307     21.590011     21.590011     43.180021
     -2.297297     17.445060     17.445060     34.890120
     -2.287287     15.168256     15.168256     30.336511
     -2.277277     15.027055     15.027055     30.054109
     -2.267267     16.913782     16.913782     33.827565
     -2.257257     20.429775     20.429775     40.859551
     -2.247247     25.001572     25.001572     50.003144
     -2.237237     29.992318     29.992318     59.984637
     -2.227227     34.787892     34.787892     69.575784
     -2.217217     38.851424     38.851424     77.702849
     -2.207207     41.751797     41.751797     83.503594
     -2.197197     43.181201     43.181201     86.362402
     -2.187187     42.979249     42.979249     85.958497
     -2.177177     41.169926     41.169926     82.339852
     -2.167167     37.994689     37.994689     75.989377
     -2.157157     33.905257     33.905257     67.810513
     -2.147147     29.484092     29.484092     58.968184
     -2.137137     25.296659     25.296659     50.593318
     -2.127127     21.728318     21.728318     43.456637
     -2.117117     18.883712     18.883712     37.767424
     -2.107107     16.602840     16.602840     33.205679
     -2.097097     14.585966     14.585966     29.171932
     -2.087087     12.559728     12.559728     25.119457
     -2.077077     10.399450     10.399450     20.798900
     -2.067067      8.156542      8.156542     16.313084
     -2.057057      5.998102      5.998102     11.996203
     -2.047047      4.108990      4.108990      8.217979
     -2.037037      2.612337      2.612337      5.224674
     -2.027027      1.538838      1.538838      3.077677
     -2.017017      0.842130      0.842130      1.684259
     -2.007007      0.437948      0.437948      0.875895
     -1.996997      0.244326      0.244326      0.488653
     -1.986987      0.211188      0.211188      0.422376
     -1.976977      0.338931      0.338931      0.677862
     -1.966967      0.689840      0.689840      1.379681
     -1.956957      1.392471      1.392471      2.784942
     -1.946947      2.631654      2.631654      5.263308
     -1.936937      4.612211      4.612211      9.224423
     -1.926927      7.489643      7.489643     14.979287
     -1.916917     11.278479     11.278479     22.556958
     -1.906907     15.771924     15.771924     31.543848
     -1.896897     20.519106     20.519106     41.038212
     -1.886887     24.893128     24.893128     49.786256
     -1.876877     28.243619     28.243619     56.487239
     -1.866867     30.082054     30.082054     60.164109
     -1.856857     30.226124     30.226124     60.452248
     -1.846847     28.846259     28.846259     57.692518
     -1.836837     26.401163     26.401163     52.802325
     -1.826827     23.492212     23.492212     46.984425
     -1.816817     20.688813     20.688813     41.377626
     -1.806807     18.377809     18.377809     36.755619
     -1.796797     16.679583     16.679583     33.359167
     -1.786787     15.455559     15.455559     30.911117
     -1.776777     14.404067     14.404067     28.808135
     -1.766767     13.207293     13.207293     26.414587
     -1.756757     11.667878     11.667878     23.335756
     -1.746747      9.778538      9.778538     19.557076
     -1.736737      7.703571      7.703571     15.407142
     -1.726727      5.696663      5.696663     11.393326
     -1.716717      4.006358      4.006358      8.012716
     -1.706707      2.814456      2.814456      5.628913
     -1.696697      2.222317      2.222317      4.444635
     -1.686687      2.268164      2.268164      4.536328
     -1.676677      2.944326      2.944326      5.888653
     -1.666667      4.192219      4.192219      8.384439
     -1.656657      5.876474      5.876474     11.752947
     -1.646647      7.762671      7.762671     15.525342
     -1.636637      9.530832      9.530832     19.061664
     -1.626627     10.842268     10.842268     21.684536
