# EIG2DOS: Utility for SIESTA to obtain the electronic density of states
#  E. Artacho, Apr 1999, A. Garcia, Apr 2012
#  Nick R. Papior, Feb 2017
# ------------------------------------------
# Eigenvalues calculated from a non-polarized calculation
# Eigenvalues read from siesta.EIG
# Kpoint weights read from siesta.KP
# Using smearing parameter:   0.0500
# Using 1000 points in the energy range
# Selected bands: 1 to: 2981
# Emin, Emax in file for selected band(s):    -27.0582089    218.3373610
# Nbands, Nspin, Nk   =   2981     1     1
# E_F                 =    -4.2733 eV --> (shifted to ZERO)
# Broadening          =     0.0500 eV
#
#        E            N(up)  (=)   N(down)         Ntot
     -5.000000     38.782572     38.782572     77.565144
     -4.989990     40.855132     40.855132     81.710264
     -4.979980     42.666840     42.666840     85.333680
     -4.969970     43.804914     43.804914     87.609828
     -4.959960     43.912234     43.912234     87.824468
     -4.949950     42.820975     42.820975     85.641949
     -4.939940     40.621004     40.621004     81.242008
     -4.929930     37.657055     37.657055     75.314110
     -4.919920     34.477851     34.477851     68.955702
     -4.909910     31.762737     31.762737     63.525474
     -4.899900     30.230617     30.230617     60.461233
     -4.889890     30.514307     30.514307     61.028613
     -4.879880     32.988339     32.988339     65.976677
     -4.869870     37.579863     37.579863     75.159725
     -4.859860     43.646534     43.646534     87.293067
     -4.849850     50.023515     50.023515    100.047031
     -4.839840     55.288044     55.288044    110.576087
     -4.829830     58.178480     58.178480    116.356960
     -4.819820     58.001911     58.001911    116.003823
     -4.809810     54.845245     54.845245    109.690490
     -4.799800     49.494210     49.494210     98.988420
     -4.789790     43.111718     43.111718     86.223436
     -4.779780     36.838888     36.838888     73.677775
     -4.769770     31.492859     31.492859     62.985718
     -4.759760     27.452731     27.452731     54.905462
     -4.749750     24.715665     24.715665     49.431331
     -4.739740     23.038642     23.038642     46.077284
     -4.729730     22.080310     22.080310     44.160620
     -4.719720     21.496949     21.496949     42.993898
     -4.709710     20.988613     20.988613     41.977226
     -4.699700     20.315547     20.315547     40.631095
     -4.689690     19.310407     19.310407     38.620814
     -4.679680     17.904326     17.904326     35.808652
     -4.669670     16.168444     16.168444     32.336889
     -4.659660     14.353257     14.353257     28.706514
     -4.649650     12.896531     12.896531     25.793061
     -4.639640     12.374195     12.374195     24.748390
     -4.629630     13.385740     13.385740     26.771480
     -4.619620     16.388133     16.388133     32.776266
     -4.609610     21.514639     21.514639     43.029278
     -4.599600     28.435029     28.435029     56.870058
     -4.589590     36.324229     36.324229     72.648458
     -4.579580     43.991563     43.991563     87.983125
     -4.569570     50.170790     50.170790    100.341580
     -4.559560     53.894641     53.894641    107.789282
     -4.549550     54.816607     54.816607    109.633214
     -4.539540     53.341105     53.341105    106.682211
     -4.529530     50.493930     50.493930    100.987859
     -4.519520     47.575970     47.575970     95.151940
     -4.509510     45.735688     45.735688     91.471375
     -4.499499     45.622170     45.622170     91.244339
     -4.489489     47.232814     47.232814     94.465628
     -4.479479     49.980120     49.980120     99.960239
     -4.469469     52.919597     52.919597    105.839193
     -4.459459     55.040635     55.040635    110.081270
     -4.449449     55.529274     55.529274    111.058548
     -4.439439     53.946307     53.946307    107.892613
     -4.429429     50.300957     50.300957    100.601913
     -4.419419     45.025560     45.025560     90.051119
     -4.409409     38.869955     38.869955     77.739910
     -4.399399     32.740981     32.740981     65.481963
     -4.389389     27.516703     27.516703     55.033406
     -4.379379     23.868698     23.868698     47.737396
     -4.369369     22.128687     22.128687     44.257375
     -4.359359     22.234236     22.234236     44.468471
     -4.349349     23.775388     23.775388     47.550777
     -4.339339     26.136313     26.136313     52.272627
     -4.329329     28.690744     28.690744     57.381488
     -4.319319     30.985277     30.985277     61.970554
     -4.309309     32.847009     32.847009     65.694017
     -4.299299     34.382674     34.382674     68.765348
     -4.289289     35.878358     35.878358     71.756715
     -4.279279     37.640390     37.640390     75.280781
     -4.269269     39.829882     39.829882     79.659764
     -4.259259     42.341885     42.341885     84.683771
     -4.249249     44.773821     44.773821     89.547643
     -4.239239     46.512620     46.512620     93.025241
     -4.229229     46.933923     46.933923     93.867847
     -4.219219     45.651163     45.651163     91.302326
     -4.209209     42.706675     42.706675     85.413350
     -4.199199     38.602227     38.602227     77.204455
     -4.189189     34.137191     34.137191     68.274381
     -4.179179     30.124097     30.124097     60.248194
     -4.169169     27.118692     27.118692     54.237383
     -4.159159     25.289848     25.289848     50.579695
     -4.149149     24.473661     24.473661     48.947323
     -4.139139     24.359482     24.359482     48.718963
     -4.129129     24.698258     24.698258     49.396516
     -4.119119     25.426514     25.426514     50.853029
     -4.109109     26.649223     26.649223     53.298445
     -4.099099     28.494876     28.494876     56.989751
     -4.089089     30.920504     30.920504     61.841008
     -4.079079     33.578778     33.578778     67.157556
     -4.069069     35.841432     35.841432     71.682865
     -4.059059     36.998496     36.998496     73.996993
     -4.049049     36.552338     36.552338     73.104675
     -4.039039     34.459133     34.459133     68.918266
     -4.029029     31.187518     31.187518     62.375035
     -4.019019     27.561743     27.561743     55.123485
     -4.009009     24.474347     24.474347     48.948694
     -3.998999     22.615146     22.615146     45.230292
     -3.988989     22.333666     22.333666     44.667333
     -3.978979     23.659356     23.659356     47.318712
     -3.968969     26.415560     26.415560     52.831120
     -3.958959     30.334798     30.334798     60.669596
     -3.948949     35.120406     35.120406     70.240813
     -3.938939     40.461991     40.461991     80.923982
     -3.928929     46.047209     46.047209     92.094418
     -3.918919     51.597569     51.597569    103.195138
     -3.908909     56.912158     56.912158    113.824316
     -3.898899     61.873800     61.873800    123.747600
     -3.888889     66.385991     66.385991    132.771982
     -3.878879     70.258782     70.258782    140.517563
     -3.868869     73.111517     73.111517    146.223034
     -3.858859     74.372446     74.372446    148.744892
     -3.848849     73.415379     73.415379    146.830758
     -3.838839     69.799883     69.799883    139.599767
     -3.828829     63.514670     63.514670    127.029339
     -3.818819     55.104774     55.104774    110.209549
     -3.808809     45.607587     45.607587     91.215173
     -3.798799     36.308903     36.308903     72.617806
     -3.788789     28.410409     28.410409     56.820817
     -3.778779     22.731872     22.731872     45.463744
     -3.768769     19.544614     19.544614     39.089227
     -3.758759     18.571587     18.571587     37.143174
     -3.748749     19.130125     19.130125     38.260250
     -3.738739     20.359393     20.359393     40.718786
     -3.728729     21.467242     21.467242     42.934484
     -3.718719     21.939013     21.939013     43.878026
     -3.708709     21.663610     21.663610     43.327220
     -3.698699     20.947336     20.947336     41.894672
     -3.688689     20.406524     20.406524     40.813049
     -3.678679     20.758516     20.758516     41.517032
     -3.668669     22.563963     22.563963     45.127926
     -3.658659     26.000663     26.000663     52.001325
     -3.648649     30.753348     30.753348     61.506695
     -3.638639     36.071782     36.071782     72.143565
     -3.628629     40.985028     40.985028     81.970056
     -3.618619     44.590488     44.590488     89.180976
     -3.608609     46.302215     46.302215     92.604430
     -3.598599     45.967936     45.967936     91.935872
     -3.588589     43.834008     43.834008     87.668016
     -3.578579     40.406460     40.406460     80.812920
     -3.568569     36.283058     36.283058     72.566115
     -3.558559     32.011483     32.011483     64.022965
     -3.548549     27.993100     27.993100     55.986200
     -3.538539     24.433042     24.433042     48.866084
     -3.528529     21.339798     21.339798     42.679596
     -3.518519     18.579872     18.579872     37.159744
     -3.508509     15.977616     15.977616     31.955232
     -3.498498     13.424485     13.424485     26.848970
     -3.488488     10.950195     10.950195     21.900391
     -3.478478      8.725123      8.725123     17.450247
     -3.468468      6.998163      6.998163     13.996327
     -3.458458      6.002287      6.002287     12.004575
     -3.448448      5.865848      5.865848     11.731697
     -3.438438      6.556299      6.556299     13.112597
     -3.428428      7.869723      7.869723     15.739446
     -3.418418      9.471885      9.471885     18.943770
     -3.408408     10.988454     10.988454     21.976908
     -3.398398     12.125647     12.125647     24.251293
     -3.388388     12.781631     12.781631     25.563262
     -3.378378     13.100477     13.100477     26.200955
     -3.368368     13.438091     13.438091     26.876182
     -3.358358     14.248532     14.248532     28.497064
     -3.348348     15.935332     15.935332     31.870664
     -3.338338     18.721658     18.721658     37.443317
     -3.328328     22.572200     22.572200     45.144400
     -3.318318     27.169923     27.169923     54.339846
     -3.308308     31.938939     31.938939     63.877878
     -3.298298     36.116097     36.116097     72.232194
     -3.288288     38.885587     38.885587     77.771175
     -3.278278     39.574169     39.574169     79.148339
     -3.268268     37.858579     37.858579     75.717159
     -3.258258     33.897390     33.897390     67.794781
     -3.248248     28.310493     28.310493     56.620986
     -3.238238     21.997646     21.997646     43.995291
     -3.228228     15.871201     15.871201     31.742401
     -3.218218     10.619240     10.619240     21.238481
     -3.208208      6.588411      6.588411     13.176823
     -3.198198      3.805531      3.805531      7.611063
     -3.188188      2.093107      2.093107      4.186215
     -3.178178      1.210314      1.210314      2.420628
     -3.168168      0.966956      0.966956      1.933913
     -3.158158      1.289129      1.289129      2.578258
     -3.148148      2.237823      2.237823      4.475647
     -3.138138      3.987464      3.987464      7.974927
     -3.128128      6.767540      6.767540     13.535081
     -3.118118     10.769778     10.769778     21.539557
     -3.108108     16.033515     16.033515     32.067031
     -3.098098     22.340652     22.340652     44.681304
     -3.088088     29.166396     29.166396     58.332792
     -3.078078     35.727799     35.727799     71.455598
     -3.068068     41.140970     41.140970     82.281941
     -3.058058     44.648431     44.648431     89.296863
     -3.048048     45.835400     45.835400     91.670799
     -3.038038     44.746313     44.746313     89.492625
     -3.028028     41.852132     41.852132     83.704264
     -3.018018     37.886736     37.886736     75.773472
     -3.008008     33.627973     33.627973     67.255945
     -2.997998     29.713176     29.713176     59.426353
     -2.987988     26.547725     26.547725     53.095449
     -2.977978     24.314521     24.314521     48.629042
     -2.967968     23.052207     23.052207     46.104413
     -2.957958     22.752534     22.752534     45.505068
     -2.947948     23.428123     23.428123     46.856246
     -2.937938     25.115627     25.115627     50.231254
     -2.927928     27.807626     27.807626     55.615252
     -2.917918     31.346599     31.346599     62.693197
     -2.907908     35.347527     35.347527     70.695053
     -2.897898     39.215402     39.215402     78.430804
     -2.887888     42.279513     42.279513     84.559026
     -2.877878     43.998850     43.998850     87.997700
     -2.867868     44.144082     44.144082     88.288164
     -2.857858     42.864402     42.864402     85.728803
     -2.847848     40.603086     40.603086     81.206171
     -2.837838     37.902229     37.902229     75.804457
     -2.827828     35.191848     35.191848     70.383697
     -2.817818     32.662304     32.662304     65.324607
     -2.807808     30.271626     30.271626     60.543251
     -2.797798     27.867743     27.867743     55.735485
     -2.787788     25.348088     25.348088     50.696177
     -2.777778     22.765534     22.765534     45.531069
     -2.767768     20.325909     20.325909     40.651817
     -2.757758     18.287540     18.287540     36.575080
     -2.747748     16.830291     16.830291     33.660582
     -2.737738     15.977386     15.977386     31.954772
     -2.727728     15.618043     15.618043     31.236086
     -2.717718     15.613102     15.613102     31.226205
     -2.707708     15.910268     15.910268     31.820537
     -2.697698     16.587034     16.587034     33.174068
     -2.687688     17.785956     17.785956     35.571912
     -2.677678     19.580518     19.580518     39.161036
     -2.667668     21.861730     21.861730     43.723460
     -2.657658     24.328700     24.328700     48.657400
     -2.647648     26.601427     26.601427     53.202855
     -2.637638     28.392570     28.392570     56.785141
     -2.627628     29.633020     29.633020     59.266040
     -2.617618     30.474876     30.474876     60.949752
     -2.607608     31.175910     31.175910     62.351820
     -2.597598     31.944036     31.944036     63.888073
     -2.587588     32.835377     32.835377     65.670754
     -2.577578     33.748734     33.748734     67.497467
     -2.567568     34.488230     34.488230     68.976460
     -2.557558     34.832552     34.832552     69.665104
     -2.547548     34.574177     34.574177     69.148355
     -2.537538     33.542533     33.542533     67.085066
     -2.527528     31.648274     31.648274     63.296547
     -2.517518     28.959028     28.959028     57.918056
     -2.507508     25.767040     25.767040     51.534080
     -2.497497     22.585563     22.585563     45.171126
     -2.487487     20.039501     20.039501     40.079001
     -2.477477     18.678085     18.678085     37.356170
     -2.467467     18.789263     18.789263     37.578526
     -2.457457     20.303227     20.303227     40.606454
     -2.447447     22.833116     22.833116     45.666233
     -2.437437     25.837143     25.837143     51.674285
     -2.427427     28.829740     28.829740     57.659479
     -2.417417     31.545625     31.545625     63.091250
     -2.407407     33.981205     33.981205     67.962410
     -2.397397     36.295011     36.295011     72.590022
     -2.387387     38.617476     38.617476     77.234952
     -2.377377     40.867679     40.867679     81.735357
     -2.367367     42.676478     42.676478     85.352957
     -2.357357     43.468383     43.468383     86.936766
     -2.347347     42.678406     42.678406     85.356812
     -2.337337     40.010937     40.010937     80.021874
     -2.327327     35.621335     35.621335     71.242671
     -2.317317     30.134373     30.134373     60.268746
     -2.307307     24.490624     24.490624     48.981248
     -2.297297     19.689658     19.689658     39.379316
     -2.287287     16.534951     16.534951     33.069901
     -2.277277     15.466491     15.466491     30.932981
     -2.267267     16.514802     16.514802     33.029604
     -2.257257     19.359854     19.359854     38.719707
     -2.247247     23.452011     23.452011     46.904023
     -2.237237     28.149111     28.149111     56.298221
     -2.227227     32.832459     32.832459     65.664919
     -2.217217     36.978189     36.978189     73.956377
     -2.207207     40.179199     40.179199     80.358397
     -2.197197     42.135494     42.135494     84.270988
     -2.187187     42.646424     42.646424     85.292849
     -2.177177     41.632975     41.632975     83.265949
     -2.167167     39.188398     39.188398     78.376797
     -2.157157     35.618460     35.618460     71.236919
     -2.147147     31.418332     31.418332     62.836664
     -2.137137     27.160835     27.160835     54.321669
     -2.127127     23.327896     23.327896     46.655791
     -2.117117     20.164199     20.164199     40.328398
     -2.107107     17.631029     17.631029     35.262058
     -2.097097     15.484983     15.484983     30.969966
     -2.087087     13.435439     13.435439     26.870877
     -2.077077     11.294280     11.294280     22.588561
     -2.067067      9.045907      9.045907     18.091815
     -2.057057      6.819675      6.819675     13.639351
     -2.047047      4.801278      4.801278      9.602557
     -2.037037      3.141478      3.141478      6.282955
     -2.027027      1.905161      1.905161      3.810322
     -2.017017      1.070447      1.070447      2.140895
     -2.007007      0.560851      0.560851      1.121702
     -1.996997      0.285688      0.285688      0.571376
     -1.986987      0.171633      0.171633      0.343265
     -1.976977      0.180672      0.180672      0.361344
     -1.966967      0.317722      0.317722      0.635444
     -1.956957      0.631964      0.631964      1.263927
     -1.946947      1.211942      1.211942      2.423884
     -1.936937      2.170196      2.170196      4.340391
     -1.926927      3.613063      3.613063      7.226126
     -1.916917      5.597407      5.597407     11.194813
     -1.906907      8.086040      8.086040     16.172080
     -1.896897     10.921225     10.921225     21.842450
     -1.886887     13.833719     13.833719     27.667437
     -1.876877     16.491936     16.491936     32.983871
     -1.866867     18.578480     18.578480     37.156960
     -1.856857     19.869797     19.869797     39.739595
     -1.846847     20.294117     20.294117     40.588233
     -1.836837     19.950013     19.950013     39.900026
     -1.826827     19.077070     19.077070     38.154140
     -1.816817     17.980990     17.980990     35.961981
     -1.806807     16.931573     16.931573     33.863146
     -1.796797     16.070689     16.070689     32.141378
     -1.786787     15.374911     15.374911     30.749822
     -1.776777     14.699204     14.699204     29.398408
     -1.766767     13.886288     13.886288     27.772576
     -1.756757     12.885049     12.885049     25.770099
     -1.746747     11.810367     11.810367     23.620734
     -1.736737     10.907060     10.907060     21.814121
     -1.726727     10.434962     10.434962     20.869924
     -1.716717     10.537214     10.537214     21.074428
     -1.706707     11.163502     11.163502     22.327004
     -1.696697     12.089739     12.089739     24.179478
     -1.686687     13.022886     13.022886     26.045772
     -1.676677     13.732698     13.732698     27.465397
     -1.666667     14.137203     14.137203     28.274406
     -1.656657     14.296052     14.296052     28.592104
     -1.646647     14.321751     14.321751     28.643503
     -1.636637     14.269856     14.269856     28.539712
     -1.626627     14.082151     14.082151     28.164301
