# EIG2DOS: Utility for SIESTA to obtain the electronic density of states
#  E. Artacho, Apr 1999, A. Garcia, Apr 2012
#  Nick R. Papior, Feb 2017
# ------------------------------------------
# Eigenvalues calculated from a non-polarized calculation
# Eigenvalues read from siesta.EIG
# Kpoint weights read from siesta.KP
# Using smearing parameter:   0.0500
# Using 1000 points in the energy range
# Selected bands: 1 to: 2981
# Emin, Emax in file for selected band(s):    -27.0502712    218.3078160
# Nbands, Nspin, Nk   =   2981     1     1
# E_F                 =    -4.3052 eV --> (shifted to ZERO)
# Broadening          =     0.0500 eV
#
#        E            N(up)  (=)   N(down)         Ntot
     -5.000000     44.902456     44.902456     89.804911
     -4.989990     47.011114     47.011114     94.022228
     -4.979980     47.961874     47.961874     95.923747
     -4.969970     47.780968     47.780968     95.561936
     -4.959960     46.552705     46.552705     93.105409
     -4.949950     44.409782     44.409782     88.819564
     -4.939940     41.549440     41.549440     83.098879
     -4.929930     38.262886     38.262886     76.525772
     -4.919920     34.960715     34.960715     69.921430
     -4.909910     32.176758     32.176758     64.353516
     -4.899900     30.530175     30.530175     61.060349
     -4.889890     30.623570     30.623570     61.247140
     -4.879880     32.868995     32.868995     65.737990
     -4.869870     37.275718     37.275718     74.551437
     -4.859860     43.288823     43.288823     86.577647
     -4.849850     49.792522     49.792522     99.585043
     -4.839840     55.345409     55.345409    110.690817
     -4.829830     58.601036     58.601036    117.202072
     -4.819820     58.749379     58.749379    117.498759
     -4.809810     55.776902     55.776902    111.553805
     -4.799800     50.423753     50.423753    100.847506
     -4.789790     43.871837     43.871837     87.743675
     -4.779780     37.327750     37.327750     74.655500
     -4.769770     31.689887     31.689887     63.379774
     -4.759760     27.407918     27.407918     54.815837
     -4.749750     24.524651     24.524651     49.049302
     -4.739740     22.814059     22.814059     45.628117
     -4.729730     21.925039     21.925039     43.850078
     -4.719720     21.482621     21.482621     42.965243
     -4.709710     21.143009     21.143009     42.286018
     -4.699700     20.621640     20.621640     41.243280
     -4.689690     19.715666     19.715666     39.431333
     -4.679680     18.334018     18.334018     36.668035
     -4.669670     16.535417     16.535417     33.070833
     -4.659660     14.560931     14.560931     29.121862
     -4.649650     12.838993     12.838993     25.677986
     -4.639640     11.942706     11.942706     23.885412
     -4.629630     12.490636     12.490636     24.981272
     -4.619620     14.997555     14.997555     29.995110
     -4.609610     19.698740     19.698740     39.397481
     -4.599600     26.392334     26.392334     52.784668
     -4.589590     34.364550     34.364550     68.729101
     -4.579580     42.463928     42.463928     84.927855
     -4.569570     49.352242     49.352242     98.704483
     -4.559560     53.882017     53.882017    107.764033
     -4.549550     55.470044     55.470044    110.940087
     -4.539540     54.306925     54.306925    108.613850
     -4.529530     51.296235     51.296235    102.592469
     -4.519520     47.734151     47.734151     95.468302
     -4.509510     44.859154     44.859154     89.718308
     -4.499499     43.456540     43.456540     86.913080
     -4.489489     43.667323     43.667323     87.334645
     -4.479479     45.050073     45.050073     90.100146
     -4.469469     46.833649     46.833649     93.667297
     -4.459459     48.231463     48.231463     96.462926
     -4.449449     48.687586     48.687586     97.375172
     -4.439439     47.980081     47.980081     95.960161
     -4.429429     46.183708     46.183708     92.367416
     -4.419419     43.554532     43.554532     87.109064
     -4.409409     40.416787     40.416787     80.833575
     -4.399399     37.103710     37.103710     74.207419
     -4.389389     33.950098     33.950098     67.900196
     -4.379379     31.292207     31.292207     62.584414
     -4.369369     29.429905     29.429905     58.859810
     -4.359359     28.546606     28.546606     57.093212
     -4.349349     28.631350     28.631350     57.262700
     -4.339339     29.463752     29.463752     58.927504
     -4.329329     30.690872     30.690872     61.381743
     -4.319319     31.968180     31.968180     63.936360
     -4.309309     33.096374     33.096374     66.192748
     -4.299299     34.088278     34.088278     68.176555
     -4.289289     35.138248     35.138248     70.276496
     -4.279279     36.511018     36.511018     73.022037
     -4.269269     38.393895     38.393895     76.787791
     -4.259259     40.763411     40.763411     81.526821
     -4.249249     43.315347     43.315347     86.630694
     -4.239239     45.498222     45.498222     90.996444
     -4.229229     46.664040     46.664040     93.328080
     -4.219219     46.299715     46.299715     92.599431
     -4.209209     44.247294     44.247294     88.494588
     -4.199199     40.802346     40.802346     81.604692
     -4.189189     36.626956     36.626956     73.253911
     -4.179179     32.509569     32.509569     65.019138
     -4.169169     29.088947     29.088947     58.177895
     -4.159159     26.676146     26.676146     53.352292
     -4.149149     25.247214     25.247214     50.494428
     -4.139139     24.583865     24.583865     49.167729
     -4.129129     24.468495     24.468495     48.936991
     -4.119119     24.825918     24.825918     49.651836
     -4.109109     25.741558     25.741558     51.483115
     -4.099099     27.349940     27.349940     54.699880
     -4.089089     29.652738     29.652738     59.305475
     -4.079079     32.369110     32.369110     64.738219
     -4.069069     34.919030     34.919030     69.838060
     -4.059059     36.581025     36.581025     73.162049
     -4.049049     36.769424     36.769424     73.538848
     -4.039039     35.297185     35.297185     70.594371
     -4.029029     32.484634     32.484634     64.969267
     -4.019019     29.054705     29.054705     58.109410
     -4.009009     25.873457     25.873457     51.746914
     -3.998999     23.673453     23.673453     47.346907
     -3.988989     22.887939     22.887939     45.775878
     -3.978979     23.639772     23.639772     47.279543
     -3.968969     25.834941     25.834941     51.669882
     -3.958959     29.269487     29.269487     58.538974
     -3.948949     33.687952     33.687952     67.375904
     -3.938939     38.795152     38.795152     77.590303
     -3.928929     44.265410     44.265410     88.530820
     -3.918919     49.783916     49.783916     99.567831
     -3.908909     55.108752     55.108752    110.217504
     -3.898899     60.103485     60.103485    120.206970
     -3.888889     64.694579     64.694579    129.389159
     -3.878879     68.756071     68.756071    137.512143
     -3.868869     71.983321     71.983321    143.966643
     -3.858859     73.846292     73.846292    147.692584
     -3.848849     73.686190     73.686190    147.372380
     -3.838839     70.945873     70.945873    141.891746
     -3.828829     65.443067     65.443067    130.886134
     -3.818819     57.555132     57.555132    115.110265
     -3.808809     48.213798     48.213798     96.427596
     -3.798799     38.694981     38.694981     77.389963
     -3.788789     30.283478     30.283478     60.566956
     -3.778779     23.942243     23.942243     47.884485
     -3.768769     20.100176     20.100176     40.200352
     -3.758759     18.610980     18.610980     37.221960
     -3.748749     18.869060     18.869060     37.738120
     -3.738739     20.026735     20.026735     40.053470
     -3.728729     21.245500     21.245500     42.491000
     -3.718719     21.920983     21.920983     43.841966
     -3.708709     21.833863     21.833863     43.667726
     -3.698699     21.193128     21.193128     42.386255
     -3.688689     20.556720     20.556720     41.113440
     -3.678679     20.641552     20.641552     41.283104
     -3.668669     22.068638     22.068638     44.137277
     -3.658659     25.119889     25.119889     50.239778
     -3.648649     29.594348     29.594348     59.188696
     -3.638639     34.827669     34.827669     69.655337
     -3.628629     39.878471     39.878471     79.756942
     -3.618619     43.812237     43.812237     87.624474
     -3.608609     45.967880     45.967880     91.935761
     -3.598599     46.104946     46.104946     92.209892
     -3.588589     44.394716     44.394716     88.789432
     -3.578579     41.293729     41.293729     82.587459
     -3.568569     37.376048     37.376048     74.752096
     -3.558559     33.187197     33.187197     66.374394
     -3.548549     29.144754     29.144754     58.289508
     -3.538539     25.485242     25.485242     50.970483
     -3.528529     22.256433     22.256433     44.512866
     -3.518519     19.360029     19.360029     38.720059
     -3.508509     16.639941     16.639941     33.279881
     -3.498498     13.987200     13.987200     27.974401
     -3.488488     11.416512     11.416512     22.833024
     -3.478478      9.080137      9.080137     18.160274
     -3.468468      7.216838      7.216838     14.433676
     -3.458458      6.063453      6.063453     12.126907
     -3.448448      5.766230      5.766230     11.532460
     -3.438438      6.319835      6.319835     12.639670
     -3.428428      7.548717      7.548717     15.097435
     -3.418418      9.137715      9.137715     18.275430
     -3.408408     10.712206     10.712206     21.424411
     -3.398398     11.953598     11.953598     23.907195
     -3.388388     12.714659     12.714659     25.429318
     -3.378378     13.086601     13.086601     26.173202
     -3.368368     13.382218     13.382218     26.764436
     -3.358358     14.036064     14.036064     28.072128
     -3.348348     15.461755     15.461755     30.923510
     -3.338338     17.921212     17.921212     35.842424
     -3.328328     21.442519     21.442519     42.885037
     -3.318318     25.790586     25.790586     51.581172
     -3.308308     30.477692     30.477692     60.955385
     -3.298298     34.811715     34.811715     69.623431
     -3.288288     37.999511     37.999511     75.999023
     -3.278278     39.317847     39.317847     78.635693
     -3.268268     38.322220     38.322220     76.644439
     -3.258258     35.013646     35.013646     70.027292
     -3.248248     29.873752     29.873752     59.747505
     -3.238238     23.731961     23.731961     47.463921
     -3.228228     17.515351     17.515351     35.030702
     -3.218218     11.991994     11.991994     23.983988
     -3.208208      7.612204      7.612204     15.224408
     -3.198198      4.490054      4.490054      8.980107
     -3.188188      2.496540      2.496540      4.993079
     -3.178178      1.398338      1.398338      2.796677
     -3.168168      0.981839      0.981839      1.963678
     -3.158158      1.131405      1.131405      2.262811
     -3.148148      1.857617      1.857617      3.715234
     -3.138138      3.282563      3.282563      6.565127
     -3.128128      5.588842      5.588842     11.177685
     -3.118118      8.938532      8.938532     17.877064
     -3.108108     13.376438     13.376438     26.752876
     -3.098098     18.746275     18.746275     37.492550
     -3.088088     24.657364     24.657364     49.314727
     -3.078078     30.529700     30.529700     61.059400
     -3.068068     35.713977     35.713977     71.427955
     -3.058058     39.644447     39.644447     79.288895
     -3.048048     41.961736     41.961736     83.923472
     -3.038038     42.558153     42.558153     85.116305
     -3.028028     41.543594     41.543594     83.087188
     -3.018018     39.175144     39.175144     78.350287
     -3.008008     35.804554     35.804554     71.609109
     -2.997998     31.867007     31.867007     63.734014
     -2.987988     27.887768     27.887768     55.775535
     -2.977978     24.459792     24.459792     48.919585
     -2.967968     22.163911     22.163911     44.327823
     -2.957958     21.447642     21.447642     42.895283
     -2.947948     22.512496     22.512496     45.024993
     -2.937938     25.258132     25.258132     50.516264
     -2.927928     29.300298     29.300298     58.600596
     -2.917918     34.045841     34.045841     68.091681
     -2.907908     38.795777     38.795777     77.591555
     -2.897898     42.857381     42.857381     85.714761
     -2.887888     45.658988     45.658988     91.317975
     -2.877878     46.858304     46.858304     93.716609
     -2.867868     46.417625     46.417625     92.835251
     -2.857858     44.608119     44.608119     89.216237
     -2.847848     41.920415     41.920415     83.840831
     -2.837838     38.899861     38.899861     77.799723
     -2.827828     35.968333     35.968333     71.936667
     -2.817818     33.310290     33.310290     66.620581
     -2.807808     30.874112     30.874112     61.748223
     -2.797798     28.482636     28.482636     56.965271
     -2.787788     25.990578     25.990578     51.981156
     -2.777778     23.403220     23.403220     46.806440
     -2.767768     20.894444     20.894444     41.788888
     -2.757758     18.720401     18.720401     37.440802
     -2.747748     17.085284     17.085284     34.170568
     -2.737738     16.042858     16.042858     32.085716
     -2.727728     15.494475     15.494475     30.988950
     -2.717718     15.283501     15.283501     30.567002
     -2.707708     15.323774     15.323774     30.647549
     -2.697698     15.675471     15.675471     31.350943
     -2.687688     16.512974     16.512974     33.025948
     -2.677678     17.998501     17.998501     35.997003
     -2.667668     20.139095     20.139095     40.278190
     -2.657658     22.720779     22.720779     45.441558
     -2.647648     25.369028     25.369028     50.738055
     -2.637638     27.705430     27.705430     55.410860
     -2.627628     29.508150     29.508150     59.016300
     -2.617618     30.781411     30.781411     61.562822
     -2.607608     31.699807     31.699807     63.399614
     -2.597598     32.474214     32.474214     64.948429
     -2.587588     33.228869     33.228869     66.457737
     -2.577578     33.955142     33.955142     67.910285
     -2.567568     34.541681     34.541681     69.083363
     -2.557558     34.830312     34.830312     69.660625
     -2.547548     34.651708     34.651708     69.303416
     -2.537538     33.840822     33.840822     67.681643
     -2.527528     32.268592     32.268592     64.537183
     -2.517518     29.914534     29.914534     59.829068
     -2.507508     26.954894     26.954894     53.909789
     -2.497497     23.801224     23.801224     47.602449
     -2.487487     21.034945     21.034945     42.069889
     -2.477477     19.241462     19.241462     38.482924
     -2.467467     18.811543     18.811543     37.623086
     -2.457457     19.804309     19.804309     39.608617
     -2.447447     21.939918     21.939918     43.879837
     -2.437437     24.727714     24.727714     49.455427
     -2.427427     27.670495     27.670495     55.340991
     -2.417417     30.448836     30.448836     60.897672
     -2.407407     32.998008     32.998008     65.996016
     -2.397397     35.441413     35.441413     70.882826
     -2.387387     37.915468     37.915468     75.830936
     -2.377377     40.377510     40.377510     80.755020
     -2.367367     42.501434     42.501434     85.002867
     -2.357357     43.726888     43.726888     87.453776
     -2.347347     43.454100     43.454100     86.908200
     -2.337337     41.302971     41.302971     82.605942
     -2.327327     37.319127     37.319127     74.638253
     -2.317317     32.031159     32.031159     64.062317
     -2.307307     26.332191     26.332191     52.664382
     -2.297297     21.238022     21.238022     42.476045
     -2.287287     17.621033     17.621033     35.242066
     -2.277277     16.013765     16.013765     32.027531
     -2.267267     16.531626     16.531626     33.063251
     -2.257257     18.912131     18.912131     37.824262
     -2.247247     22.633449     22.633449     45.266898
     -2.237237     27.062840     27.062840     54.125680
     -2.227227     31.588640     31.588640     63.177280
     -2.217217     35.702012     35.702012     71.404025
     -2.207207     39.016840     39.016840     78.033679
     -2.197197     41.245366     41.245366     82.490732
     -2.187187     42.170658     42.170658     84.341315
     -2.177177     41.656509     41.656509     83.313018
     -2.167167     39.704039     39.704039     79.408078
     -2.157157     36.518448     36.518448     73.036895
     -2.147147     32.523038     32.523038     65.046075
     -2.137137     28.276832     28.276832     56.553665
     -2.127127     24.310997     24.310997     48.621994
     -2.117117     20.958662     20.958662     41.917324
     -2.107107     18.267992     18.267992     36.535984
     -2.097097     16.044672     16.044672     32.089344
     -2.087087     13.995808     13.995808     27.991616
     -2.077077     11.892729     11.892729     23.785458
     -2.067067      9.669519      9.669519     19.339038
     -2.057057      7.421779      7.421779     14.843559
     -2.047047      5.329429      5.329429     10.658859
     -2.037037      3.560414      3.560414      7.120829
     -2.027027      2.205851      2.205851      4.411702
     -2.017017      1.265970      1.265970      2.531939
     -2.007007      0.675616      0.675616      1.351231
     -1.996997      0.344699      0.344699      0.689397
     -1.986987      0.193358      0.193358      0.386716
     -1.976977      0.173789      0.173789      0.347578
     -1.966967      0.280394      0.280394      0.560789
     -1.956957      0.552582      0.552582      1.105164
     -1.946947      1.071404      1.071404      2.142808
     -1.936937      1.946627      1.946627      3.893255
     -1.926927      3.289512      3.289512      6.579024
     -1.916917      5.171312      5.171312     10.342623
     -1.906907      7.577144      7.577144     15.154288
     -1.896897     10.373660     10.373660     20.747320
     -1.886887     13.309495     13.309495     26.618990
     -1.876877     16.056717     16.056717     32.113434
     -1.866867     18.284215     18.284215     36.568430
     -1.856857     19.740312     19.740312     39.480625
     -1.846847     20.318553     20.318553     40.637106
     -1.836837     20.086242     20.086242     40.172485
     -1.826827     19.264410     19.264410     38.528821
     -1.816817     18.158725     18.158725     36.317450
     -1.806807     17.056589     17.056589     34.113179
     -1.796797     16.124922     16.124922     32.249844
     -1.786787     15.354015     15.354015     30.708030
     -1.776777     14.580172     14.580172     29.160343
     -1.766767     13.582498     13.582498     27.164997
     -1.756757     12.207958     12.207958     24.415916
     -1.746747     10.462537     10.462537     20.925073
     -1.736737      8.527853      8.527853     17.055706
     -1.726727      6.706248      6.706248     13.412495
     -1.716717      5.332227      5.332227     10.664453
     -1.706707      4.692683      4.692683      9.385366
     -1.696697      4.976403      4.976403      9.952805
     -1.686687      6.247360      6.247360     12.494719
     -1.676677      8.426970      8.426970     16.853939
     -1.666667     11.281260     11.281260     22.562521
     -1.656657     14.426264     14.426264     28.852528
     -1.646647     17.371298     17.371298     34.742597
     -1.636637     19.607649     19.607649     39.215299
     -1.626627     20.726584     20.726584     41.453169
