# EIG2DOS: Utility for SIESTA to obtain the electronic density of states
#  E. Artacho, Apr 1999, A. Garcia, Apr 2012
#  Nick R. Papior, Feb 2017
# ------------------------------------------
# Eigenvalues calculated from a non-polarized calculation
# Eigenvalues read from siesta.EIG
# Kpoint weights read from siesta.KP
# Using smearing parameter:   0.0500
# Using 1000 points in the energy range
# Selected bands: 1 to: 2981
# Emin, Emax in file for selected band(s):    -27.0684690    218.3308930
# Nbands, Nspin, Nk   =   2981     1     1
# E_F                 =    -4.2758 eV --> (shifted to ZERO)
# Broadening          =     0.0500 eV
#
#        E            N(up)  (=)   N(down)         Ntot
     -5.000000     43.750159     43.750159     87.500317
     -4.989990     44.940463     44.940463     89.880926
     -4.979980     45.397918     45.397918     90.795836
     -4.969970     45.070096     45.070096     90.140192
     -4.959960     43.910584     43.910584     87.821169
     -4.949950     41.939477     41.939477     83.878953
     -4.939940     39.296924     39.296924     78.593848
     -4.929930     36.272883     36.272883     72.545766
     -4.919920     33.310053     33.310053     66.620107
     -4.909910     30.978624     30.978624     61.957249
     -4.899900     29.910924     29.910924     59.821848
     -4.889890     30.676695     30.676695     61.353390
     -4.879880     33.596733     33.596733     67.193466
     -4.869870     38.540038     38.540038     77.080077
     -4.859860     44.801581     44.801581     89.603162
     -4.849850     51.166544     51.166544    102.333089
     -4.839840     56.200685     56.200685    112.401371
     -4.829830     58.686679     58.686679    117.373358
     -4.819820     58.025830     58.025830    116.051660
     -4.809810     54.418660     54.418660    108.837320
     -4.799800     48.743089     48.743089     97.486179
     -4.789790     42.202912     42.202912     84.405823
     -4.779780     35.923928     35.923928     71.847855
     -4.769770     30.670306     30.670306     61.340613
     -4.759760     26.758679     26.758679     53.517357
     -4.749750     24.137047     24.137047     48.274093
     -4.739740     22.536908     22.536908     45.073817
     -4.729730     21.614635     21.614635     43.229269
     -4.719720     21.041138     21.041138     42.082276
     -4.709710     20.539606     20.539606     41.079212
     -4.699700     19.893146     19.893146     39.786292
     -4.689690     18.949668     18.949668     37.899335
     -4.679680     17.644570     17.644570     35.289139
     -4.669670     16.044378     16.044378     32.088756
     -4.659660     14.392181     14.392181     28.784362
     -4.649650     13.121044     13.121044     26.242088
     -4.639640     12.804959     12.804959     25.609918
     -4.629630     14.037332     14.037332     28.074665
     -4.619620     17.254765     17.254765     34.509529
     -4.609610     22.550235     22.550235     45.100471
     -4.599600     29.539408     29.539408     59.078817
     -4.589590     37.348404     37.348404     74.696807
     -4.579580     44.767704     44.767704     89.535409
     -4.569570     50.558756     50.558756    101.117513
     -4.559560     53.824956     53.824956    107.649912
     -4.549550     54.307714     54.307714    108.615427
     -4.539540     52.479414     52.479414    104.958828
     -4.529530     49.383495     49.383495     98.766990
     -4.519520     46.280655     46.280655     92.561310
     -4.509510     44.242220     44.242220     88.484440
     -4.499499     43.845488     43.845488     87.690975
     -4.489489     45.068652     45.068652     90.137303
     -4.479479     47.389340     47.389340     94.778679
     -4.469469     50.010390     50.010390    100.020779
     -4.459459     52.106174     52.106174    104.212349
     -4.449449     53.008304     53.008304    106.016608
     -4.439439     52.305283     52.305283    104.610565
     -4.429429     49.877937     49.877937     99.755873
     -4.419419     45.904281     45.904281     91.808562
     -4.409409     40.845265     40.845265     81.690530
     -4.399399     35.392941     35.392941     70.785881
     -4.389389     30.355533     30.355533     60.711066
     -4.379379     26.481155     26.481155     52.962311
     -4.369369     24.266337     24.266337     48.532673
     -4.359359     23.824006     23.824006     47.648013
     -4.349349     24.873402     24.873402     49.746805
     -4.339339     26.863689     26.863689     53.727377
     -4.329329     29.181720     29.181720     58.363441
     -4.319319     31.357456     31.357456     62.714913
     -4.309309     33.187480     33.187480     66.374960
     -4.299299     34.740344     34.740344     69.480687
     -4.289289     36.259036     36.259036     72.518073
     -4.279279     38.008535     38.008535     76.017069
     -4.269269     40.122309     40.122309     80.244619
     -4.259259     42.493209     42.493209     84.986419
     -4.249249     44.745414     44.745414     89.490829
     -4.239239     46.312930     46.312930     92.625860
     -4.229229     46.621078     46.621078     93.242156
     -4.219219     45.316928     45.316928     90.633855
     -4.209209     42.448798     42.448798     84.897596
     -4.199199     38.495874     38.495874     76.991748
     -4.189189     34.214792     34.214792     68.429585
     -4.179179     30.368598     30.368598     60.737195
     -4.169169     27.470478     27.470478     54.940955
     -4.159159     25.664180     25.664180     51.328359
     -4.149149     24.783587     24.783587     49.567173
     -4.139139     24.538656     24.538656     49.077313
     -4.129129     24.718206     24.718206     49.436413
     -4.119119     25.303410     25.303410     50.606821
     -4.109109     26.436926     26.436926     52.873851
     -4.099099     28.264861     28.264861     56.529722
     -4.089089     30.735196     30.735196     61.470393
     -4.079079     33.469702     33.469702     66.939404
     -4.069069     35.803189     35.803189     71.606377
     -4.059059     37.001987     37.001987     74.003974
     -4.049049     36.569314     36.569314     73.138627
     -4.039039     34.482565     34.482565     68.965129
     -4.029029     31.234506     31.234506     62.469012
     -4.019019     27.657198     27.657198     55.314396
     -4.009009     24.626786     24.626786     49.253571
     -3.998999     22.801509     22.801509     45.603019
     -3.988989     22.503966     22.503966     45.007933
     -3.978979     23.758690     23.758690     47.517379
     -3.968969     26.410057     26.410057     52.820115
     -3.958959     30.226776     30.226776     60.453552
     -3.948949     34.946247     34.946247     69.892493
     -3.938939     40.277074     40.277074     80.554148
     -3.928929     45.907818     45.907818     91.815636
     -3.918919     51.547468     51.547468    103.094937
     -3.908909     56.975381     56.975381    113.950761
     -3.898899     62.050926     62.050926    124.101852
     -3.888889     66.651749     66.651749    133.303498
     -3.878879     70.562195     70.562195    141.124390
     -3.868869     73.382010     73.382010    146.764021
     -3.858859     74.533886     74.533886    149.067772
     -3.848849     73.405757     73.405757    146.811513
     -3.838839     69.590292     69.590292    139.180584
     -3.828829     63.120139     63.120139    126.240278
     -3.818819     54.582184     54.582184    109.164367
     -3.808809     45.040912     45.040912     90.081824
     -3.798799     35.786870     35.786870     71.573740
     -3.788789     28.004062     28.004062     56.008124
     -3.778779     22.478869     22.478869     44.957738
     -3.768769     19.444042     19.444042     38.888084
     -3.758759     18.589479     18.589479     37.178957
     -3.748749     19.213003     19.213003     38.426005
     -3.738739     20.451663     20.451663     40.903326
     -3.728729     21.527895     21.527895     43.055790
     -3.718719     21.953490     21.953490     43.906981
     -3.708709     21.647665     21.647665     43.295331
     -3.698699     20.941315     20.941315     41.882629
     -3.688689     20.460825     20.460825     40.921650
     -3.678679     20.913961     20.913961     41.827922
     -3.668669     22.833520     22.833520     45.667040
     -3.658659     26.359936     26.359936     52.719872
     -3.648649     31.144916     31.144916     62.289832
     -3.638639     36.422809     36.422809     72.845619
     -3.628629     41.231016     41.231016     82.462033
     -3.618619     44.694580     44.694580     89.389160
     -3.608609     46.261838     46.261838     92.523676
     -3.598599     45.807746     45.807746     91.615491
     -3.588589     43.591300     43.591300     87.182601
     -3.578579     40.117723     40.117723     80.235447
     -3.568569     35.977019     35.977019     71.954039
     -3.558559     31.708322     31.708322     63.416643
     -3.548549     27.706051     27.706051     55.412102
     -3.538539     24.169371     24.169371     48.338742
     -3.528529     21.101136     21.101136     42.202272
     -3.518519     18.363730     18.363730     36.727459
     -3.508509     15.781057     15.781057     31.562115
     -3.498498     13.248688     13.248688     26.497377
     -3.488488     10.803343     10.803343     21.606686
     -3.478478      8.621763      8.621763     17.243527
     -3.468468      6.954987      6.954987     13.909974
     -3.458458      6.031724      6.031724     12.063449
     -3.448448      5.969430      5.969430     11.938861
     -3.438438      6.719875      6.719875     13.439750
     -3.428428      8.062693      8.062693     16.125385
     -3.418418      9.652190      9.652190     19.304380
     -3.408408     11.113382     11.113382     22.226764
     -3.398398     12.165719     12.165719     24.331439
     -3.388388     12.732653     12.732653     25.465305
     -3.378378     12.988891     12.988891     25.977782
     -3.368368     13.317419     13.317419     26.634838
     -3.358358     14.187976     14.187976     28.375951
     -3.348348     16.003440     16.003440     32.006879
     -3.338338     18.967923     18.967923     37.935847
     -3.328328     23.009269     23.009269     46.018538
     -3.318318     27.760518     27.760518     55.521037
     -3.308308     32.593827     32.593827     65.187653
     -3.298298     36.709040     36.709040     73.418080
     -3.288288     39.285497     39.285497     78.570994
     -3.278278     39.685188     39.685188     79.370377
     -3.268268     37.651754     37.651754     75.303508
     -3.258258     33.419119     33.419119     66.838239
     -3.248248     27.663649     27.663649     55.327299
     -3.238238     21.304831     21.304831     42.609661
     -3.228228     15.237345     15.237345     30.474689
     -3.218218     10.108442     10.108442     20.216884
     -3.208208      6.220378      6.220378     12.440757
     -3.198198      3.567240      3.567240      7.134480
     -3.188188      1.956817      1.956817      3.913635
     -3.178178      1.150690      1.150690      2.301381
     -3.168168      0.974720      0.974720      1.949440
     -3.158158      1.382403      1.382403      2.764806
     -3.148148      2.472601      2.472601      4.945202
     -3.138138      4.464949      4.464949      8.929899
     -3.128128      7.630395      7.630395     15.260790
     -3.118118     12.175871     12.175871     24.351743
     -3.108108     18.100285     18.100285     36.200570
     -3.098098     25.068831     25.068831     50.137661
     -3.088088     32.374053     32.374053     64.748107
     -3.078078     39.039899     39.039899     78.079798
     -3.068068     44.068743     44.068743     88.137487
     -3.058058     46.751590     46.751590     93.503181
     -3.048048     46.906241     46.906241     93.812483
     -3.038038     44.922748     44.922748     89.845495
     -3.028028     41.585103     41.585103     83.170206
     -3.018018     37.754885     37.754885     75.509770
     -3.008008     34.074037     34.074037     68.148075
     -2.997998     30.825250     30.825250     61.650500
     -2.987988     27.994256     27.994256     55.988512
     -2.977978     25.469869     25.469869     50.939738
     -2.967968     23.256508     23.256508     46.513016
     -2.957958     21.584553     21.584553     43.169105
     -2.947948     20.867330     20.867330     41.734661
     -2.937938     21.530474     21.530474     43.060947
     -2.927928     23.795079     23.795079     47.590158
     -2.917918     27.513301     27.513301     55.026602
     -2.907908     32.132684     32.132684     64.265369
     -2.897898     36.814185     36.814185     73.628370
     -2.887888     40.666787     40.666787     81.333573
     -2.877878     43.011901     43.011901     86.023803
     -2.867868     43.574695     43.574695     87.149391
     -2.857858     42.526979     42.526979     85.053957
     -2.847848     40.368397     40.368397     80.736793
     -2.837838     37.702456     37.702456     75.404913
     -2.827828     35.008430     35.008430     70.016861
     -2.817818     32.507086     32.507086     65.014173
     -2.807808     30.168442     30.168442     60.336885
     -2.797798     27.838236     27.838236     55.676472
     -2.787788     25.403107     25.403107     50.806213
     -2.777778     22.901749     22.901749     45.803499
     -2.767768     20.526501     20.526501     41.053003
     -2.757758     18.525850     18.525850     37.051700
     -2.747748     17.075770     17.075770     34.151540
     -2.737738     16.203251     16.203251     32.406503
     -2.727728     15.809156     15.809156     31.618311
     -2.717718     15.771218     15.771218     31.542435
     -2.707708     16.053350     16.053350     32.106701
     -2.697698     16.741072     16.741072     33.482143
     -2.687688     17.971589     17.971589     35.943179
     -2.677678     19.800652     19.800652     39.601303
     -2.667668     22.097270     22.097270     44.194540
     -2.657658     24.546026     24.546026     49.092052
     -2.647648     26.768618     26.768618     53.537237
     -2.637638     28.495749     28.495749     56.991497
     -2.627628     29.683483     29.683483     59.366966
     -2.617618     30.502920     30.502920     61.005841
     -2.607608     31.215177     31.215177     62.430354
     -2.597598     32.015477     32.015477     64.030954
     -2.587588     32.939031     32.939031     65.878062
     -2.577578     33.865662     33.865662     67.731323
     -2.567568     34.588885     34.588885     69.177770
     -2.557558     34.886004     34.886004     69.772009
     -2.547548     34.555281     34.555281     69.110561
     -2.537538     33.437717     33.437717     66.875434
     -2.527528     31.461398     31.461398     62.922796
     -2.517518     28.716102     28.716102     57.432204
     -2.507508     25.515775     25.515775     51.031550
     -2.497497     22.386085     22.386085     44.772170
     -2.487487     19.946786     19.946786     39.893573
     -2.477477     18.721980     18.721980     37.443960
     -2.467467     18.960698     18.960698     37.921397
     -2.457457     20.553448     20.553448     41.106897
     -2.447447     23.087255     23.087255     46.174510
     -2.437437     26.017082     26.017082     52.034164
     -2.427427     28.877309     28.877309     57.754619
     -2.417417     31.437610     31.437610     62.875220
     -2.407407     33.732013     33.732013     67.464026
     -2.397397     35.948311     35.948311     71.896621
     -2.387387     38.231556     38.231556     76.463111
     -2.377377     40.499617     40.499617     80.999234
     -2.367367     42.368805     42.368805     84.737611
     -2.357357     43.240690     43.240690     86.481381
     -2.347347     42.525723     42.525723     85.051447
     -2.337337     39.909423     39.909423     79.818846
     -2.327327     35.539303     35.539303     71.078605
     -2.317317     30.044183     30.044183     60.088365
     -2.307307     24.376716     24.376716     48.753432
     -2.297297     19.550488     19.550488     39.100975
     -2.287287     16.380047     16.380047     32.760095
     -2.277277     15.311678     15.311678     30.623356
     -2.267267     16.377932     16.377932     32.755863
     -2.257257     19.257554     19.257554     38.515107
     -2.247247     23.396866     23.396866     46.793732
     -2.237237     28.147077     28.147077     56.294153
     -2.227227     32.881261     32.881261     65.762523
     -2.217217     37.067682     37.067682     74.135364
     -2.207207     40.293921     40.293921     80.587842
     -2.197197     42.258587     42.258587     84.517175
     -2.187187     42.763629     42.763629     85.527258
     -2.177177     41.735572     41.735572     83.471144
     -2.167167     39.274376     39.274376     78.548752
     -2.157157     35.691488     35.691488     71.382975
     -2.147147     31.484613     31.484613     62.969227
     -2.137137     27.224748     27.224748     54.449495
     -2.127127     23.388298     23.388298     46.776595
     -2.117117     20.213452     20.213452     40.426904
     -2.107107     17.657674     17.657674     35.315347
     -2.097097     15.478977     15.478977     30.957954
     -2.087087     13.393264     13.393264     26.786528
     -2.077077     11.221218     11.221218     22.442436
     -2.067067      8.954390      8.954390     17.908780
     -2.057057      6.724838      6.724838     13.449676
     -2.047047      4.716109      4.716109      9.432219
     -2.037037      3.073745      3.073745      6.147490
     -2.027027      1.856941      1.856941      3.713882
     -2.017017      1.039688      1.039688      2.079377
     -2.007007      0.543771      0.543771      1.087542
     -1.996997      0.279000      0.279000      0.558000
     -1.986987      0.174199      0.174199      0.348398
     -1.976977      0.194658      0.194658      0.389315
     -1.966967      0.349329      0.349329      0.698658
     -1.956957      0.691469      0.691469      1.382939
     -1.946947      1.312288      1.312288      2.624575
     -1.936937      2.323336      2.323336      4.646673
     -1.926927      3.824102      3.824102      7.648203
     -1.916917      5.858144      5.858144     11.716288
     -1.906907      8.371196      8.371196     16.742392
     -1.896897     11.190794     11.190794     22.381589
     -1.886887     14.042811     14.042811     28.085621
     -1.876877     16.605561     16.605561     33.211121
     -1.866867     18.585361     18.585361     37.170722
     -1.856857     19.788738     19.788738     39.577475
     -1.846847     20.169428     20.169428     40.338856
     -1.836837     19.837260     19.837260     39.674520
     -1.826827     19.024290     19.024290     38.048579
     -1.816817     18.011969     18.011969     36.023937
     -1.806807     17.036855     17.036855     34.073709
     -1.796797     16.209577     16.209577     32.419154
     -1.786787     15.488286     15.488286     30.976573
     -1.776777     14.729045     14.729045     29.458091
     -1.766767     13.794663     13.794663     27.589326
     -1.756757     12.665158     12.665158     25.330316
     -1.746747     11.485866     11.485866     22.971731
     -1.736737     10.521636     10.521636     21.043271
     -1.726727     10.038359     10.038359     20.076718
     -1.716717     10.174006     10.174006     20.348012
     -1.706707     10.867368     10.867368     21.734735
     -1.696697     11.881994     11.881994     23.763988
     -1.686687     12.912465     12.912465     25.824929
     -1.676677     13.716064     13.716064     27.432129
     -1.666667     14.198850     14.198850     28.397700
     -1.656657     14.411079     14.411079     28.822158
     -1.646647     14.460941     14.460941     28.921881
     -1.636637     14.405915     14.405915     28.811830
     -1.626627     14.194892     14.194892     28.389784
