# EIG2DOS: Utility for SIESTA to obtain the electronic density of states
#  E. Artacho, Apr 1999, A. Garcia, Apr 2012
#  Nick R. Papior, Feb 2017
# ------------------------------------------
# Eigenvalues calculated from a non-polarized calculation
# Eigenvalues read from siesta.EIG
# Kpoint weights read from siesta.KP
# Using smearing parameter:   0.0500
# Using 1000 points in the energy range
# Selected bands: 1 to: 2981
# Emin, Emax in file for selected band(s):    -27.3809205    218.3819340
# Nbands, Nspin, Nk   =   2981     1     1
# E_F                 =    -4.2186 eV --> (shifted to ZERO)
# Broadening          =     0.0500 eV
#
#        E            N(up)  (=)   N(down)         Ntot
     -5.000000     30.298386     30.298386     60.596772
     -4.989990     35.050252     35.050252     70.100505
     -4.979980     39.765649     39.765649     79.531298
     -4.969970     43.698623     43.698623     87.397246
     -4.959960     46.127433     46.127433     92.254866
     -4.949950     46.588111     46.588111     93.176222
     -4.939940     45.037692     45.037692     90.075384
     -4.929930     41.888795     41.888795     83.777590
     -4.919920     37.918049     37.918049     75.836099
     -4.909910     34.096728     34.096728     68.193456
     -4.899900     31.397809     31.397809     62.795617
     -4.889890     30.608852     30.608852     61.217705
     -4.879880     32.159364     32.159364     64.318728
     -4.869870     35.981035     35.981035     71.962070
     -4.859860     41.449910     41.449910     82.899819
     -4.849850     47.472190     47.472190     94.944381
     -4.839840     52.738124     52.738124    105.476247
     -4.829830     56.089021     56.089021    112.178041
     -4.819820     56.868427     56.868427    113.736853
     -4.809810     55.112774     55.112774    110.225547
     -4.799800     51.498240     51.498240    102.996480
     -4.789790     47.068338     47.068338     94.136676
     -4.779780     42.861223     42.861223     85.722446
     -4.769770     39.587831     39.587831     79.175662
     -4.759760     37.472506     37.472506     74.945011
     -4.749750     36.286818     36.286818     72.573636
     -4.739740     35.528575     35.528575     71.057151
     -4.729730     34.652950     34.652950     69.305900
     -4.719720     33.261049     33.261049     66.522099
     -4.709710     31.186616     31.186616     62.373233
     -4.699700     28.476839     28.476839     56.953679
     -4.689690     25.313238     25.313238     50.626476
     -4.679680     21.937700     21.937700     43.875400
     -4.669670     18.627311     18.627311     37.254621
     -4.659660     15.715885     15.715885     31.431770
     -4.649650     13.621809     13.621809     27.243619
     -4.639640     12.833868     12.833868     25.667736
     -4.629630     13.828576     13.828576     27.657152
     -4.619620     16.927611     16.927611     33.855221
     -4.609610     22.136485     22.136485     44.272969
     -4.599600     29.027493     29.027493     58.054987
     -4.589590     36.733725     36.733725     73.467449
     -4.579580     44.096244     44.096244     88.192488
     -4.569570     49.950212     49.950212     99.900425
     -4.559560     53.465692     53.465692    106.931384
     -4.549550     54.412732     54.412732    108.825464
     -4.539540     53.232099     53.232099    106.464199
     -4.529530     50.866884     50.866884    101.733767
     -4.519520     48.413190     48.413190     96.826380
     -4.509510     46.728711     46.728711     93.457423
     -4.499499     46.155601     46.155601     92.311203
     -4.489489     46.460762     46.460762     92.921523
     -4.479479     46.999401     46.999401     93.998802
     -4.469469     47.013674     47.013674     94.027349
     -4.459459     45.930928     45.930928     91.861857
     -4.449449     43.544203     43.544203     87.088407
     -4.439439     40.026702     40.026702     80.053405
     -4.429429     35.813309     35.813309     71.626619
     -4.419419     31.433951     31.433951     62.867901
     -4.409409     27.382314     27.382314     54.764627
     -4.399399     24.057020     24.057020     48.114041
     -4.389389     21.755206     21.755206     43.510412
     -4.379379     20.669908     20.669908     41.339817
     -4.369369     20.859727     20.859727     41.719455
     -4.359359     22.203970     22.203970     44.407939
     -4.349349     24.390043     24.390043     48.780086
     -4.339339     26.973474     26.973474     53.946947
     -4.329329     29.508186     29.508186     59.016371
     -4.319319     31.696951     31.696951     63.393902
     -4.309309     33.491955     33.491955     66.983909
     -4.299299     35.093886     35.093886     70.187771
     -4.289289     36.840911     36.840911     73.681823
     -4.279279     39.023886     39.023886     78.047771
     -4.269269     41.695974     41.695974     83.391947
     -4.259259     44.556777     44.556777     89.113555
     -4.249249     46.976800     46.976800     93.953600
     -4.239239     48.181530     48.181530     96.363060
     -4.229229     47.542603     47.542603     95.085206
     -4.219219     44.857663     44.857663     89.715326
     -4.209209     40.484658     40.484658     80.969317
     -4.199199     35.253943     35.253943     70.507885
     -4.189189     30.189253     30.189253     60.378507
     -4.179179     26.164772     26.164772     52.329544
     -4.169169     23.652351     23.652351     47.304701
     -4.159159     22.657863     22.657863     45.315725
     -4.149149     22.846583     22.846583     45.693167
     -4.139139     23.772379     23.772379     47.544757
     -4.129129     25.092851     25.092851     50.185702
     -4.119119     26.675709     26.675709     53.351418
     -4.109109     28.559587     28.559587     57.119174
     -4.099099     30.799962     30.799962     61.599923
     -4.089089     33.285855     33.285855     66.571709
     -4.079079     35.634806     35.634806     71.269612
     -4.069069     37.244728     37.244728     74.489455
     -4.059059     37.503656     37.503656     75.007312
     -4.049049     36.066783     36.066783     72.133566
     -4.039039     33.060000     33.060000     66.120001
     -4.029029     29.098715     29.098715     58.197429
     -4.019019     25.107060     25.107060     50.214120
     -4.009009     22.026375     22.026375     44.052750
     -3.998999     20.549115     20.549115     41.098229
     -3.988989     20.982417     20.982417     41.964834
     -3.978979     23.264086     23.264086     46.528173
     -3.968969     27.078721     27.078721     54.157442
     -3.958959     31.994718     31.994718     63.989437
     -3.948949     37.567302     37.567302     75.134604
     -3.938939     43.397958     43.397958     86.795916
     -3.928929     49.168817     49.168817     98.337634
     -3.918919     54.664860     54.664860    109.329721
     -3.908909     59.772705     59.772705    119.545410
     -3.898899     64.433661     64.433661    128.867322
     -3.888889     68.549266     68.549266    137.098533
     -3.878879     71.877619     71.877619    143.755238
     -3.868869     73.985746     73.985746    147.971491
     -3.858859     74.310600     74.310600    148.621201
     -3.848849     72.330371     72.330371    144.660743
     -3.838839     67.786658     67.786658    135.573316
     -3.828829     60.862324     60.862324    121.724648
     -3.818819     52.230364     52.230364    104.460728
     -3.808809     42.940994     42.940994     85.881988
     -3.798799     34.180770     34.180770     68.361541
     -3.788789     26.986511     26.986511     53.973022
     -3.778779     22.007867     22.007867     44.015733
     -3.768769     19.386616     19.386616     38.773232
     -3.758759     18.775977     18.775977     37.551954
     -3.748749     19.480760     19.480760     38.961520
     -3.738739     20.671914     20.671914     41.343828
     -3.728729     21.618585     21.618585     43.237169
     -3.718719     21.882691     21.882691     43.765381
     -3.708709     21.430645     21.430645     42.861290
     -3.698699     20.632598     20.632598     41.265196
     -3.688689     20.142115     20.142115     40.284230
     -3.678679     20.678818     20.678818     41.357635
     -3.668669     22.769494     22.769494     45.538989
     -3.658659     26.528989     26.528989     53.057979
     -3.648649     31.564445     31.564445     63.128890
     -3.638639     37.052314     37.052314     74.104628
     -3.628629     41.971277     41.971277     83.942555
     -3.618619     45.404434     45.404434     90.808867
     -3.608609     46.791394     46.791394     93.582788
     -3.598599     46.038775     46.038775     92.077549
     -3.588589     43.470346     43.470346     86.940691
     -3.578579     39.669086     39.669086     79.338171
     -3.568569     35.291070     35.291070     70.582140
     -3.558559     30.911328     30.911328     61.822656
     -3.548549     26.925167     26.925167     53.850334
     -3.538539     23.507160     23.507160     47.014321
     -3.528529     20.628727     20.628727     41.257454
     -3.518519     18.134278     18.134278     36.268555
     -3.508509     15.859091     15.859091     31.718182
     -3.498498     13.746927     13.746927     27.493853
     -3.488488     11.915088     11.915088     23.830175
     -3.478478     10.633226     10.633226     21.266452
     -3.468468     10.220595     10.220595     20.441191
     -3.458458     10.902064     10.902064     21.804129
     -3.448448     12.679431     12.679431     25.358862
     -3.438438     15.269504     15.269504     30.539007
     -3.428428     18.140094     18.140094     36.280188
     -3.418418     20.644340     20.644340     41.288680
     -3.408408     22.217218     22.217218     44.434436
     -3.398398     22.566937     22.566937     45.133874
     -3.388388     21.785843     21.785843     43.571685
     -3.378378     20.332329     20.332329     40.664659
     -3.368368     18.889142     18.889142     37.778283
     -3.358358     18.156422     18.156422     36.312845
     -3.348348     18.659276     18.659276     37.318553
     -3.338338     20.628315     20.628315     41.256630
     -3.328328     23.965546     23.965546     47.931093
     -3.318318     28.271710     28.271710     56.543421
     -3.308308     32.908980     32.908980     65.817959
     -3.298298     37.097485     37.097485     74.194970
     -3.288288     40.060752     40.060752     80.121504
     -3.278278     41.214089     41.214089     82.428177
     -3.268268     40.339751     40.339751     80.679502
     -3.258258     37.660244     37.660244     75.320488
     -3.248248     33.750512     33.750512     67.501024
     -3.238238     29.315390     29.315390     58.630780
     -3.228228     24.941350     24.941350     49.882700
     -3.218218     20.946672     20.946672     41.893344
     -3.208208     17.388843     17.388843     34.777685
     -3.198198     14.191904     14.191904     28.383807
     -3.188188     11.298370     11.298370     22.596740
     -3.178178      8.762103      8.762103     17.524205
     -3.168168      6.756477      6.756477     13.512955
     -3.158158      5.525712      5.525712     11.051425
     -3.148148      5.321959      5.321959     10.643917
     -3.138138      6.350248      6.350248     12.700497
     -3.128128      8.716689      8.716689     17.433379
     -3.118118     12.369225     12.369225     24.738449
     -3.108108     17.039252     17.039252     34.078504
     -3.098098     22.218068     22.218068     44.436136
     -3.088088     27.208528     27.208528     54.417057
     -3.078078     31.265691     31.265691     62.531382
     -3.068068     33.790556     33.790556     67.581111
     -3.058058     34.498971     34.498971     68.997941
     -3.048048     33.485414     33.485414     66.970828
     -3.038038     31.148403     31.148403     62.296805
     -3.028028     28.016682     28.016682     56.033364
     -3.018018     24.567844     24.567844     49.135687
     -3.008008     21.128677     21.128677     42.257353
     -2.997998     17.891283     17.891283     35.782567
     -2.987988     15.008865     15.008865     30.017729
     -2.977978     12.695393     12.695393     25.390786
     -2.967968     11.263356     11.263356     22.526711
     -2.957958     11.077038     11.077038     22.154076
     -2.947948     12.442890     12.442890     24.885780
     -2.937938     15.481800     15.481800     30.963599
     -2.927928     20.030233     20.030233     40.060465
     -2.917918     25.608266     25.608266     51.216532
     -2.907908     31.477579     31.477579     62.955158
     -2.897898     36.788880     36.788880     73.577760
     -2.887888     40.785535     40.785535     81.571069
     -2.877878     42.999215     42.999215     85.998429
     -2.867868     43.363112     43.363112     86.726224
     -2.857858     42.192219     42.192219     84.384438
     -2.847848     40.033633     40.033633     80.067266
     -2.837838     37.448874     37.448874     74.897748
     -2.827828     34.823398     34.823398     69.646796
     -2.817818     32.285479     32.285479     64.570958
     -2.807808     29.761296     29.761296     59.522591
     -2.797798     27.123629     27.123629     54.247258
     -2.787788     24.345661     24.345661     48.691322
     -2.777778     21.574374     21.574374     43.148749
     -2.767768     19.088059     19.088059     38.176118
     -2.757758     17.170601     17.170601     34.341202
     -2.747748     15.982341     15.982341     31.964681
     -2.737738     15.505933     15.505933     31.011865
     -2.727728     15.596439     15.596439     31.192879
     -2.717718     16.097385     16.097385     32.194770
     -2.707708     16.941116     16.941116     33.882232
     -2.697698     18.162306     18.162306     36.324612
     -2.687688     19.813884     19.813884     39.627768
     -2.677678     21.846222     21.846222     43.692444
     -2.667668     24.042842     24.042842     48.085683
     -2.657658     26.072479     26.072479     52.144957
     -2.647648     27.637451     27.637451     55.274902
     -2.637638     28.627279     28.627279     57.254558
     -2.627628     29.176861     29.176861     58.353722
     -2.617618     29.589346     29.589346     59.178692
     -2.607608     30.171716     30.171716     60.343431
     -2.597598     31.082249     31.082249     62.164499
     -2.587588     32.269180     32.269180     64.538359
     -2.577578     33.510513     33.510513     67.021026
     -2.567568     34.503757     34.503757     69.007515
     -2.557558     34.945482     34.945482     69.890964
     -2.547548     34.579961     34.579961     69.159923
     -2.537538     33.239022     33.239022     66.478044
     -2.527528     30.899910     30.899910     61.799821
     -2.517518     27.752956     27.752956     55.505912
     -2.507508     24.232711     24.232711     48.465422
     -2.497497     20.963973     20.963973     41.927946
     -2.487487     18.614322     18.614322     37.228644
     -2.477477     17.699449     17.699449     35.398898
     -2.467467     18.420171     18.420171     36.840342
     -2.457457     20.602216     20.602216     41.204431
     -2.447447     23.767960     23.767960     47.535919
     -2.437437     27.313674     27.313674     54.627347
     -2.427427     30.719573     30.719573     61.439145
     -2.417417     33.702606     33.702606     67.405212
     -2.407407     36.244150     36.244150     72.488301
     -2.397397     38.481220     38.481220     76.962440
     -2.387387     40.516843     40.516843     81.033687
     -2.377377     42.249737     42.249737     84.499475
     -2.367367     43.320007     43.320007     86.640014
     -2.357357     43.213430     43.213430     86.426860
     -2.347347     41.485943     41.485943     82.971886
     -2.337337     38.003723     38.003723     76.007446
     -2.327327     33.080733     33.080733     66.161466
     -2.317317     27.445024     27.445024     54.890048
     -2.307307     22.049819     22.049819     44.099638
     -2.297297     17.815615     17.815615     35.631229
     -2.287287     15.407420     15.407420     30.814840
     -2.277277     15.115941     15.115941     30.231881
     -2.267267     16.854237     16.854237     33.708474
     -2.257257     20.237775     20.237775     40.475551
     -2.247247     24.701225     24.701225     49.402451
     -2.237237     29.613127     29.613127     59.226254
     -2.227227     34.365149     34.365149     68.730298
     -2.217217     38.427543     38.427543     76.855086
     -2.207207     41.375555     41.375555     82.751110
     -2.197197     42.902529     42.902529     85.805059
     -2.187187     42.839328     42.839328     85.678655
     -2.177177     41.189628     41.189628     82.379255
     -2.167167     38.167523     38.167523     76.335046
     -2.157157     34.201854     34.201854     68.403708
     -2.147147     29.872333     29.872333     59.744667
     -2.137137     25.775510     25.775510     51.551020
     -2.127127     22.366966     22.366966     44.733932
     -2.117117     19.853641     19.853641     39.707283
     -2.107107     18.189714     18.189714     36.379428
     -2.097097     17.169644     17.169644     34.339289
     -2.087087     16.554470     16.554470     33.108940
     -2.077077     16.155099     16.155099     32.310198
     -2.067067     15.837661     15.837661     31.675323
     -2.057057     15.477695     15.477695     30.955391
     -2.047047     14.924123     14.924123     29.848246
     -2.037037     14.016888     14.016888     28.033777
     -2.027027     12.651831     12.651831     25.303662
     -2.017017     10.845259     10.845259     21.690519
     -2.007007      8.749659      8.749659     17.499318
     -1.996997      6.607419      6.607419     13.214838
     -1.986987      4.670780      4.670780      9.341560
     -1.976977      3.133448      3.133448      6.266897
     -1.966967      2.105213      2.105213      4.210426
     -1.956957      1.630755      1.630755      3.261510
     -1.946947      1.729248      1.729248      3.458495
     -1.936937      2.424433      2.424433      4.848865
     -1.926927      3.744816      3.744816      7.489632
     -1.916917      5.692284      5.692284     11.384568
     -1.906907      8.195593      8.195593     16.391185
     -1.896897     11.075220     11.075220     22.150440
     -1.886887     14.043275     14.043275     28.086550
     -1.876877     16.747376     16.747376     33.494751
     -1.866867     18.847890     18.847890     37.695780
     -1.856857     20.103662     20.103662     40.207324
     -1.846847     20.437886     20.437886     40.875773
     -1.836837     19.961369     19.961369     39.922738
     -1.826827     18.940798     18.940798     37.881596
     -1.816817     17.714155     17.714155     35.428309
     -1.806807     16.575276     16.575276     33.150553
     -1.796797     15.669631     15.669631     31.339262
     -1.786787     14.949201     14.949201     29.898402
     -1.776777     14.213460     14.213460     28.426919
     -1.766767     13.220729     13.220729     26.441457
     -1.756757     11.814875     11.814875     23.629750
     -1.746747     10.003970     10.003970     20.007940
     -1.736737      7.957356      7.957356     15.914712
     -1.726727      5.935049      5.935049     11.870098
     -1.716717      4.196662      4.196662      8.393324
     -1.706707      2.937094      2.937094      5.874187
     -1.696697      2.268735      2.268735      4.537471
     -1.686687      2.237163      2.237163      4.474327
     -1.676677      2.840162      2.840162      5.680325
     -1.666667      4.026002      4.026002      8.052004
     -1.656657      5.669365      5.669365     11.338731
     -1.646647      7.547237      7.547237     15.094473
     -1.636637      9.347132      9.347132     18.694264
     -1.626627     10.728045     10.728045     21.456090
