# EIG2DOS: Utility for SIESTA to obtain the electronic density of states
#  E. Artacho, Apr 1999, A. Garcia, Apr 2012
#  Nick R. Papior, Feb 2017
# ------------------------------------------
# Eigenvalues calculated from a non-polarized calculation
# Eigenvalues read from siesta.EIG
# Kpoint weights read from siesta.KP
# Using smearing parameter:   0.0500
# Using 1000 points in the energy range
# Selected bands: 1 to: 2981
# Emin, Emax in file for selected band(s):    -27.2093287    218.3553690
# Nbands, Nspin, Nk   =   2981     1     1
# E_F                 =    -4.2519 eV --> (shifted to ZERO)
# Broadening          =     0.0500 eV
#
#        E            N(up)  (=)   N(down)         Ntot
     -5.000000     33.080125     33.080125     66.160251
     -4.989990     37.245988     37.245988     74.491975
     -4.979980     41.033179     41.033179     82.066358
     -4.969970     43.802373     43.802373     87.604745
     -4.959960     45.050726     45.050726     90.101451
     -4.949950     44.560959     44.560959     89.121917
     -4.939940     42.471611     42.471611     84.943222
     -4.929930     39.252594     39.252594     78.505188
     -4.919920     35.612562     35.612562     71.225123
     -4.909910     32.378956     32.378956     64.757911
     -4.899900     30.372749     30.372749     60.745499
     -4.889890     30.271096     30.271096     60.542191
     -4.879880     32.446258     32.446258     64.892517
     -4.869870     36.802956     36.802956     73.605912
     -4.859860     42.685365     42.685365     85.370729
     -4.849850     48.941696     48.941696     97.883393
     -4.839840     54.185110     54.185110    108.370221
     -4.829830     57.189622     57.189622    114.379245
     -4.819820     57.269522     57.269522    114.539043
     -4.809810     54.476145     54.476145    108.952290
     -4.799800     49.526404     49.526404     99.052808
     -4.789790     43.508083     43.508083     87.016166
     -4.779780     37.507743     37.507743     75.015486
     -4.769770     32.320465     32.320465     64.640930
     -4.759760     28.330566     28.330566     56.661131
     -4.749750     25.554449     25.554449     51.108899
     -4.739740     23.771815     23.771815     47.543629
     -4.729730     22.663777     22.663777     45.327554
     -4.719720     21.908941     21.908941     43.817883
     -4.709710     21.228932     21.228932     42.457865
     -4.699700     20.402253     20.402253     40.804506
     -4.689690     19.274459     19.274459     38.548918
     -4.679680     17.785647     17.785647     35.571294
     -4.669670     16.017660     16.017660     32.035320
     -4.659660     14.241967     14.241967     28.483933
     -4.649650     12.936533     12.936533     25.873066
     -4.639640     12.742777     12.742777     25.485554
     -4.629630     14.348698     14.348698     28.697397
     -4.619620     18.305031     18.305031     36.610063
     -4.609610     24.806592     24.806592     49.613184
     -4.599600     33.501864     33.501864     67.003728
     -4.589590     43.419425     43.419425     86.838850
     -4.579580     53.093161     53.093161    106.186323
     -4.569570     60.906173     60.906173    121.812346
     -4.559560     65.567518     65.567518    131.135036
     -4.549550     66.542059     66.542059    133.084119
     -4.539540     64.239231     64.239231    128.478463
     -4.529530     59.858554     59.858554    119.717108
     -4.519520     54.946491     54.946491    109.892982
     -4.509510     50.853547     50.853547    101.707093
     -4.499499     48.317697     48.317697     96.635393
     -4.489489     47.325615     47.325615     94.651230
     -4.479479     47.265849     47.265849     94.531698
     -4.469469     47.264317     47.264317     94.528634
     -4.459459     46.539178     46.539178     93.078356
     -4.449449     44.640446     44.640446     89.280892
     -4.439439     41.519446     41.519446     83.038892
     -4.429429     37.456594     37.456594     74.913189
     -4.419419     32.923820     32.923820     65.847641
     -4.409409     28.455656     28.455656     56.911312
     -4.399399     24.563639     24.563639     49.127278
     -4.389389     21.683732     21.683732     43.367463
     -4.379379     20.126838     20.126838     40.253677
     -4.369369     20.018737     20.018737     40.037474
     -4.359359     21.250233     21.250233     42.500466
     -4.349349     23.479158     23.479158     46.958317
     -4.339339     26.211777     26.211777     52.423554
     -4.329329     28.949156     28.949156     57.898311
     -4.319319     31.343230     31.343230     62.686461
     -4.309309     33.295856     33.295856     66.591713
     -4.299299     34.958295     34.958295     69.916591
     -4.289289     36.631147     36.631147     73.262293
     -4.279279     38.601870     38.601870     77.203740
     -4.269269     40.976616     40.976616     81.953232
     -4.259259     43.566886     43.566886     87.133771
     -4.249249     45.882910     45.882910     91.765820
     -4.239239     47.259370     47.259370     94.518741
     -4.229229     47.089618     47.089618     94.179236
     -4.219219     45.084569     45.084569     90.169137
     -4.209209     41.437724     41.437724     82.875448
     -4.199199     36.803746     36.803746     73.607491
     -4.189189     32.084565     32.084565     64.169130
     -4.179179     28.117669     28.117669     56.235338
     -4.169169     25.412573     25.412573     50.825147
     -4.159159     24.051159     24.051159     48.102317
     -4.149149     23.777336     23.777336     47.554672
     -4.139139     24.207866     24.207866     48.415733
     -4.129129     25.048055     25.048055     50.096109
     -4.119119     26.207846     26.207846     52.415692
     -4.109109     27.769470     27.769470     55.538940
     -4.099099     29.830180     29.830180     59.660361
     -4.089089     32.306756     32.306756     64.613512
     -4.079079     34.816897     34.816897     69.633794
     -4.069069     36.725563     36.725563     73.451126
     -4.059059     37.362287     37.362287     74.724574
     -4.049049     36.315659     36.315659     72.631318
     -4.039039     33.654441     33.654441     67.308882
     -4.029029     29.954432     29.954432     59.908864
     -4.019019     26.113957     26.113957     52.227913
     -4.009009     23.053862     23.053862     46.107724
     -3.998999     21.448999     21.448999     42.897997
     -3.988989     21.600742     21.600742     43.201485
     -3.978979     23.467932     23.467932     46.935863
     -3.968969     26.791177     26.791177     53.582354
     -3.958959     31.221052     31.221052     62.442105
     -3.948949     36.396252     36.396252     72.792503
     -3.938939     41.974600     41.974600     83.949200
     -3.928929     47.651256     47.651256     95.302511
     -3.918919     53.185644     53.185644    106.371288
     -3.908909     58.422058     58.422058    116.844115
     -3.898899     63.268147     63.268147    126.536294
     -3.888889     67.614730     67.614730    135.229460
     -3.878879     71.227784     71.227784    142.455568
     -3.868869     73.681809     73.681809    147.363618
     -3.858859     74.400023     74.400023    148.800046
     -3.848849     72.817017     72.817017    145.634034
     -3.838839     68.610808     68.610808    137.221616
     -3.828829     61.904014     61.904014    123.808027
     -3.818819     53.336477     53.336477    106.672953
     -3.808809     43.964097     43.964097     87.928194
     -3.798799     35.013095     35.013095     70.026190
     -3.788789     27.577208     27.577208     55.154416
     -3.778779     22.361215     22.361215     44.722429
     -3.768769     19.546887     19.546887     39.093774
     -3.758759     18.807547     18.807547     37.615093
     -3.748749     19.450243     19.450243     38.900486
     -3.738739     20.635482     20.635482     41.270965
     -3.728729     21.614780     21.614780     43.229559
     -3.718719     21.929752     21.929752     43.859504
     -3.708709     21.527136     21.527136     43.054273
     -3.698699     20.760224     20.760224     41.520448
     -3.688689     20.269894     20.269894     40.539788
     -3.678679     20.768318     20.768318     41.536636
     -3.668669     22.781466     22.781466     45.562933
     -3.658659     26.431808     26.431808     52.863615
     -3.648649     31.343748     31.343748     62.687497
     -3.638639     36.719404     36.719404     73.438808
     -3.628629     41.566477     41.566477     83.132954
     -3.618619     44.992204     44.992204     89.984409
     -3.608609     46.446870     46.446870     92.893740
     -3.598599     45.829227     45.829227     91.658454
     -3.588589     43.437738     43.437738     86.875477
     -3.578579     39.819753     39.819753     79.639505
     -3.568569     35.595650     35.595650     71.191299
     -3.558559     31.313938     31.313938     62.627877
     -3.548549     27.357271     27.357271     54.714541
     -3.538539     23.899903     23.899903     47.799806
     -3.528529     20.917864     20.917864     41.835727
     -3.518519     18.253621     18.253621     36.507243
     -3.508509     15.721391     15.721391     31.442781
     -3.498498     13.215529     13.215529     26.431058
     -3.488488     10.775958     10.775958     21.551915
     -3.478478      8.583580      8.583580     17.167159
     -3.468468      6.893306      6.893306     13.786612
     -3.458458      5.938331      5.938331     11.876662
     -3.448448      5.842962      5.842962     11.685924
     -3.438438      6.569066      6.569066     13.138133
     -3.428428      7.908296      7.908296     15.816592
     -3.418418      9.525255      9.525255     19.050511
     -3.408408     11.049025     11.049025     22.098050
     -3.398398     12.193835     12.193835     24.387670
     -3.388388     12.868854     12.868854     25.737708
     -3.378378     13.229073     13.229073     26.458146
     -3.368368     13.637770     13.637770     27.275540
     -3.358358     14.550207     14.550207     29.100415
     -3.348348     16.363690     16.363690     32.727380
     -3.338338     19.287322     19.287322     38.574645
     -3.328328     23.264028     23.264028     46.528056
     -3.318318     27.949597     27.949597     55.899194
     -3.308308     32.743689     32.743689     65.487378
     -3.298298     36.878104     36.878104     73.756207
     -3.288288     39.573561     39.573561     79.147123
     -3.278278     40.251511     40.251511     80.503023
     -3.268268     38.737305     38.737305     77.474610
     -3.258258     35.356825     35.356825     70.713650
     -3.248248     30.853543     30.853543     61.707087
     -3.238238     26.137847     26.137847     52.275694
     -3.228228     21.974530     21.974530     43.949061
     -3.218218     18.752897     18.752897     37.505793
     -3.208208     16.439606     16.439606     32.879213
     -3.198198     14.716893     14.716893     29.433785
     -3.188188     13.219614     13.219614     26.439229
     -3.178178     11.752419     11.752419     23.504837
     -3.168168     10.399933     10.399933     20.799865
     -3.158158      9.507009      9.507009     19.014018
     -3.148148      9.560505      9.560505     19.121010
     -3.138138     11.025042     11.025042     22.050084
     -3.128128     14.178313     14.178313     28.356627
     -3.118118     18.979258     18.979258     37.958516
     -3.108108     25.000187     25.000187     50.000373
     -3.098098     31.455677     31.455677     62.911353
     -3.088088     37.347201     37.347201     74.694402
     -3.078078     41.702627     41.702627     83.405254
     -3.068068     43.838561     43.838561     87.677122
     -3.058058     43.544622     43.544622     87.089244
     -3.048048     41.109573     41.109573     82.219147
     -3.038038     37.177644     37.177644     74.355288
     -3.028028     32.504137     32.504137     65.008275
     -3.018018     27.725360     27.725360     55.450721
     -3.008008     23.241192     23.241192     46.482384
     -2.997998     19.240343     19.240343     38.480685
     -2.987988     15.821570     15.821570     31.643140
     -2.977978     13.123671     13.123671     26.247341
     -2.967968     11.389702     11.389702     22.779403
     -2.957958     10.937912     10.937912     21.875824
     -2.947948     12.059306     12.059306     24.118612
     -2.937938     14.887222     14.887222     29.774443
     -2.927928     19.287673     19.287673     38.575346
     -2.917918     24.811392     24.811392     49.622785
     -2.907908     30.735230     30.735230     61.470461
     -2.897898     36.198300     36.198300     72.396600
     -2.887888     40.404861     40.404861     80.809722
     -2.877878     42.831297     42.831297     85.662595
     -2.867868     43.358940     43.358940     86.717880
     -2.857858     42.274076     42.274076     84.548151
     -2.847848     40.129202     40.129202     80.258405
     -2.837838     37.522019     37.522019     75.044038
     -2.827828     34.888126     34.888126     69.776253
     -2.817818     32.396722     32.396722     64.793443
     -2.807808     29.986636     29.986636     59.973272
     -2.797798     27.509043     27.509043     55.018087
     -2.787788     24.890973     24.890973     49.781947
     -2.777778     22.228839     22.228839     44.457678
     -2.767768     19.765923     19.765923     39.531845
     -2.757758     17.776585     17.776585     35.553169
     -2.747748     16.433325     16.433325     32.866650
     -2.737738     15.739701     15.739701     31.479402
     -2.727728     15.568197     15.568197     31.136395
     -2.717718     15.773734     15.773734     31.547468
     -2.707708     16.303281     16.303281     32.606562
     -2.697698     17.223547     17.223547     34.447094
     -2.687688     18.643536     18.643536     37.287073
     -2.677678     20.582724     20.582724     41.165449
     -2.667668     22.878650     22.878650     45.757300
     -2.657658     25.207410     25.207410     50.414820
     -2.647648     27.216810     27.216810     54.433620
     -2.637638     28.693707     28.693707     57.387414
     -2.627628     29.660010     29.660010     59.320019
     -2.617618     30.337106     30.337106     60.674212
     -2.607608     31.004737     31.004737     62.009475
     -2.597598     31.845057     31.845057     63.690113
     -2.587588     32.860225     32.860225     65.720450
     -2.577578     33.890209     33.890209     67.780418
     -2.567568     34.689732     34.689732     69.379465
     -2.557558     35.002467     35.002467     70.004935
     -2.547548     34.604129     34.604129     69.208257
     -2.537538     33.333629     33.333629     66.667257
     -2.527528     31.144524     31.144524     62.289048
     -2.517518     28.176506     28.176506     56.353011
     -2.507508     24.802499     24.802499     49.604998
     -2.497497     21.595729     21.595729     43.191457
     -2.487487     19.197696     19.197696     38.395393
     -2.477477     18.127000     18.127000     36.254000
     -2.467467     18.609392     18.609392     37.218785
     -2.457457     20.506607     20.506607     41.013213
     -2.447447     23.378897     23.378897     46.757793
     -2.437437     26.656879     26.656879     53.313759
     -2.427427     29.849202     29.849202     59.698405
     -2.417417     32.694860     32.694860     65.389719
     -2.407407     35.191764     35.191764     70.383528
     -2.397397     37.489169     37.489169     74.978339
     -2.387387     39.697305     39.697305     79.394610
     -2.377377     41.712240     41.712240     83.424481
     -2.367367     43.153602     43.153602     86.307204
     -2.357357     43.462849     43.462849     86.925698
     -2.347347     42.130481     42.130481     84.260962
     -2.337337     38.950546     38.950546     77.901092
     -2.327327     34.179806     34.179806     68.359612
     -2.317317     28.522637     28.522637     57.045275
     -2.307307     22.948260     22.948260     45.896520
     -2.297297     18.424156     18.424156     36.848313
     -2.287287     15.675466     15.675466     31.350931
     -2.277277     15.048388     15.048388     30.096775
     -2.267267     16.496100     16.496100     32.992201
     -2.257257     19.656904     19.656904     39.313808
     -2.247247     23.975519     23.975519     47.951038
     -2.237237     28.824452     28.824452     57.648903
     -2.227227     33.598170     33.598170     67.196341
     -2.217217     37.769086     37.769086     75.538172
     -2.207207     40.909719     40.909719     81.819437
     -2.197197     42.699104     42.699104     85.398209
     -2.187187     42.937330     42.937330     85.874660
     -2.177177     41.581925     41.581925     83.163851
     -2.167167     38.793892     38.793892     77.587785
     -2.157157     34.954756     34.954756     69.909513
     -2.147147     30.612907     30.612907     61.225814
     -2.137137     26.350024     26.350024     52.700048
     -2.127127     22.611260     22.611260     45.222519
     -2.117117     19.578683     19.578683     39.157366
     -2.107107     17.154975     17.154975     34.309950
     -2.097097     15.066092     15.066092     30.132185
     -2.087087     13.025428     13.025428     26.050856
     -2.077077     10.872433     10.872433     21.744867
     -2.067067      8.622899      8.622899     17.245798
     -2.057057      6.425074      6.425074     12.850147
     -2.047047      4.465441      4.465441      8.930883
     -2.037037      2.882178      2.882178      5.764356
     -2.027027      1.723567      1.723567      3.447135
     -2.017017      0.954950      0.954950      1.909899
     -2.007007      0.494162      0.494162      0.988325
     -1.996997      0.251117      0.251117      0.502235
     -1.986987      0.156658      0.156658      0.313316
     -1.976977      0.178002      0.178002      0.356005
     -1.966967      0.324955      0.324955      0.649910
     -1.956957      0.650866      0.650866      1.301732
     -1.946947      1.247908      1.247908      2.495817
     -1.936937      2.232152      2.232152      4.464305
     -1.926927      3.714285      3.714285      7.428570
     -1.916917      5.758402      5.758402     11.516804
     -1.906907      8.341477      8.341477     16.682955
     -1.896897     11.333043     11.333043     22.666087
     -1.886887     14.510971     14.510971     29.021941
     -1.876877     17.613638     17.613638     35.227276
     -1.866867     20.409149     20.409149     40.818298
     -1.856857     22.751216     22.751216     45.502433
     -1.846847     24.596749     24.596749     49.193499
     -1.836837     25.978806     25.978806     51.957613
     -1.826827     26.949410     26.949410     53.898819
     -1.816817     27.519531     27.519531     55.039062
     -1.806807     27.624425     27.624425     55.248850
     -1.796797     27.132485     27.132485     54.264970
     -1.786787     25.898111     25.898111     51.796221
     -1.776777     23.838869     23.838869     47.677737
     -1.766767     21.002994     21.002994     42.005989
     -1.756757     17.593974     17.593974     35.187947
     -1.746747     13.937266     13.937266     27.874532
     -1.736737     10.402062     10.402062     20.804124
     -1.726727      7.312735      7.312735     14.625470
     -1.716717      4.887622      4.887622      9.775243
     -1.706707      3.225642      3.225642      6.451285
     -1.696697      2.335001      2.335001      4.670001
     -1.686687      2.177716      2.177716      4.355432
     -1.676677      2.699300      2.699300      5.398600
     -1.666667      3.825379      3.825379      7.650757
     -1.656657      5.429634      5.429634     10.859268
     -1.646647      7.298907      7.298907     14.597813
     -1.636637      9.129880      9.129880     18.259760
     -1.626627     10.580118     10.580118     21.160235
