# EIG2DOS: Utility for SIESTA to obtain the electronic density of states
#  E. Artacho, Apr 1999, A. Garcia, Apr 2012
#  Nick R. Papior, Feb 2017
# ------------------------------------------
# Eigenvalues calculated from a non-polarized calculation
# Eigenvalues read from siesta.EIG
# Kpoint weights read from siesta.KP
# Using smearing parameter:   0.0500
# Using 1000 points in the energy range
# Selected bands: 1 to: 2981
# Emin, Emax in file for selected band(s):    -27.2365394    218.3607830
# Nbands, Nspin, Nk   =   2981     1     1
# E_F                 =    -4.2497 eV --> (shifted to ZERO)
# Broadening          =     0.0500 eV
#
#        E            N(up)  (=)   N(down)         Ntot
     -5.000000     32.514286     32.514286     65.028571
     -4.989990     36.684740     36.684740     73.369480
     -4.979980     40.469780     40.469780     80.939560
     -4.969970     43.293932     43.293932     86.587864
     -4.959960     44.673759     44.673759     89.347518
     -4.949950     44.371225     44.371225     88.742450
     -4.939940     42.480801     42.480801     84.961602
     -4.929930     39.425897     39.425897     78.851795
     -4.919920     35.882047     35.882047     71.764094
     -4.909910     32.663437     32.663437     65.326873
     -4.899900     30.596807     30.596807     61.193614
     -4.889890     30.380689     30.380689     60.761378
     -4.879880     32.420926     32.420926     64.841852
     -4.869870     36.663154     36.663154     73.326308
     -4.859860     42.490677     42.490677     84.981354
     -4.849850     48.776033     48.776033     97.552066
     -4.839840     54.130421     54.130421    108.260842
     -4.829830     57.297029     57.297029    114.594059
     -4.819820     57.540432     57.540432    115.080863
     -4.809810     54.862214     54.862214    109.724428
     -4.799800     49.948031     49.948031     99.896061
     -4.789790     43.882319     43.882319     87.764639
     -4.779780     37.773488     37.773488     75.546977
     -4.769770     32.452368     32.452368     64.904736
     -4.759760     28.339609     28.339609     56.679217
     -4.749750     25.478404     25.478404     50.956808
     -4.739740     23.660794     23.660794     47.321588
     -4.729730     22.565852     22.565852     45.131704
     -4.719720     21.859795     21.859795     43.719590
     -4.709710     21.248385     21.248385     42.496770
     -4.699700     20.498938     20.498938     40.997876
     -4.689690     19.458078     19.458078     38.916156
     -4.679680     18.084554     18.084554     36.169107
     -4.669670     16.497956     16.497956     32.995911
     -4.659660     15.021749     15.021749     30.043497
     -4.649650     14.184927     14.184927     28.369853
     -4.639640     14.650490     14.650490     29.300981
     -4.629630     17.061144     17.061144     34.122287
     -4.619620     21.825749     21.825749     43.651498
     -4.609610     28.904717     28.904717     57.809435
     -4.599600     37.677344     37.677344     75.354687
     -4.589590     46.972901     46.972901     93.945803
     -4.579580     55.304720     55.304720    110.609440
     -4.569570     61.265436     61.265436    122.530873
     -4.559560     63.955561     63.955561    127.911123
     -4.549550     63.277213     63.277213    126.554426
     -4.539540     59.963925     59.963925    119.927851
     -4.529530     55.323967     55.323967    110.647934
     -4.519520     50.795706     50.795706    101.591411
     -4.509510     47.488436     47.488436     94.976871
     -4.499499     45.877892     45.877892     91.755783
     -4.489489     45.751020     45.751020     91.502040
     -4.479479     46.389026     46.389026     92.778052
     -4.469469     46.889005     46.889005     93.778009
     -4.459459     46.487389     46.487389     92.974777
     -4.449449     44.771963     44.771963     89.543925
     -4.439439     41.735085     41.735085     83.470169
     -4.429429     37.693943     37.693943     75.387886
     -4.419419     33.149288     33.149288     66.298576
     -4.409409     28.654478     28.654478     57.308955
     -4.399399     24.729941     24.729941     49.459883
     -4.389389     21.813346     21.813346     43.626691
     -4.379379     20.214538     20.214538     40.429077
     -4.369369     20.059239     20.059239     40.118478
     -4.359359     21.240261     21.240261     42.480521
     -4.349349     23.417644     23.417644     46.835288
     -4.339339     26.097052     26.097052     52.194104
     -4.329329     28.774751     28.774751     57.549502
     -4.319319     31.095926     31.095926     62.191853
     -4.309309     32.959462     32.959462     65.918924
     -4.299299     34.523889     34.523889     69.047778
     -4.289289     36.110380     36.110380     72.220760
     -4.279279     38.036761     38.036761     76.073523
     -4.269269     40.439318     40.439318     80.878637
     -4.259259     43.146798     43.146798     86.293595
     -4.249249     45.664393     45.664393     91.328787
     -4.239239     47.298026     47.298026     94.596052
     -4.229229     47.395972     47.395972     94.791944
     -4.219219     45.620782     45.620782     91.241563
     -4.209209     42.127532     42.127532     84.255064
     -4.199199     37.551013     37.551013     75.102027
     -4.189189     32.793729     32.793729     65.587458
     -4.179179     28.710267     28.710267     57.420534
     -4.169169     25.836786     25.836786     51.673571
     -4.159159     24.283911     24.283911     48.567822
     -4.149149     23.819996     23.819996     47.639992
     -4.139139     24.077369     24.077369     48.154738
     -4.129129     24.766482     24.766482     49.532965
     -4.119119     25.795077     25.795077     51.590154
     -4.109109     27.243637     27.243637     54.487274
     -4.099099     29.217313     29.217313     58.434627
     -4.089089     31.654572     31.654572     63.309144
     -4.079079     34.202261     34.202261     68.404523
     -4.069069     36.245823     36.245823     72.491647
     -4.059059     37.109109     37.109109     74.218219
     -4.049049     36.341662     36.341662     72.683325
     -4.039039     33.949653     33.949653     67.899306
     -4.029029     30.445775     30.445775     60.891549
     -4.019019     26.688554     26.688554     53.377109
     -4.009009     23.594327     23.594327     47.188654
     -3.998999     21.864226     21.864226     43.728451
     -3.988989     21.841102     21.841102     43.682204
     -3.978979     23.523970     23.523970     47.047940
     -3.968969     26.682629     26.682629     53.365259
     -3.958959     30.984174     30.984174     61.968348
     -3.948949     36.073646     36.073646     72.147293
     -3.938939     41.607414     41.607414     83.214829
     -3.928929     47.272393     47.272393     94.544786
     -3.918919     52.814620     52.814620    105.629239
     -3.908909     58.064459     58.064459    116.128918
     -3.898899     62.922308     62.922308    125.844616
     -3.888889     67.284461     67.284461    134.568921
     -3.878879     70.935100     70.935100    141.870200
     -3.868869     73.471341     73.471341    146.942683
     -3.858859     74.329624     74.329624    148.659249
     -3.848849     72.936251     72.936251    145.872503
     -3.838839     68.936505     68.936505    137.873010
     -3.828829     62.405039     62.405039    124.810079
     -3.818819     53.936051     53.936051    107.872103
     -3.808809     44.559452     44.559452     89.118903
     -3.798799     35.504241     35.504241     71.008481
     -3.788789     27.893557     27.893557     55.787114
     -3.778779     22.477454     22.477454     44.954908
     -3.768769     19.485016     19.485016     38.970032
     -3.758759     18.626781     18.626781     37.253563
     -3.748749     19.228888     19.228888     38.457777
     -3.738739     20.449488     20.449488     40.898976
     -3.728729     21.517724     21.517724     43.035447
     -3.718719     21.938845     21.938845     43.877690
     -3.708709     21.619064     21.619064     43.238127
     -3.698699     20.878709     20.878709     41.757417
     -3.688689     20.343806     20.343806     40.687613
     -3.678679     20.735649     20.735649     41.471298
     -3.668669     22.611733     22.611733     45.223465
     -3.658659     26.138849     26.138849     52.277698
     -3.648649     30.983521     30.983521     61.967042
     -3.638639     36.372926     36.372926     72.745853
     -3.628629     41.314377     41.314377     82.628753
     -3.618619     44.890927     44.890927     89.781854
     -3.608609     46.515295     46.515295     93.030590
     -3.598599     46.048911     46.048911     92.097822
     -3.588589     43.763835     43.763835     87.527670
     -3.578579     40.196398     40.196398     80.392797
     -3.568569     35.970297     35.970297     71.940593
     -3.558559     31.647765     31.647765     63.295530
     -3.548549     27.630834     27.630834     55.261668
     -3.538539     24.113717     24.113717     48.227434
     -3.528529     21.087774     21.087774     42.175549
     -3.518519     18.401973     18.401973     36.803946
     -3.508509     15.866863     15.866863     31.733726
     -3.498498     13.365562     13.365562     26.731123
     -3.488488     10.924646     10.924646     21.849292
     -3.478478      8.715264      8.715264     17.430528
     -3.468468      6.989550      6.989550     13.979099
     -3.458458      5.985123      5.985123     11.970246
     -3.448448      5.835782      5.835782     11.671565
     -3.438438      6.514826      6.514826     13.029651
     -3.428428      7.823989      7.823989     15.647978
     -3.418418      9.433489      9.433489     18.866977
     -3.408408     10.971015     10.971015     21.942030
     -3.398398     12.141478     12.141478     24.282957
     -3.388388     12.838425     12.838425     25.676849
     -3.378378     13.199114     13.199114     26.398229
     -3.368368     13.572559     13.572559     27.145118
     -3.358358     14.408722     14.408722     28.817445
     -3.348348     16.113570     16.113570     32.227141
     -3.338338     18.923953     18.923953     37.847906
     -3.328328     22.834873     22.834873     45.669746
     -3.318318     27.580921     27.580921     55.161841
     -3.308308     32.660336     32.660336     65.320672
     -3.298298     37.400081     37.400081     74.800162
     -3.288288     41.071478     41.071478     82.142956
     -3.278278     43.051896     43.051896     86.103792
     -3.268268     42.989640     42.989640     85.979280
     -3.258258     40.901228     40.901228     81.802457
     -3.248248     37.148566     37.148566     74.297132
     -3.238238     32.305666     32.305666     64.611332
     -3.228228     26.985536     26.985536     53.971072
     -3.218218     21.710524     21.710524     43.421048
     -3.208208     16.867892     16.867892     33.735785
     -3.198198     12.734527     12.734527     25.469053
     -3.188188      9.523903      9.523903     19.047807
     -3.178178      7.416770      7.416770     14.833540
     -3.168168      6.563741      6.563741     13.127482
     -3.158158      7.067310      7.067310     14.134621
     -3.148148      8.954434      8.954434     17.908868
     -3.138138     12.147386     12.147386     24.294772
     -3.128128     16.439509     16.439509     32.879018
     -3.118118     21.484399     21.484399     42.968798
     -3.108108     26.807552     26.807552     53.615105
     -3.098098     31.846649     31.846649     63.693298
     -3.088088     36.021990     36.021990     72.043981
     -3.078078     38.831937     38.831937     77.663873
     -3.068068     39.956539     39.956539     79.913077
     -3.058058     39.337344     39.337344     78.674687
     -3.048048     37.194469     37.194469     74.388937
     -3.038038     33.958496     33.958496     67.916992
     -3.028028     30.135192     30.135192     60.270384
     -3.018018     26.162481     26.162481     52.324962
     -3.008008     22.329276     22.329276     44.658551
     -2.997998     18.791449     18.791449     37.582897
     -2.987988     15.662442     15.662442     31.324883
     -2.977978     13.114279     13.114279     26.228558
     -2.967968     11.425007     11.425007     22.850013
     -2.957958     10.944167     10.944167     21.888334
     -2.947948     11.990675     11.990675     23.981350
     -2.937938     14.723798     14.723798     29.447597
     -2.927928     19.033803     19.033803     38.067606
     -2.917918     24.492733     24.492733     48.985466
     -2.907908     30.393252     30.393252     60.786505
     -2.897898     35.881771     35.881771     71.763542
     -2.887888     40.159206     40.159206     80.318412
     -2.877878     42.688251     42.688251     85.376502
     -2.867868     43.329646     43.329646     86.659291
     -2.857858     42.348158     42.348158     84.696316
     -2.847848     40.280253     40.280253     80.560506
     -2.837838     37.717293     37.717293     75.434586
     -2.827828     35.098352     35.098352     70.196703
     -2.817818     32.601928     32.601928     65.203856
     -2.807808     30.176097     30.176097     60.352193
     -2.797798     27.676703     27.676703     55.353406
     -2.787788     25.030247     25.030247     50.060494
     -2.777778     22.330757     22.330757     44.661513
     -2.767768     19.822085     19.822085     39.644170
     -2.757758     17.784776     17.784776     35.569551
     -2.747748     16.401309     16.401309     32.802618
     -2.737738     15.683445     15.683445     31.366889
     -2.727728     15.504346     15.504346     31.008692
     -2.717718     15.710433     15.710433     31.420867
     -2.707708     16.235403     16.235403     32.470805
     -2.697698     17.136230     17.136230     34.272460
     -2.687688     18.522688     18.522688     37.045376
     -2.677678     20.426056     20.426056     40.852113
     -2.667668     22.699647     22.699647     45.399294
     -2.657658     25.028680     25.028680     50.057360
     -2.647648     27.056209     27.056209     54.112417
     -2.637638     28.551880     28.551880     57.103759
     -2.627628     29.517677     29.517677     59.035354
     -2.617618     30.164464     30.164464     60.328928
     -2.607608     30.777760     30.777760     61.555521
     -2.597598     31.559540     31.559540     63.119079
     -2.587588     32.536701     32.536701     65.073402
     -2.577578     33.569121     33.569121     67.138243
     -2.567568     34.421366     34.421366     68.842731
     -2.557558     34.836538     34.836538     69.673076
     -2.547548     34.580587     34.580587     69.161174
     -2.537538     33.473437     33.473437     66.946874
     -2.527528     31.440194     31.440194     62.880389
     -2.517518     28.585958     28.585958     57.171916
     -2.507508     25.251981     25.251981     50.503962
     -2.497497     21.994989     21.994989     43.989978
     -2.487487     19.464250     19.464250     38.928500
     -2.477477     18.210529     18.210529     36.421058
     -2.467467     18.506067     18.506067     37.012135
     -2.457457     20.257244     20.257244     40.514489
     -2.447447     23.052028     23.052028     46.104056
     -2.437437     26.324272     26.324272     52.648544
     -2.427427     29.564053     29.564053     59.128107
     -2.417417     32.480737     32.480737     64.961474
     -2.407407     35.044883     35.044883     70.089766
     -2.397397     37.390879     37.390879     74.781757
     -2.387387     39.630376     39.630376     79.260753
     -2.377377     41.674303     41.674303     83.348606
     -2.367367     43.162671     43.162671     86.325342
     -2.357357     43.552430     43.552430     87.104860
     -2.347347     42.335252     42.335252     84.670505
     -2.337337     39.287994     39.287994     78.575988
     -2.327327     34.636376     34.636376     69.272752
     -2.317317     29.052040     29.052040     58.104080
     -2.307307     23.483809     23.483809     46.967619
     -2.297297     18.899491     18.899491     37.798982
     -2.287287     16.043601     16.043601     32.087201
     -2.277277     15.290528     15.290528     30.581056
     -2.267267     16.617665     16.617665     33.235330
     -2.257257     19.674901     19.674901     39.349802
     -2.247247     23.905216     23.905216     47.810432
     -2.237237     28.672802     28.672802     57.345605
     -2.227227     33.367286     33.367286     66.734572
     -2.217217     37.467233     37.467233     74.934465
     -2.207207     40.562663     40.562663     81.125326
     -2.197197     42.353681     42.353681     84.707362
     -2.187187     42.652837     42.652837     85.305674
     -2.177177     41.411758     41.411758     82.823516
     -2.167167     38.765973     38.765973     77.531945
     -2.157157     35.061014     35.061014     70.122029
     -2.147147     30.813858     30.813858     61.627717
     -2.137137     26.592481     26.592481     53.184963
     -2.127127     22.850087     22.850087     45.700174
     -2.117117     19.791639     19.791639     39.583277
     -2.107107     17.344190     17.344190     34.688380
     -2.097097     15.247633     15.247633     30.495265
     -2.087087     13.214577     13.214577     26.429154
     -2.077077     11.073247     11.073247     22.146494
     -2.067067      8.826476      8.826476     17.652951
     -2.057057      6.615227      6.615227     13.230453
     -2.047047      4.626861      4.626861      9.253722
     -2.037037      3.006304      3.006304      6.012607
     -2.027027      1.810059      1.810059      3.620118
     -2.017017      1.009542      1.009542      2.019084
     -2.007007      0.525060      0.525060      1.050120
     -1.996997      0.265833      0.265833      0.531665
     -1.986987      0.160155      0.160155      0.320310
     -1.976977      0.172222      0.172222      0.344444
     -1.966967      0.309776      0.309776      0.619553
     -1.956957      0.627300      0.627300      1.254601
     -1.946947      1.225326      1.225326      2.450651
     -1.936937      2.241718      2.241718      4.483436
     -1.926927      3.829298      3.829298      7.658596
     -1.916917      6.117706      6.117706     12.235413
     -1.906907      9.164791      9.164791     18.329582
     -1.896897     12.909910     12.909910     25.819821
     -1.886887     17.144297     17.144297     34.288593
     -1.876877     21.511298     21.511298     43.022596
     -1.866867     25.544584     25.544584     51.089168
     -1.856857     28.746629     28.746629     57.493258
     -1.846847     30.699594     30.699594     61.399189
     -1.836837     31.182605     31.182605     62.365210
     -1.826827     30.250067     30.250067     60.500135
     -1.816817     28.223931     28.223931     56.447863
     -1.806807     25.583971     25.583971     51.167942
     -1.796797     22.795078     22.795078     45.590157
     -1.786787     20.153446     20.153446     40.306892
     -1.776777     17.728614     17.728614     35.457228
     -1.766767     15.423040     15.423040     30.846080
     -1.756757     13.102012     13.102012     26.204024
     -1.746747     10.712312     10.712312     21.424625
     -1.736737      8.328328      8.328328     16.656656
     -1.726727      6.118551      6.118551     12.237102
     -1.716717      4.272354      4.272354      8.544709
     -1.706707      2.938101      2.938101      5.876202
     -1.696697      2.200616      2.200616      4.401232
     -1.686687      2.091973      2.091973      4.183946
     -1.676677      2.608471      2.608471      5.216941
     -1.666667      3.708753      3.708753      7.417506
     -1.656657      5.288175      5.288175     10.576350
     -1.646647      7.148626      7.148626     14.297252
     -1.636637      8.995943      8.995943     17.991887
     -1.626627     10.489056     10.489056     20.978112
