# EIG2DOS: Utility for SIESTA to obtain the electronic density of states
#  E. Artacho, Apr 1999, A. Garcia, Apr 2012
#  Nick R. Papior, Feb 2017
# ------------------------------------------
# Eigenvalues calculated from a non-polarized calculation
# Eigenvalues read from siesta.EIG
# Kpoint weights read from siesta.KP
# Using smearing parameter:   0.0500
# Using 1000 points in the energy range
# Selected bands: 1 to: 2981
# Emin, Emax in file for selected band(s):    -27.4922786    218.4045430
# Nbands, Nspin, Nk   =   2981     1     1
# E_F                 =    -4.2052 eV --> (shifted to ZERO)
# Broadening          =     0.0500 eV
#
#        E            N(up)  (=)   N(down)         Ntot
     -5.000000     36.233862     36.233862     72.467723
     -4.989990     40.589809     40.589809     81.179619
     -4.979980     43.968390     43.968390     87.936781
     -4.969970     45.796097     45.796097     91.592194
     -4.959960     45.794453     45.794453     91.588905
     -4.949950     44.084989     44.084989     88.169978
     -4.939940     41.174185     41.174185     82.348369
     -4.929930     37.843791     37.843791     75.687582
     -4.919920     34.997933     34.997933     69.995865
     -4.909910     33.504302     33.504302     67.008605
     -4.899900     34.036531     34.036531     68.073063
     -4.889890     36.914418     36.914418     73.828836
     -4.879880     41.964001     41.964001     83.928002
     -4.869870     48.458577     48.458577     96.917153
     -4.859860     55.210713     55.210713    110.421426
     -4.849850     60.836982     60.836982    121.673964
     -4.839840     64.130248     64.130248    128.260496
     -4.829830     64.404023     64.404023    128.808045
     -4.819820     61.670067     61.670067    123.340134
     -4.809810     56.581244     56.581244    113.162489
     -4.799800     50.176087     50.176087    100.352175
     -4.789790     43.541320     43.541320     87.082640
     -4.779780     37.525535     37.525535     75.051069
     -4.769770     32.592743     32.592743     65.185486
     -4.759760     28.831298     28.831298     57.662597
     -4.749750     26.071446     26.071446     52.142892
     -4.739740     24.037407     24.037407     48.074814
     -4.729730     22.468479     22.468479     44.936958
     -4.719720     21.174624     21.174624     42.349249
     -4.709710     20.029511     20.029511     40.059023
     -4.699700     18.934654     18.934654     37.869307
     -4.689690     17.800294     17.800294     35.600589
     -4.679680     16.574379     16.574379     33.148759
     -4.669670     15.315003     15.315003     30.630005
     -4.659660     14.264014     14.264014     28.528028
     -4.649650     13.864091     13.864091     27.728182
     -4.639640     14.679341     14.679341     29.358683
     -4.629630     17.221696     17.221696     34.443393
     -4.619620     21.732161     21.732161     43.464321
     -4.609610     27.998923     27.998923     55.997846
     -4.599600     35.299732     35.299732     70.599464
     -4.589590     42.524569     42.524569     85.049138
     -4.579580     48.467653     48.467653     96.935307
     -4.569570     52.197576     52.197576    104.395151
     -4.559560     53.362223     53.362223    106.724446
     -4.549550     52.297829     52.297829    104.595657
     -4.539540     49.891017     49.891017     99.782035
     -4.529530     47.249759     47.249759     94.499519
     -4.519520     45.317747     45.317747     90.635494
     -4.509510     44.580472     44.580472     89.160943
     -4.499499     44.961376     44.961376     89.922751
     -4.489489     45.923292     45.923292     91.846584
     -4.479479     46.712302     46.712302     93.424604
     -4.469469     46.637456     46.637456     93.274912
     -4.459459     45.282643     45.282643     90.565286
     -4.449449     42.590001     42.590001     85.180002
     -4.439439     38.815739     38.815739     77.631478
     -4.429429     34.410258     34.410258     68.820515
     -4.419419     29.891577     29.891577     59.783155
     -4.409409     25.759107     25.759107     51.518214
     -4.399399     22.451517     22.451517     44.903034
     -4.389389     20.319049     20.319049     40.638098
     -4.379379     19.580570     19.580570     39.161141
     -4.369369     20.266564     20.266564     40.533128
     -4.359359     22.183511     22.183511     44.367021
     -4.349349     24.941796     24.941796     49.883592
     -4.339339     28.059331     28.059331     56.118661
     -4.329329     31.106783     31.106783     62.213567
     -4.319319     33.830888     33.830888     67.661777
     -4.309309     36.199752     36.199752     72.399504
     -4.299299     38.351766     38.351766     76.703532
     -4.289289     40.472690     40.472690     80.945380
     -4.279279     42.651887     42.651887     85.303774
     -4.269269     44.773485     44.773485     89.546971
     -4.259259     46.488131     46.488131     92.976263
     -4.249249     47.290228     47.290228     94.580456
     -4.239239     46.691358     46.691358     93.382716
     -4.229229     44.435256     44.435256     88.870512
     -4.219219     40.663101     40.663101     81.326203
     -4.209209     35.940254     35.940254     71.880507
     -4.199199     31.110435     31.110435     62.220869
     -4.189189     27.028118     27.028118     54.056235
     -4.179179     24.285271     24.285271     48.570543
     -4.169169     23.053969     23.053969     46.107938
     -4.159159     23.108393     23.108393     46.216786
     -4.149149     24.002474     24.002474     48.004948
     -4.139139     25.308466     25.308466     50.616932
     -4.129129     26.798434     26.798434     53.596869
     -4.119119     28.481592     28.481592     56.963184
     -4.109109     30.481903     30.481903     60.963807
     -4.099099     32.824047     32.824047     65.648094
     -4.089089     35.253467     35.253467     70.506934
     -4.079079     37.211694     37.211694     74.423389
     -4.069069     38.010992     38.010992     76.021984
     -4.059059     37.136963     37.136963     74.273925
     -4.049049     34.523118     34.523118     69.046236
     -4.039039     30.646499     30.646499     61.292997
     -4.029029     26.390434     26.390434     52.780868
     -4.019019     22.747884     22.747884     45.495768
     -4.009009     20.515412     20.515412     41.030823
     -3.998999     20.111619     20.111619     40.223239
     -3.988989     21.567251     21.567251     43.134502
     -3.978979     24.640203     24.640203     49.280407
     -3.968969     28.963711     28.963711     57.927421
     -3.958959     34.154646     34.154646     68.309292
     -3.948949     39.862733     39.862733     79.725466
     -3.938939     45.784897     45.784897     91.569795
     -3.928929     51.673604     51.673604    103.347208
     -3.918919     57.341600     57.341600    114.683199
     -3.908909     62.641583     62.641583    125.283167
     -3.898899     67.406179     67.406179    134.812358
     -3.888889     71.368423     71.368423    142.736846
     -3.878879     74.115060     74.115060    148.230121
     -3.868869     75.123597     75.123597    150.247194
     -3.858859     73.894908     73.894908    147.789815
     -3.848849     70.140208     70.140208    140.280416
     -3.838839     63.946636     63.946636    127.893271
     -3.828829     55.847774     55.847774    111.695547
     -3.818819     46.760806     46.760806     93.521612
     -3.808809     37.802195     37.802195     75.604390
     -3.798799     30.037242     30.037242     60.074484
     -3.788789     24.240051     24.240051     48.480102
     -3.778779     20.734026     20.734026     41.468052
     -3.768769     19.354648     19.354648     38.709297
     -3.758759     19.538255     19.538255     39.076510
     -3.748749     20.506266     20.506266     41.012532
     -3.738739     21.492526     21.492526     42.985051
     -3.728729     21.954712     21.954712     43.909423
     -3.718719     21.717094     21.717094     43.434187
     -3.708709     21.007914     21.007914     42.015828
     -3.698699     20.377940     20.377940     40.755881
     -3.688689     20.515814     20.515814     41.031628
     -3.678679     22.007378     22.007378     44.014756
     -3.668669     25.111880     25.111880     50.223761
     -3.658659     29.634538     29.634538     59.269077
     -3.648649     34.950844     34.950844     69.901687
     -3.638639     40.183754     40.183754     80.367509
     -3.628629     44.470390     44.470390     88.940781
     -3.618619     47.212969     47.212969     94.425937
     -3.608609     48.215919     48.215919     96.431838
     -3.598599     47.666672     47.666672     95.333345
     -3.588589     45.990425     45.990425     91.980849
     -3.578579     43.658145     43.658145     87.316291
     -3.568569     41.029756     41.029756     82.059511
     -3.558559     38.279675     38.279675     76.559349
     -3.548549     35.408094     35.408094     70.816188
     -3.538539     32.311968     32.311968     64.623936
     -3.528529     28.880349     28.880349     57.760698
     -3.518519     25.081490     25.081490     50.162981
     -3.508509     21.016383     21.016383     42.032766
     -3.498498     16.923819     16.923819     33.847638
     -3.488488     13.137003     13.137003     26.274005
     -3.478478     10.007656     10.007656     20.015311
     -3.468468      7.822743      7.822743     15.645485
     -3.458458      6.736748      6.736748     13.473497
     -3.448448      6.733191      6.733191     13.466383
     -3.438438      7.621972      7.621972     15.243944
     -3.428428      9.078062      9.078062     18.156124
     -3.418418     10.725111     10.725111     21.450223
     -3.408408     12.254572     12.254572     24.509144
     -3.398398     13.546995     13.546995     27.093990
     -3.388388     14.742893     14.742893     29.485786
     -3.378378     16.216547     16.216547     32.433094
     -3.368368     18.443737     18.443737     36.887474
     -3.358358     21.805927     21.805927     43.611853
     -3.348348     26.407578     26.407578     52.815157
     -3.338338     31.978159     31.978159     63.956318
     -3.328328     37.890828     37.890828     75.781656
     -3.318318     43.283150     43.283150     86.566301
     -3.308308     47.238428     47.238428     94.476857
     -3.298298     48.984402     48.984402     97.968804
     -3.288288     48.072553     48.072553     96.145107
     -3.278278     44.500081     44.500081     89.000162
     -3.268268     38.733177     38.733177     77.466354
     -3.258258     31.605640     31.605640     63.211280
     -3.248248     24.110520     24.110520     48.221039
     -3.238238     17.153620     17.153620     34.307239
     -3.228228     11.359568     11.359568     22.719135
     -3.218218      6.994655      6.994655     13.989311
     -3.208208      4.012739      4.012739      8.025479
     -3.198198      2.179017      2.179017      4.358034
     -3.188188      1.209145      1.209145      2.418289
     -3.178178      0.877437      0.877437      1.754874
     -3.168168      1.076818      1.076818      2.153636
     -3.158158      1.833438      1.833438      3.666877
     -3.148148      3.283175      3.283175      6.566350
     -3.138138      5.612820      5.612820     11.225639
     -3.128128      8.968596      8.968596     17.937193
     -3.118118     13.346731     13.346731     26.693463
     -3.108108     18.501180     18.501180     37.002360
     -3.098098     23.916928     23.916928     47.833856
     -3.088088     28.885775     28.885775     57.771550
     -3.078078     32.679920     32.679920     65.359839
     -3.068068     34.764194     34.764194     69.528388
     -3.058058     34.954583     34.954583     69.909166
     -3.048048     33.447127     33.447127     66.894255
     -3.038038     30.705828     30.705828     61.411656
     -3.028028     27.273618     27.273618     54.547236
     -3.018018     23.607891     23.607891     47.215782
     -3.008008     20.016906     20.016906     40.033811
     -2.997998     16.705018     16.705018     33.410035
     -2.987988     13.870957     13.870957     27.741914
     -2.977978     11.783290     11.783290     23.566579
     -2.967968     10.783934     10.783934     21.567867
     -2.957958     11.216602     11.216602     22.433203
     -2.947948     13.311717     13.311717     26.623434
     -2.937938     17.071485     17.071485     34.142970
     -2.927928     22.195750     22.195750     44.391499
     -2.917918     28.080592     28.080592     56.161185
     -2.907908     33.907421     33.907421     67.814842
     -2.897898     38.815227     38.815227     77.630454
     -2.887888     42.114215     42.114215     84.228430
     -2.877878     43.469649     43.469649     86.939299
     -2.867868     42.981039     42.981039     85.962078
     -2.857858     41.115234     41.115234     82.230468
     -2.847848     38.513423     38.513423     77.026846
     -2.837838     35.752284     35.752284     71.504569
     -2.827828     33.164435     33.164435     66.328869
     -2.817818     30.794805     30.794805     61.589610
     -2.807808     28.499694     28.499694     56.999388
     -2.797798     26.121842     26.121842     52.243685
     -2.787788     23.639687     23.639687     47.279375
     -2.777778     21.211866     21.211866     42.423733
     -2.767768     19.104435     19.104435     38.208870
     -2.757758     17.557833     17.557833     35.115666
     -2.747748     16.681602     16.681602     33.363204
     -2.737738     16.439308     16.439308     32.878615
     -2.727728     16.721296     16.721296     33.442591
     -2.717718     17.441960     17.441960     34.883920
     -2.707708     18.583168     18.583168     37.166337
     -2.697698     20.148569     20.148569     40.297139
     -2.687688     22.065555     22.065555     44.131110
     -2.677678     24.119658     24.119658     48.239317
     -2.667668     25.990992     25.990992     51.981984
     -2.657658     27.390214     27.390214     54.780428
     -2.647648     28.213559     28.213559     56.427117
     -2.637638     28.612105     28.612105     57.224210
     -2.627628     28.921375     28.921375     57.842750
     -2.617618     29.488214     29.488214     58.976428
     -2.607608     30.496528     30.496528     60.993055
     -2.597598     31.886210     31.886210     63.772420
     -2.587588     33.391211     33.391211     66.782421
     -2.577578     34.649016     34.649016     69.298033
     -2.567568     35.308925     35.308925     70.617850
     -2.557558     35.098959     35.098959     70.197919
     -2.547548     33.862165     33.862165     67.724330
     -2.537538     31.594063     31.594063     63.188125
     -2.527528     28.489570     28.489570     56.979139
     -2.517518     24.968016     24.968016     49.936033
     -2.507508     21.630428     21.630428     43.260857
     -2.497497     19.130932     19.130932     38.261864
     -2.487487     17.994754     17.994754     35.989508
     -2.477477     18.453212     18.453212     36.906424
     -2.467467     20.367709     20.367709     40.735417
     -2.457457     23.280462     23.280462     46.560924
     -2.447447     26.577444     26.577444     53.154888
     -2.437437     29.701554     29.701554     59.403108
     -2.427427     32.330453     32.330453     64.660905
     -2.417417     34.444216     34.444216     68.888432
     -2.407407     36.251255     36.251255     72.502510
     -2.397397     38.001841     38.001841     76.003682
     -2.387387     39.773096     39.773096     79.546192
     -2.377377     41.332230     41.332230     82.664461
     -2.367367     42.159320     42.159320     84.318639
     -2.357357     41.639435     41.639435     83.278870
     -2.347347     39.345967     39.345967     78.691933
     -2.337337     35.281044     35.281044     70.562089
     -2.327327     29.953885     29.953885     59.907769
     -2.317317     24.260227     24.260227     48.520454
     -2.307307     19.225745     19.225745     38.451491
     -2.297297     15.731870     15.731870     31.463740
     -2.287287     14.327040     14.327040     28.654080
     -2.277277     15.164119     15.164119     30.328239
     -2.267267     18.043826     18.043826     36.087651
     -2.257257     22.516583     22.516583     45.033166
     -2.247247     27.999335     27.999335     55.998671
     -2.237237     33.878671     33.878671     67.757341
     -2.227227     39.582407     39.582407     79.164814
     -2.217217     44.610698     44.610698     89.221396
     -2.207207     48.533243     48.533243     97.066486
     -2.197197     50.979814     50.979814    101.959627
     -2.187187     51.660610     51.660610    103.321221
     -2.177177     50.433986     50.433986    100.867972
     -2.167167     47.395420     47.395420     94.790841
     -2.157157     42.923817     42.923817     85.847634
     -2.147147     37.625803     37.625803     75.251605
     -2.137137     32.174159     32.174159     64.348319
     -2.127127     27.108070     27.108070     54.216139
     -2.117117     22.696177     22.696177     45.392354
     -2.107107     18.929805     18.929805     37.859610
     -2.097097     15.635677     15.635677     31.271354
     -2.087087     12.631070     12.631070     25.262140
     -2.077077      9.833329      9.833329     19.666658
     -2.067067      7.279458      7.279458     14.558916
     -2.057057      5.071937      5.071937     10.143874
     -2.047047      3.302371      3.302371      6.604742
     -2.037037      2.000238      2.000238      4.000475
     -2.027027      1.124726      1.124726      2.249452
     -2.017017      0.589250      0.589250      1.178499
     -2.007007      0.296623      0.296623      0.593246
     -1.996997      0.167802      0.167802      0.335604
     -1.986987      0.158429      0.158429      0.316858
     -1.976977      0.265732      0.265732      0.531463
     -1.966967      0.529873      0.529873      1.059745
     -1.956957      1.030284      1.030284      2.060569
     -1.946947      1.873081      1.873081      3.746161
     -1.936937      3.164705      3.164705      6.329410
     -1.926927      4.972092      4.972092      9.944183
     -1.916917      7.279348      7.279348     14.558697
     -1.906907      9.959307      9.959307     19.918613
     -1.896897     12.777717     12.777717     25.555434
     -1.886887     15.435640     15.435640     30.871279
     -1.876877     17.637896     17.637896     35.275791
     -1.866867     19.163805     19.163805     38.327611
     -1.856857     19.917623     19.917623     39.835245
     -1.846847     19.946064     19.946064     39.892128
     -1.836837     19.419584     19.419584     38.839169
     -1.826827     18.579094     18.579094     37.158188
     -1.816817     17.656718     17.656718     35.313436
     -1.806807     16.793037     16.793037     33.586074
     -1.796797     15.986382     15.986382     31.972764
     -1.786787     15.105426     15.105426     30.210852
     -1.776777     13.967153     13.967153     27.934305
     -1.766767     12.443570     12.443570     24.887141
     -1.756757     10.540820     10.540820     21.081640
     -1.746747      8.410519      8.410519     16.821039
     -1.736737      6.294560      6.294560     12.589119
     -1.726727      4.441521      4.441521      8.883042
     -1.716717      3.041330      3.041330      6.082660
     -1.706707      2.203683      2.203683      4.407366
     -1.696697      1.973724      1.973724      3.947448
     -1.686687      2.357146      2.357146      4.714291
     -1.676677      3.327033      3.327033      6.654065
     -1.666667      4.803102      4.803102      9.606205
     -1.656657      6.618494      6.618494     13.236987
     -1.646647      8.505553      8.505553     17.011107
     -1.636637     10.129301     10.129301     20.258601
     -1.626627     11.174047     11.174047     22.348094
