# EIG2DOS: Utility for SIESTA to obtain the electronic density of states
#  E. Artacho, Apr 1999, A. Garcia, Apr 2012
#  Nick R. Papior, Feb 2017
# ------------------------------------------
# Eigenvalues calculated from a non-polarized calculation
# Eigenvalues read from siesta.EIG
# Kpoint weights read from siesta.KP
# Using smearing parameter:   0.0500
# Using 1000 points in the energy range
# Selected bands: 1 to: 2981
# Emin, Emax in file for selected band(s):    -27.0296197    218.3119710
# Nbands, Nspin, Nk   =   2981     1     1
# E_F                 =    -4.2970 eV --> (shifted to ZERO)
# Broadening          =     0.0500 eV
#
#        E            N(up)  (=)   N(down)         Ntot
     -5.000000     45.601823     45.601823     91.203646
     -4.989990     48.471518     48.471518     96.943036
     -4.979980     49.913730     49.913730     99.827460
     -4.969970     49.869882     49.869882     99.739765
     -4.959960     48.447664     48.447664     96.895329
     -4.949950     45.886687     45.886687     91.773374
     -4.939940     42.524971     42.524971     85.049942
     -4.929930     38.780671     38.780671     77.561342
     -4.919920     35.149464     35.149464     70.298928
     -4.909910     32.201988     32.201988     64.403977
     -4.899900     30.552126     30.552126     61.104252
     -4.889890     30.763870     30.763870     61.527739
     -4.879880     33.185218     33.185218     66.370437
     -4.869870     37.746671     37.746671     75.493341
     -4.859860     43.818142     43.818142     87.636285
     -4.849850     50.236654     50.236654    100.473308
     -4.839840     55.561937     55.561937    111.123874
     -4.829830     58.500601     58.500601    117.001201
     -4.819820     58.328858     58.328858    116.657717
     -4.809810     55.118886     55.118886    110.237772
     -4.799800     49.663961     49.663961     99.327923
     -4.789790     43.151354     43.151354     86.302709
     -4.779780     36.751441     36.751441     73.502881
     -4.769770     31.305072     31.305072     62.610143
     -4.759760     27.205161     27.205161     54.410323
     -4.749750     24.453654     24.453654     48.907309
     -4.739740     22.805566     22.805566     45.611131
     -4.729730     21.912004     21.912004     43.824008
     -4.719720     21.416645     21.416645     42.833290
     -4.709710     21.003494     21.003494     42.006989
     -4.699700     20.416421     20.416421     40.832841
     -4.689690     19.474272     19.474272     38.948543
     -4.679680     18.097591     18.097591     36.195181
     -4.669670     16.348414     16.348414     32.696828
     -4.659660     14.467794     14.467794     28.935589
     -4.649650     12.884828     12.884828     25.769655
     -4.639640     12.173167     12.173167     24.346335
     -4.629630     12.945193     12.945193     25.890386
     -4.619620     15.693406     15.693406     31.386813
     -4.609610     20.609182     20.609182     41.218363
     -4.599600     27.430351     27.430351     54.860702
     -4.589590     35.385149     35.385149     70.770298
     -4.579580     43.293296     43.293296     86.586592
     -4.569570     49.838774     49.838774     99.677548
     -4.559560     53.950073     53.950073    107.900146
     -4.549550     55.151485     55.151485    110.302970
     -4.539540     53.733426     53.733426    107.466851
     -4.529530     50.653656     50.653656    101.307312
     -4.519520     47.198122     47.198122     94.396244
     -4.509510     44.538048     44.538048     89.076096
     -4.499499     43.361423     43.361423     86.722845
     -4.489489     43.714063     43.714063     87.428126
     -4.479479     45.086126     45.086126     90.172251
     -4.469469     46.677287     46.677287     93.354574
     -4.459459     47.714191     47.714191     95.428382
     -4.449449     47.695643     47.695643     95.391287
     -4.439439     46.492427     46.492427     92.984854
     -4.429429     44.299644     44.299644     88.599287
     -4.419419     41.498024     41.498024     82.996048
     -4.409409     38.504236     38.504236     77.008472
     -4.399399     35.672740     35.672740     71.345481
     -4.389389     33.266532     33.266532     66.533065
     -4.379379     31.469280     31.469280     62.938560
     -4.369369     30.394903     30.394903     60.789807
     -4.359359     30.071078     30.071078     60.142157
     -4.349349     30.411604     30.411604     60.823208
     -4.339339     31.216092     31.216092     62.432184
     -4.329329     32.223586     32.223586     64.447172
     -4.319319     33.208580     33.208580     66.417160
     -4.309309     34.074018     34.074018     68.148035
     -4.299299     34.891656     34.891656     69.783312
     -4.289289     35.865877     35.865877     71.731754
     -4.279279     37.232013     37.232013     74.464027
     -4.269269     39.124652     39.124652     78.249305
     -4.259259     41.461472     41.461472     82.922944
     -4.249249     43.889874     43.889874     87.779747
     -4.239239     45.835895     45.835895     91.671790
     -4.229229     46.666165     46.666165     93.332331
     -4.219219     45.920508     45.920508     91.841015
     -4.209209     43.518809     43.518809     87.037618
     -4.199199     39.833738     39.833738     79.667476
     -4.189189     35.575984     35.575984     71.151969
     -4.179179     31.537451     31.537451     63.074901
     -4.169169     28.317572     28.317572     56.635144
     -4.159159     26.164477     26.164477     52.328953
     -4.149149     24.993414     24.993414     49.986828
     -4.139139     24.547777     24.547777     49.095555
     -4.129129     24.601331     24.601331     49.202661
     -4.119119     25.092589     25.092589     50.185179
     -4.109109     26.125552     26.125552     52.251104
     -4.099099     27.839289     27.839289     55.678578
     -4.089089     30.215890     30.215890     60.431780
     -4.079079     32.936648     32.936648     65.873297
     -4.069069     35.386204     35.386204     70.772409
     -4.059059     36.835377     36.835377     73.670754
     -4.049049     36.732499     36.732499     73.464998
     -4.039039     34.959170     34.959170     69.918340
     -4.029029     31.913279     31.913279     63.826557
     -4.019019     28.374047     28.374047     56.748094
     -4.009009     25.224182     25.224182     50.448364
     -3.998999     23.174558     23.174558     46.349116
     -3.988989     22.614684     22.614684     45.229369
     -3.978979     23.620980     23.620980     47.241959
     -3.968969     26.062535     26.062535     52.125069
     -3.958959     29.710820     29.710820     59.421640
     -3.948949     34.295846     34.295846     68.591692
     -3.938939     39.516096     39.516096     79.032192
     -3.928929     45.048053     45.048053     90.096107
     -3.918919     50.587219     50.587219    101.174438
     -3.908909     55.905567     55.905567    111.811133
     -3.898899     60.875185     60.875185    121.750370
     -3.888889     65.417032     65.417032    130.834064
     -3.878879     69.383881     69.383881    138.767761
     -3.868869     72.443059     72.443059    144.886118
     -3.858859     74.046899     74.046899    148.093797
     -3.848849     73.546341     73.546341    147.092682
     -3.838839     70.428263     70.428263    140.856527
     -3.828829     64.580064     64.580064    129.160127
     -3.818819     56.452681     56.452681    112.905363
     -3.808809     47.029865     47.029865     94.059730
     -3.798799     37.600031     37.600031     75.200061
     -3.788789     29.417589     29.417589     58.835177
     -3.778779     23.383357     23.383357     46.766715
     -3.768769     19.852045     19.852045     39.704089
     -3.758759     18.611627     18.611627     37.223253
     -3.748749     19.014710     19.014710     38.029421
     -3.738739     20.203364     20.203364     40.406728
     -3.728729     21.359841     21.359841     42.719682
     -3.718719     21.923884     21.923884     43.847768
     -3.708709     21.730768     21.730768     43.461536
     -3.698699     21.039165     21.039165     42.078331
     -3.688689     20.437413     20.437413     40.874826
     -3.678679     20.644056     20.644056     41.288112
     -3.668669     22.251785     22.251785     44.503571
     -3.658659     25.492724     25.492724     50.985449
     -3.648649     30.110919     30.110919     60.221838
     -3.638639     35.400226     35.400226     70.800453
     -3.628629     40.403807     40.403807     80.807614
     -3.618619     44.200372     44.200372     88.400744
     -3.608609     46.162230     46.162230     92.324460
     -3.598599     46.088609     46.088609     92.177218
     -3.588589     44.184951     44.184951     88.369901
     -3.578579     40.930929     40.930929     81.861859
     -3.568569     36.912562     36.912562     73.825124
     -3.558559     32.677583     32.677583     65.355165
     -3.548549     28.636788     28.636788     57.273575
     -3.538539     25.012089     25.012089     50.024178
     -3.528529     21.832657     21.832657     43.665315
     -3.518519     18.984209     18.984209     37.968419
     -3.508509     16.303530     16.303530     32.607059
     -3.498498     13.685388     13.685388     27.370776
     -3.488488     11.155524     11.155524     22.311047
     -3.478478      8.877635      8.877635     17.755270
     -3.468468      7.095842      7.095842     14.191685
     -3.458458      6.042845      6.042845     12.085689
     -3.448448      5.851352      5.851352     11.702704
     -3.438438      6.496084      6.496084     12.992169
     -3.428428      7.780470      7.780470     15.560940
     -3.418418      9.374372      9.374372     18.748743
     -3.408408     10.901391     10.901391     21.802782
     -3.398398     12.058308     12.058308     24.116617
     -3.388388     12.728123     12.728123     25.456247
     -3.378378     13.038339     13.038339     26.076678
     -3.368368     13.332242     13.332242     26.664484
     -3.358358     14.059353     14.059353     28.118707
     -3.348348     15.628508     15.628508     31.257016
     -3.338338     18.278046     18.278046     36.556093
     -3.328328     21.997243     21.997243     43.994486
     -3.318318     26.501876     26.501876     53.003752
     -3.308308     31.252718     31.252718     62.505436
     -3.298298     35.517067     35.517067     71.034135
     -3.288288     38.489016     38.489016     76.978032
     -3.278278     39.472994     39.472994     78.945988
     -3.268268     38.091098     38.091098     76.182195
     -3.258258     34.430424     34.430424     68.860847
     -3.248248     29.047913     29.047913     58.095826
     -3.238238     22.811380     22.811380     45.622760
     -3.228228     16.640321     16.640321     33.280643
     -3.218218     11.260002     11.260002     22.520004
     -3.208208      7.065010      7.065010     14.130019
     -3.198198      4.122105      4.122105      8.244210
     -3.188188      2.275039      2.275039      4.550078
     -3.178178      1.283939      1.283939      2.567879
     -3.168168      0.943045      0.943045      1.886089
     -3.158158      1.150844      1.150844      2.301688
     -3.148148      1.931263      1.931263      3.862525
     -3.138138      3.413071      3.413071      6.826143
     -3.128128      5.773039      5.773039     11.546078
     -3.118118      9.148848      9.148848     18.297696
     -3.108108     13.538348     13.538348     27.076696
     -3.098098     18.718902     18.718902     37.437803
     -3.088088     24.230456     24.230456     48.460912
     -3.078078     29.452782     29.452782     58.905564
     -3.068068     33.766877     33.766877     67.533753
     -3.058058     36.739617     36.739617     73.479234
     -3.048048     38.242615     38.242615     76.485230
     -3.038038     38.439197     38.439197     76.878393
     -3.028028     37.645129     37.645129     75.290258
     -3.018018     36.147874     36.147874     72.295748
     -3.008008     34.099505     34.099505     68.199010
     -2.997998     31.551973     31.551973     63.103947
     -2.987988     28.607265     28.607265     57.214530
     -2.977978     25.575185     25.575185     51.150371
     -2.967968     23.022771     23.022771     46.045542
     -2.957958     21.664033     21.664033     43.328066
     -2.947948     22.130043     22.130043     44.260085
     -2.937938     24.721045     24.721045     49.442089
     -2.927928     29.247556     29.247556     58.495111
     -2.917918     35.026009     35.026009     70.052017
     -2.907908     41.033826     41.033826     82.067652
     -2.897898     46.173359     46.173359     92.346718
     -2.887888     49.559127     49.559127     99.118254
     -2.877878     50.736447     50.736447    101.472895
     -2.867868     49.763470     49.763470     99.526941
     -2.857858     47.135538     47.135538     94.271077
     -2.847848     43.584821     43.584821     87.169643
     -2.837838     39.830330     39.830330     79.660660
     -2.827828     36.368559     36.368559     72.737119
     -2.817818     33.376888     33.376888     66.753777
     -2.807808     30.755454     30.755454     61.510907
     -2.797798     28.275315     28.275315     56.550631
     -2.787788     25.755829     25.755829     51.511659
     -2.777778     23.184445     23.184445     46.368889
     -2.767768     20.725071     20.725071     41.450142
     -2.757758     18.622008     18.622008     37.244016
     -2.747748     17.063421     17.063421     34.126842
     -2.737738     16.089033     16.089033     32.178067
     -2.727728     15.597397     15.597397     31.194794
     -2.717718     15.444489     15.444489     30.888977
     -2.707708     15.565736     15.565736     31.131472
     -2.697698     16.036276     16.036276     32.072551
     -2.687688     17.022693     17.022693     34.045386
     -2.677678     18.651252     18.651252     37.302504
     -2.667668     20.876631     20.876631     41.753262
     -2.657658     23.441150     23.441150     46.882301
     -2.647648     25.960178     25.960178     51.920356
     -2.637638     28.088177     28.088177     56.176355
     -2.627628     29.665936     29.665936     59.331872
     -2.617618     30.761191     30.761191     61.522381
     -2.607608     31.585438     31.585438     63.170875
     -2.597598     32.348961     32.348961     64.697923
     -2.587588     33.146757     33.146757     66.293514
     -2.577578     33.931012     33.931012     67.862023
     -2.567568     34.556344     34.556344     69.112688
     -2.557558     34.841141     34.841141     69.682283
     -2.547548     34.603176     34.603176     69.206353
     -2.537538     33.677030     33.677030     67.354061
     -2.527528     31.951478     31.951478     63.902956
     -2.517518     29.445025     29.445025     58.890050
     -2.507508     26.386391     26.386391     52.772782
     -2.497497     23.234051     23.234051     46.468103
     -2.487487     20.589060     20.589060     41.178120
     -2.477477     19.017023     19.017023     38.034047
     -2.467467     18.854397     18.854397     37.708793
     -2.457457     20.091585     20.091585     40.183169
     -2.447447     22.391414     22.391414     44.782829
     -2.437437     25.237099     25.237099     50.474198
     -2.427427     28.142159     28.142159     56.284317
     -2.417417     30.824781     30.824781     61.649563
     -2.407407     33.264781     33.264781     66.529561
     -2.397397     35.616728     35.616728     71.233456
     -2.387387     38.023282     38.023282     76.046563
     -2.377377     40.424573     40.424573     80.849146
     -2.367367     42.466479     42.466479     84.932958
     -2.357357     43.567173     43.567173     87.134346
     -2.347347     43.126082     43.126082     86.252165
     -2.337337     40.787512     40.787512     81.575025
     -2.327327     36.639347     36.639347     73.278694
     -2.317317     31.254212     31.254212     62.508423
     -2.307307     25.553861     25.553861     51.107722
     -2.297297     20.557283     20.557283     41.114565
     -2.287287     17.115881     17.115881     34.231763
     -2.277277     15.727518     15.727518     31.455035
     -2.267267     16.472327     16.472327     32.944654
     -2.257257     19.061243     19.061243     38.122486
     -2.247247     22.956977     22.956977     45.913954
     -2.237237     27.519129     27.519129     55.038258
     -2.227227     32.130578     32.130578     64.261156
     -2.217217     36.275163     36.275163     72.550327
     -2.207207     39.557665     39.557665     79.115330
     -2.197197     41.684292     41.684292     83.368584
     -2.187187     42.442753     42.442753     84.885507
     -2.177177     41.718177     41.718177     83.436355
     -2.167167     39.549168     39.549168     79.098335
     -2.157157     36.185006     36.185006     72.370013
     -2.147147     32.083824     32.083824     64.167647
     -2.137137     27.815678     27.815678     55.631357
     -2.127127     23.894207     23.894207     47.788413
     -2.117117     20.615120     20.615120     41.230240
     -2.107107     17.987242     17.987242     35.974483
     -2.097097     15.792475     15.792475     31.584950
     -2.087087     13.737470     13.737470     27.474939
     -2.077077     11.611540     11.611540     23.223081
     -2.067067      9.372260      9.372260     18.744520
     -2.057057      7.131544      7.131544     14.263088
     -2.047047      5.072471      5.072471     10.144942
     -2.037037      3.354933      3.354933      6.709865
     -2.027027      2.057291      2.057291      4.114583
     -2.017017      1.168768      1.168768      2.337535
     -2.007007      0.618389      0.618389      1.236777
     -1.996997      0.315634      0.315634      0.631269
     -1.986987      0.183990      0.183990      0.367980
     -1.976977      0.180961      0.180961      0.361922
     -1.966967      0.306969      0.306969      0.613938
     -1.956957      0.607270      0.607270      1.214541
     -1.946947      1.167414      1.167414      2.334828
     -1.936937      2.098421      2.098421      4.196842
     -1.926927      3.507346      3.507346      7.014692
     -1.916917      5.454561      5.454561     10.909123
     -1.906907      7.909022      7.909022     15.818044
     -1.896897     10.720602     10.720602     21.441204
     -1.886887     13.627228     13.627228     27.254456
     -1.876877     16.302004     16.302004     32.604008
     -1.866867     18.428193     18.428193     36.856385
     -1.856857     19.778118     19.778118     39.556235
     -1.846847     20.271314     20.271314     40.542629
     -1.836837     19.994469     19.994469     39.988939
     -1.826827     19.174706     19.174706     38.349411
     -1.816817     18.107762     18.107762     36.215523
     -1.806807     17.057476     17.057476     34.114952
     -1.796797     16.161240     16.161240     32.322480
     -1.786787     15.384917     15.384917     30.769834
     -1.776777     14.555458     14.555458     29.110915
     -1.766767     13.461023     13.461023     26.922046
     -1.756757     11.969583     11.969583     23.939165
     -1.746747     10.105922     10.105922     20.211843
     -1.736737      8.053408      8.053408     16.106816
     -1.726727      6.092146      6.092146     12.184293
     -1.716717      4.517337      4.517337      9.034674
     -1.706707      3.580828      3.580828      7.161655
     -1.696697      3.470387      3.470387      6.940773
     -1.686687      4.308641      4.308641      8.617282
     -1.676677      6.140298      6.140298     12.280595
     -1.666667      8.890497      8.890497     17.780994
     -1.656657     12.309164     12.309164     24.618329
     -1.646647     15.944289     15.944289     31.888579
     -1.636637     19.189537     19.189537     38.379075
     -1.626627     21.420459     21.420459     42.840918
