# EIG2DOS: Utility for SIESTA to obtain the electronic density of states
#  E. Artacho, Apr 1999, A. Garcia, Apr 2012
#  Nick R. Papior, Feb 2017
# ------------------------------------------
# Eigenvalues calculated from a non-polarized calculation
# Eigenvalues read from siesta.EIG
# Kpoint weights read from siesta.KP
# Using smearing parameter:   0.0500
# Using 1000 points in the energy range
# Selected bands: 1 to: 2981
# Emin, Emax in file for selected band(s):    -27.2196119    218.3542600
# Nbands, Nspin, Nk   =   2981     1     1
# E_F                 =    -4.2483 eV --> (shifted to ZERO)
# Broadening          =     0.0500 eV
#
#        E            N(up)  (=)   N(down)         Ntot
     -5.000000     33.455470     33.455470     66.910940
     -4.989990     37.510690     37.510690     75.021380
     -4.979980     41.077817     41.077817     82.155633
     -4.969970     43.589915     43.589915     87.179830
     -4.959960     44.612456     44.612456     89.224912
     -4.949950     43.977566     43.977566     87.955131
     -4.939940     41.846432     41.846432     83.692865
     -4.929930     38.685829     38.685829     77.371658
     -4.919920     35.183000     35.183000     70.366000
     -4.909910     32.135184     32.135184     64.270367
     -4.899900     30.331791     30.331791     60.663581
     -4.889890     30.421013     30.421013     60.842026
     -4.879880     32.750312     32.750312     65.500625
     -4.869870     37.205001     37.205001     74.410002
     -4.859860     43.117456     43.117456     86.234913
     -4.849850     49.334478     49.334478     98.668956
     -4.839840     54.479826     54.479826    108.959652
     -4.829830     57.348803     57.348803    114.697606
     -4.819820     57.282790     57.282790    114.565580
     -4.809810     54.358825     54.358825    108.717649
     -4.799800     49.311339     49.311339     98.622677
     -4.789790     43.234020     43.234020     86.468040
     -4.779780     37.209018     37.209018     74.418036
     -4.769770     32.021607     32.021607     64.043214
     -4.759760     28.046387     28.046387     56.092773
     -4.749750     25.293311     25.293311     50.586623
     -4.739740     23.538942     23.538942     47.077883
     -4.729730     22.462863     22.462863     44.925727
     -4.719720     21.742474     21.742474     43.484949
     -4.709710     21.098996     21.098996     42.197992
     -4.699700     20.313706     20.313706     40.627412
     -4.689690     19.241764     19.241764     38.483528
     -4.679680     17.843666     17.843666     35.687333
     -4.669670     16.234887     16.234887     32.469773
     -4.659660     14.731175     14.731175     29.462350
     -4.649650     13.853117     13.853117     27.706234
     -4.639640     14.258189     14.258189     28.516377
     -4.629630     16.590705     16.590705     33.181409
     -4.619620     21.271914     21.271914     42.543827
     -4.609610     28.285769     28.285769     56.571538
     -4.599600     37.041142     37.041142     74.082284
     -4.589590     46.392818     46.392818     92.785635
     -4.579580     54.864562     54.864562    109.729125
     -4.569570     61.038026     61.038026    122.076051
     -4.559560     63.983116     63.983116    127.966233
     -4.549550     63.560824     63.560824    127.121649
     -4.539540     60.464903     60.464903    120.929805
     -4.529530     55.974925     55.974925    111.949851
     -4.519520     51.516570     51.516570    103.033139
     -4.509510     48.202585     48.202585     96.405170
     -4.499499     46.524966     46.524966     93.049932
     -4.489489     46.294176     46.294176     92.588352
     -4.479479     46.815580     46.815580     93.631160
     -4.469469     47.204971     47.204971     94.409943
     -4.459459     46.708412     46.708412     93.416824
     -4.449449     44.914486     44.914486     89.828972
     -4.439439     41.811360     41.811360     83.622721
     -4.429429     37.712519     37.712519     75.425038
     -4.419419     33.119884     33.119884     66.239768
     -4.409409     28.593960     28.593960     57.187920
     -4.399399     24.665380     24.665380     49.330761
     -4.389389     21.779305     21.779305     43.558610
     -4.379379     20.244563     20.244563     40.489126
     -4.369369     20.174858     20.174858     40.349716
     -4.359359     21.443025     21.443025     42.886050
     -4.349349     23.689182     23.689182     47.378363
     -4.339339     26.408560     26.408560     52.817121
     -4.329329     29.102177     29.102177     58.204353
     -4.319319     31.433137     31.433137     62.866275
     -4.309309     33.321509     33.321509     66.643019
     -4.299299     34.936789     34.936789     69.873577
     -4.289289     36.590819     36.590819     73.181638
     -4.279279     38.571096     38.571096     77.142191
     -4.269269     40.972816     40.972816     81.945631
     -4.259259     43.590239     43.590239     87.180477
     -4.249249     45.917654     45.917654     91.835308
     -4.239239     47.282588     47.282588     94.565176
     -4.229229     47.083837     47.083837     94.167674
     -4.219219     45.047970     45.047970     90.095940
     -4.209209     41.386156     41.386156     82.772313
     -4.199199     36.762648     36.762648     73.525295
     -4.189189     32.074614     32.074614     64.149229
     -4.179179     28.141969     28.141969     56.283937
     -4.169169     25.452670     25.452670     50.905340
     -4.159159     24.074168     24.074168     48.148336
     -4.149149     23.750061     23.750061     47.500122
     -4.139139     24.110116     24.110116     48.220232
     -4.129129     24.878603     24.878603     49.757205
     -4.119119     25.981425     25.981425     51.962850
     -4.109109     27.508428     27.508428     55.016857
     -4.099099     29.556677     29.556677     59.113354
     -4.089089     32.039699     32.039699     64.079399
     -4.079079     34.573849     34.573849     69.147698
     -4.069069     36.526347     36.526347     73.052694
     -4.059059     37.230184     37.230184     74.460368
     -4.049049     36.274027     36.274027     72.548053
     -4.039039     33.719757     33.719757     67.439514
     -4.029029     30.129023     30.129023     60.258046
     -4.019019     26.381845     26.381845     52.763689
     -4.009009     23.381682     23.381682     46.763364
     -3.998999     21.791949     21.791949     43.583899
     -3.988989     21.911913     21.911913     43.823825
     -3.978979     23.708316     23.708316     47.416632
     -3.968969     26.937364     26.937364     53.874728
     -3.958959     31.268241     31.268241     62.536483
     -3.948949     36.355939     36.355939     72.711878
     -3.938939     41.868222     41.868222     83.736445
     -3.928929     47.502344     47.502344     95.004689
     -3.918919     53.013250     53.013250    106.026501
     -3.908909     58.237816     58.237816    116.475631
     -3.898899     63.078425     63.078425    126.156849
     -3.888889     67.427323     67.427323    134.854647
     -3.878879     71.059383     71.059383    142.118767
     -3.868869     73.560005     73.560005    147.120010
     -3.858859     74.355188     74.355188    148.710376
     -3.848849     72.865945     72.865945    145.731890
     -3.838839     68.741604     68.741604    137.483207
     -3.828829     62.073605     62.073605    124.147211
     -3.818819     53.485213     53.485213    106.970425
     -3.808809     44.040464     44.040464     88.080929
     -3.798799     34.994576     34.994576     69.989153
     -3.788789     27.476082     27.476082     54.952165
     -3.778779     22.214086     22.214086     44.428171
     -3.768769     19.396004     19.396004     38.792009
     -3.758759     18.684498     18.684498     37.368997
     -3.748749     19.368467     19.368467     38.736934
     -3.738739     20.591813     20.591813     41.183626
     -3.728729     21.596239     21.596239     43.192477
     -3.718719     21.921230     21.921230     43.842459
     -3.708709     21.517112     21.517112     43.034224
     -3.698699     20.743454     20.743454     41.486907
     -3.688689     20.247239     20.247239     40.494477
     -3.678679     20.744613     20.744613     41.489226
     -3.668669     22.762757     22.762757     45.525514
     -3.658659     26.423308     26.423308     52.846615
     -3.648649     31.349341     31.349341     62.698683
     -3.638639     36.742430     36.742430     73.484860
     -3.628629     41.610499     41.610499     83.220999
     -3.618619     45.060209     45.060209     90.120419
     -3.608609     46.538434     46.538434     93.076867
     -3.598599     45.937061     45.937061     91.874121
     -3.588589     43.546328     43.546328     87.092656
     -3.578579     39.908189     39.908189     79.816378
     -3.568569     35.644246     35.644246     71.288492
     -3.558559     31.311547     31.311547     62.623094
     -3.548549     27.305382     27.305382     54.610764
     -3.538539     23.811442     23.811442     47.622883
     -3.528529     20.811694     20.811694     41.623387
     -3.518519     18.147987     18.147987     36.295974
     -3.508509     15.629455     15.629455     31.258910
     -3.498498     13.144327     13.144327     26.288653
     -3.488488     10.727994     10.727994     21.455989
     -3.478478      8.559255      8.559255     17.118509
     -3.468468      6.892545      6.892545     13.785089
     -3.458458      5.960702      5.960702     11.921404
     -3.448448      5.886496      5.886496     11.772992
     -3.438438      6.628664      6.628664     13.257329
     -3.428428      7.974918      7.974918     15.949836
     -3.418418      9.586860      9.586860     19.173719
     -3.408408     11.093440     11.093440     22.186879
     -3.398398     12.212613     12.212613     24.425226
     -3.388388     12.860328     12.860328     25.720657
     -3.378378     13.198947     13.198947     26.397894
     -3.368368     13.596765     13.596765     27.193531
     -3.358358     14.509902     14.509902     29.019805
     -3.348348     16.332744     16.332744     32.665487
     -3.338338     19.270283     19.270283     38.540565
     -3.328328     23.263998     23.263998     46.527995
     -3.318318     27.974830     27.974830     55.949660
     -3.308308     32.817055     32.817055     65.634110
     -3.298298     37.047015     37.047015     74.094031
     -3.288288     39.915925     39.915925     79.831849
     -3.278278     40.870993     40.870993     81.741987
     -3.268268     39.740831     39.740831     79.481662
     -3.258258     36.811950     36.811950     73.623899
     -3.248248     32.734678     32.734678     65.469356
     -3.238238     28.284380     28.284380     56.568760
     -3.228228     24.090976     24.090976     48.181952
     -3.218218     20.471175     20.471175     40.942350
     -3.208208     17.435390     17.435390     34.870781
     -3.198198     14.839011     14.839011     29.678023
     -3.188188     12.575028     12.575028     25.150055
     -3.178178     10.702647     10.702647     21.405294
     -3.168168      9.461840      9.461840     18.923680
     -3.158158      9.190252      9.190252     18.380505
     -3.148148     10.196424     10.196424     20.392848
     -3.138138     12.642584     12.642584     25.285167
     -3.128128     16.468627     16.468627     32.937254
     -3.118118     21.367759     21.367759     42.735517
     -3.108108     26.813295     26.813295     53.626590
     -3.098098     32.132336     32.132336     64.264673
     -3.088088     36.618257     36.618257     73.236515
     -3.078078     39.665715     39.665715     79.331430
     -3.068068     40.899476     40.899476     81.798952
     -3.058058     40.257901     40.257901     80.515802
     -3.048048     37.994614     37.994614     75.989227
     -3.038038     34.586726     34.586726     69.173451
     -3.028028     30.580069     30.580069     61.160137
     -3.018018     26.437899     26.437899     52.875799
     -3.008008     22.461788     22.461788     44.923576
     -2.997998     18.814051     18.814051     37.628102
     -2.987988     15.613263     15.613263     31.226526
     -2.977978     13.036130     13.036130     26.072260
     -2.967968     11.362832     11.362832     22.725664
     -2.957958     10.939921     10.939921     21.879841
     -2.947948     12.076842     12.076842     24.153684
     -2.937938     14.917110     14.917110     29.834221
     -2.927928     19.330523     19.330523     38.661046
     -2.917918     24.867007     24.867007     49.734013
     -2.907908     30.800184     30.800184     61.600368
     -2.897898     36.266081     36.266081     72.532161
     -2.887888     40.468121     40.468121     80.936242
     -2.877878     42.884613     42.884613     85.769226
     -2.867868     43.400087     43.400087     86.800173
     -2.857858     42.302873     42.302873     84.605745
     -2.847848     40.144927     40.144927     80.289854
     -2.837838     37.521754     37.521754     75.043509
     -2.827828     34.867954     34.867954     69.735908
     -2.817818     32.355532     32.355532     64.711065
     -2.807808     29.930100     29.930100     59.860200
     -2.797798     27.450713     27.450713     54.901427
     -2.787788     24.849099     24.849099     49.698198
     -2.777778     22.220137     22.220137     44.440273
     -2.767768     19.799482     19.799482     39.598964
     -2.757758     17.851167     17.851167     35.702334
     -2.747748     16.539673     16.539673     33.079346
     -2.737738     15.867030     15.867030     31.734059
     -2.727728     15.711800     15.711800     31.423600
     -2.717718     15.939479     15.939479     31.878959
     -2.707708     16.505442     16.505442     33.010883
     -2.697698     17.475234     17.475234     34.950469
     -2.687688     18.943255     18.943255     37.886509
     -2.677678     20.904032     20.904032     41.808065
     -2.667668     23.169999     23.169999     46.339998
     -2.657658     25.404825     25.404825     50.809650
     -2.647648     27.265086     27.265086     54.530172
     -2.637638     28.566464     28.566464     57.132928
     -2.627628     29.369014     29.369014     58.738029
     -2.617618     29.927022     29.927022     59.854044
     -2.607608     30.537184     30.537184     61.074367
     -2.597598     31.380514     31.380514     62.761027
     -2.587588     32.445492     32.445492     64.890985
     -2.577578     33.554248     33.554248     67.108495
     -2.567568     34.445783     34.445783     68.891566
     -2.557558     34.852299     34.852299     69.704598
     -2.547548     34.541464     34.541464     69.082929
     -2.537538     33.346305     33.346305     66.692610
     -2.527528     31.216605     31.216605     62.433209
     -2.517518     28.291406     28.291406     56.582811
     -2.507508     24.946665     24.946665     49.893329
     -2.497497     21.760982     21.760982     43.521964
     -2.487487     19.380178     19.380178     38.760357
     -2.477477     18.322178     18.322178     36.644356
     -2.467467     18.805096     18.805096     37.610191
     -2.457457     20.678050     20.678050     41.356099
     -2.447447     23.489636     23.489636     46.979271
     -2.437437     26.667076     26.667076     53.334153
     -2.427427     29.728480     29.728480     59.456960
     -2.417417     32.433885     32.433885     64.867769
     -2.407407     34.806908     34.806908     69.613817
     -2.397397     37.018500     37.018500     74.037000
     -2.387387     39.191193     39.191193     78.382387
     -2.377377     41.224184     41.224184     82.448367
     -2.367367     42.734586     42.734586     85.469172
     -2.357357     43.157953     43.157953     86.315906
     -2.347347     41.973934     41.973934     83.947868
     -2.337337     38.957722     38.957722     77.915444
     -2.327327     34.339656     34.339656     68.679313
     -2.317317     28.796863     28.796863     57.593727
     -2.307307     23.280958     23.280958     46.561915
     -2.297297     18.759300     18.759300     37.518600
     -2.287287     15.974228     15.974228     31.948456
     -2.277277     15.297811     15.297811     30.595621
     -2.267267     16.705195     16.705195     33.410390
     -2.257257     19.842891     19.842891     39.685782
     -2.247247     24.147889     24.147889     48.295778
     -2.237237     28.975413     28.975413     57.950827
     -2.227227     33.704501     33.704501     67.409002
     -2.217217     37.804200     37.804200     75.608400
     -2.207207     40.859194     40.859194     81.718388
     -2.197197     42.571146     42.571146     85.142292
     -2.187187     42.762682     42.762682     85.525363
     -2.177177     41.403628     41.403628     82.807256
     -2.167167     38.652364     38.652364     77.304729
     -2.157157     34.875277     34.875277     69.750553
     -2.147147     30.600387     30.600387     61.200774
     -2.137137     26.391860     26.391860     52.783720
     -2.127127     22.685438     22.685438     45.370876
     -2.117117     19.662784     19.662784     39.325568
     -2.107107     17.232489     17.232489     34.464977
     -2.097097     15.128595     15.128595     30.257189
     -2.087087     13.071328     13.071328     26.142655
     -2.077077     10.904122     10.904122     21.808243
     -2.067067      8.644052      8.644052     17.288104
     -2.057057      6.439008      6.439008     12.878017
     -2.047047      4.474557      4.474557      8.949114
     -2.037037      2.888051      2.888051      5.776102
     -2.027027      1.727249      1.727249      3.454498
     -2.017017      0.957216      0.957216      1.914432
     -2.007007      0.495682      0.495682      0.991365
     -1.996997      0.252599      0.252599      0.505198
     -1.986987      0.159049      0.159049      0.318098
     -1.976977      0.182772      0.182772      0.365544
     -1.966967      0.334395      0.334395      0.668790
     -1.956957      0.668247      0.668247      1.336493
     -1.946947      1.277236      1.277236      2.554471
     -1.936937      2.277322      2.277322      4.554645
     -1.926927      3.777720      3.777720      7.555440
     -1.916917      5.839732      5.839732     11.679465
     -1.906907      8.437266      8.437266     16.874532
     -1.896897     11.438415     11.438415     22.876830
     -1.886887     14.623046     14.623046     29.246092
     -1.876877     17.735134     17.735134     35.470267
     -1.866867     20.549394     20.549394     41.098788
     -1.856857     22.922334     22.922334     45.844668
     -1.846847     24.805231     24.805231     49.610463
     -1.836837     26.216099     26.216099     52.432199
     -1.826827     27.187151     27.187151     54.374301
     -1.816817     27.713822     27.713822     55.427643
     -1.806807     27.729034     27.729034     55.458068
     -1.796797     27.115600     27.115600     54.231201
     -1.786787     25.754684     25.754684     51.509368
     -1.776777     23.592633     23.592633     47.185266
     -1.766767     20.697667     20.697667     41.395335
     -1.756757     17.278499     17.278499     34.556999
     -1.746747     13.652025     13.652025     27.304049
     -1.736737     10.171118     10.171118     20.342236
     -1.726727      7.143301      7.143301     14.286602
     -1.716717      4.774596      4.774596      9.549193
     -1.706707      3.157850      3.157850      6.315699
     -1.696697      2.300414      2.300414      4.600827
     -1.686687      2.166418      2.166418      4.332836
     -1.676677      2.704216      2.704216      5.408432
     -1.666667      3.841507      3.841507      7.683014
     -1.656657      5.452721      5.452721     10.905443
     -1.646647      7.324417      7.324417     14.648834
     -1.636637      9.152814      9.152814     18.305627
     -1.626627     10.595791     10.595791     21.191581
