# EIG2DOS: Utility for SIESTA to obtain the electronic density of states
#  E. Artacho, Apr 1999, A. Garcia, Apr 2012
#  Nick R. Papior, Feb 2017
# ------------------------------------------
# Eigenvalues calculated from a non-polarized calculation
# Eigenvalues read from siesta.EIG
# Kpoint weights read from siesta.KP
# Using smearing parameter:   0.0500
# Using 1000 points in the energy range
# Selected bands: 1 to: 2981
# Emin, Emax in file for selected band(s):    -27.2487389    218.3701160
# Nbands, Nspin, Nk   =   2981     1     1
# E_F                 =    -4.2340 eV --> (shifted to ZERO)
# Broadening          =     0.0500 eV
#
#        E            N(up)  (=)   N(down)         Ntot
     -5.000000     32.452558     32.452558     64.905116
     -4.989990     36.972818     36.972818     73.945636
     -4.979980     41.093917     41.093917     82.187833
     -4.969970     44.152153     44.152153     88.304306
     -4.959960     45.603111     45.603111     91.206221
     -4.949950     45.198999     45.198999     90.397998
     -4.939940     43.076418     43.076418     86.152836
     -4.929930     39.733345     39.733345     79.466689
     -4.919920     35.924475     35.924475     71.848949
     -4.909910     32.523468     32.523468     65.046936
     -4.899900     30.382379     30.382379     60.764759
     -4.889890     30.186991     30.186991     60.373981
     -4.879880     32.298304     32.298304     64.596608
     -4.869870     36.600741     36.600741     73.201483
     -4.859860     42.423505     42.423505     84.847010
     -4.849850     48.615995     48.615995     97.231989
     -4.839840     53.809877     53.809877    107.619754
     -4.829830     56.805212     56.805212    113.610425
     -4.819820     56.934653     56.934653    113.869305
     -4.809810     54.248812     54.248812    108.497625
     -4.799800     49.443921     49.443921     98.887843
     -4.789790     43.576373     43.576373     87.152745
     -4.779780     37.703334     37.703334     75.406667
     -4.769770     32.601252     32.601252     65.202504
     -4.759760     28.648427     28.648427     57.296853
     -4.749750     25.865162     25.865162     51.730324
     -4.739740     24.042168     24.042168     48.084336
     -4.729730     22.878533     22.878533     45.757065
     -4.719720     22.080320     22.080320     44.160640
     -4.709710     21.410006     21.410006     42.820011
     -4.699700     20.704199     20.704199     41.408399
     -4.689690     19.885274     19.885274     39.770548
     -4.679680     18.982729     18.982729     37.965457
     -4.669670     18.159290     18.159290     36.318580
     -4.659660     17.718350     17.718350     35.436699
     -4.649650     18.067716     18.067716     36.135431
     -4.639640     19.632877     19.632877     39.265753
     -4.629630     22.737665     22.737665     45.475330
     -4.619620     27.483921     27.483921     54.967843
     -4.609610     33.660346     33.660346     67.320692
     -4.599600     40.705654     40.705654     81.411309
     -4.589590     47.751710     47.751710     95.503421
     -4.579580     53.769285     53.769285    107.538570
     -4.569570     57.812510     57.812510    115.625020
     -4.559560     59.304575     59.304575    118.609150
     -4.549550     58.256275     58.256275    116.512551
     -4.539540     55.305389     55.305389    110.610779
     -4.529530     51.528919     51.528919    103.057837
     -4.519520     48.084600     48.084600     96.169199
     -4.509510     45.823435     45.823435     91.646871
     -4.499499     45.031089     45.031089     90.062178
     -4.489489     45.394653     45.394653     90.789307
     -4.479479     46.188025     46.188025     92.376050
     -4.469469     46.578268     46.578268     93.156537
     -4.459459     45.918938     45.918938     91.837877
     -4.449449     43.924187     43.924187     87.848374
     -4.439439     40.687360     40.687360     81.374720
     -4.429429     36.580315     36.580315     73.160630
     -4.419419     32.109572     32.109572     64.219144
     -4.409409     27.798059     27.798059     55.596118
     -4.399399     24.119025     24.119025     48.238050
     -4.389389     21.463387     21.463387     42.926774
     -4.379379     20.104580     20.104580     40.209161
     -4.369369     20.145241     20.145241     40.290482
     -4.359359     21.468124     21.468124     42.936248
     -4.349349     23.735794     23.735794     47.471587
     -4.339339     26.468799     26.468799     52.937598
     -4.329329     29.188579     29.188579     58.377158
     -4.319319     31.569755     31.569755     63.139509
     -4.309309     33.534896     33.534896     67.069793
     -4.299299     35.249032     35.249032     70.498065
     -4.289289     37.013828     37.013828     74.027657
     -4.279279     39.099652     39.099652     78.199304
     -4.269269     41.575525     41.575525     83.151049
     -4.259259     44.202129     44.202129     88.404259
     -4.249249     46.441930     46.441930     92.883859
     -4.239239     47.607469     47.607469     95.214937
     -4.229229     47.112733     47.112733     94.225465
     -4.219219     44.732039     44.732039     89.464077
     -4.209209     40.744626     40.744626     81.489253
     -4.199199     35.881443     35.881443     71.762886
     -4.189189     31.084450     31.084450     62.168900
     -4.179179     27.186053     27.186053     54.372106
     -4.169169     24.656408     24.656408     49.312815
     -4.159159     23.525388     23.525388     47.050775
     -4.149149     23.492329     23.492329     46.984659
     -4.139139     24.147053     24.147053     48.294105
     -4.129129     25.184415     25.184415     50.368829
     -4.119119     26.511733     26.511733     53.023467
     -4.109109     28.206177     28.206177     56.412354
     -4.099099     30.351383     30.351383     60.702766
     -4.089089     32.843652     32.843652     65.687304
     -4.079079     35.282781     35.282781     70.565562
     -4.069069     37.030987     37.030987     74.061973
     -4.059059     37.438550     37.438550     74.877100
     -4.049049     36.136507     36.136507     72.273014
     -4.039039     33.245711     33.245711     66.491421
     -4.029029     29.387530     29.387530     58.775061
     -4.019019     25.487306     25.487306     50.974612
     -4.009009     22.471190     22.471190     44.942381
     -3.998999     21.001923     21.001923     42.003846
     -3.988989     21.357912     21.357912     42.715824
     -3.978979     23.468897     23.468897     46.937794
     -3.968969     27.043057     27.043057     54.086115
     -3.958959     31.698803     31.698803     63.397606
     -3.948949     37.049163     37.049163     74.098327
     -3.938939     42.739909     42.739909     85.479817
     -3.928929     48.471096     48.471096     96.942193
     -3.918919     54.019510     54.019510    108.039020
     -3.908909     59.247143     59.247143    118.494287
     -3.898899     64.065708     64.065708    128.131416
     -3.888889     68.349396     68.349396    136.698792
     -3.878879     71.833232     71.833232    143.666465
     -3.868869     74.065293     74.065293    148.130586
     -3.858859     74.468799     74.468799    148.937598
     -3.848849     72.516484     72.516484    145.032967
     -3.838839     67.955471     67.955471    135.910943
     -3.828829     60.984449     60.984449    121.968899
     -3.818819     52.297569     52.297569    104.595137
     -3.808809     42.964368     42.964368     85.928736
     -3.798799     34.182985     34.182985     68.365971
     -3.788789     26.991849     26.991849     53.983698
     -3.778779     22.033837     22.033837     44.067674
     -3.768769     19.439442     19.439442     38.878885
     -3.758759     18.850439     18.850439     37.700878
     -3.748749     19.563695     19.563695     39.127391
     -3.738739     20.748156     20.748156     41.496312
     -3.728729     21.677771     21.677771     43.355541
     -3.718719     21.924946     21.924946     43.849892
     -3.708709     21.468856     21.468856     42.937712
     -3.698699     20.689353     20.689353     41.378705
     -3.688689     20.240949     20.240949     40.481898
     -3.678679     20.832002     20.832002     41.664004
     -3.668669     22.967319     22.967319     45.934638
     -3.658659     26.736493     26.736493     53.472985
     -3.648649     31.729360     31.729360     63.458720
     -3.638639     37.122797     37.122797     74.245595
     -3.628629     41.916304     41.916304     83.832609
     -3.618619     45.227239     45.227239     90.454478
     -3.608609     46.529230     46.529230     93.058460
     -3.598599     45.749198     45.749198     91.498396
     -3.588589     43.210987     43.210987     86.421974
     -3.578579     39.480189     39.480189     78.960379
     -3.568569     35.187088     35.187088     70.374176
     -3.558559     30.882117     30.882117     61.764233
     -3.548549     26.942706     26.942706     53.885412
     -3.538539     23.532204     23.532204     47.064409
     -3.528529     20.612723     20.612723     41.225445
     -3.518519     18.013459     18.013459     36.026919
     -3.508509     15.539321     15.539321     31.078643
     -3.498498     13.080809     13.080809     26.161619
     -3.488488     10.678635     10.678635     21.357270
     -3.478478      8.516841      8.516841     17.033682
     -3.468468      6.853422      6.853422     13.706844
     -3.458458      5.923100      5.923100     11.846200
     -3.448448      5.849837      5.849837     11.699674
     -3.438438      6.593917      6.593917     13.187834
     -3.428428      7.945432      7.945432     15.890864
     -3.418418      9.569095      9.569095     19.138189
     -3.408408     11.097521     11.097521     22.195041
     -3.398398     12.253560     12.253560     24.507121
     -3.388388     12.961742     12.961742     25.923484
     -3.378378     13.401457     13.401457     26.802914
     -3.368368     13.973037     13.973037     27.946074
     -3.358358     15.185581     15.185581     30.371162
     -3.348348     17.507719     17.507719     35.015439
     -3.338338     21.227724     21.227724     42.455448
     -3.328328     26.349197     26.349197     52.698394
     -3.318318     32.527896     32.527896     65.055791
     -3.308308     39.057903     39.057903     78.115805
     -3.298298     44.936354     44.936354     89.872708
     -3.288288     49.041072     49.041072     98.082145
     -3.278278     50.414067     50.414067    100.828134
     -3.268268     48.568309     48.568309     97.136618
     -3.258258     43.682627     43.682627     87.365255
     -3.248248     36.575703     36.575703     73.151407
     -3.238238     28.454234     28.454234     56.908468
     -3.228228     20.547114     20.547114     41.094227
     -3.218218     13.788445     13.788445     27.576890
     -3.208208      8.668606      8.668606     17.337213
     -3.198198      5.273148      5.273148     10.546296
     -3.188188      3.441686      3.441686      6.883372
     -3.178178      2.947295      2.947295      5.894590
     -3.168168      3.619644      3.619644      7.239288
     -3.158158      5.382042      5.382042     10.764084
     -3.148148      8.214013      8.214013     16.428026
     -3.138138     12.073647     12.073647     24.147294
     -3.128128     16.818346     16.818346     33.636692
     -3.118118     22.154668     22.154668     44.309336
     -3.108108     27.634284     27.634284     55.268568
     -3.098098     32.699480     32.699480     65.398960
     -3.088088     36.771155     36.771155     73.542309
     -3.078078     39.363198     39.363198     78.726396
     -3.068068     40.195895     40.195895     80.391790
     -3.058058     39.270195     39.270195     78.540389
     -3.048048     36.866029     36.866029     73.732058
     -3.038038     33.452626     33.452626     66.905251
     -3.028028     29.541776     29.541776     59.083552
     -3.018018     25.550437     25.550437     51.100873
     -3.008008     21.738173     21.738173     43.476346
     -2.997998     18.242595     18.242595     36.485190
     -2.987988     15.178705     15.178705     30.357410
     -2.977978     12.734460     12.734460     25.468921
     -2.967968     11.204002     11.204002     22.408004
     -2.957958     10.939255     10.939255     21.878509
     -2.947948     12.240909     12.240909     24.481818
     -2.937938     15.231250     15.231250     30.462499
     -2.927928     19.753603     19.753603     39.507206
     -2.917918     25.335810     25.335810     50.671620
     -2.907908     31.242239     31.242239     62.484478
     -2.897898     36.616697     36.616697     73.233395
     -2.887888     40.685856     40.685856     81.371712
     -2.877878     42.960025     42.960025     85.920051
     -2.867868     43.355073     43.355073     86.710146
     -2.857858     42.180941     42.180941     84.361881
     -2.847848     39.995354     39.995354     79.990708
     -2.837838     37.382423     37.382423     74.764847
     -2.827828     34.752591     34.752591     69.505181
     -2.817818     32.250454     32.250454     64.500909
     -2.807808     29.802561     29.802561     59.605121
     -2.797798     27.265871     27.265871     54.531742
     -2.787788     24.588057     24.588057     49.176115
     -2.777778     21.890490     21.890490     43.780980
     -2.767768     19.433690     19.433690     38.867380
     -2.757758     17.494728     17.494728     34.989457
     -2.747748     16.236204     16.236204     32.472408
     -2.737738     15.647820     15.647820     31.295640
     -2.727728     15.593269     15.593269     31.186538
     -2.717718     15.926457     15.926457     31.852914
     -2.707708     16.595141     16.595141     33.190282
     -2.697698     17.657922     17.657922     35.315843
     -2.687688     19.199754     19.199754     38.399508
     -2.677678     21.204066     21.204066     42.408132
     -2.667668     23.475911     23.475911     46.951821
     -2.657658     25.681767     25.681767     51.363534
     -2.647648     27.493503     27.493503     54.987007
     -2.637638     28.749713     28.749713     57.499426
     -2.627628     29.530896     29.530896     59.061791
     -2.617618     30.099940     30.099940     60.199879
     -2.607608     30.747249     30.747249     61.494499
     -2.597598     31.636926     31.636926     63.273852
     -2.587588     32.737431     32.737431     65.474863
     -2.577578     33.853250     33.853250     67.706499
     -2.567568     34.709772     34.709772     69.419544
     -2.557558     35.030223     35.030223     70.060447
     -2.547548     34.581082     34.581082     69.162164
     -2.537538     33.207397     33.207397     66.414794
     -2.527528     30.887064     30.887064     61.774129
     -2.517518     27.798549     27.798549     55.597098
     -2.507508     24.356119     24.356119     48.712239
     -2.497497     21.161681     21.161681     42.323362
     -2.487487     18.861995     18.861995     37.723990
     -2.477477     17.956591     17.956591     35.913182
     -2.467467     18.636436     18.636436     37.272871
     -2.457457     20.725875     20.725875     41.451751
     -2.447447     23.756680     23.756680     47.513360
     -2.437437     27.145669     27.145669     54.291338
     -2.427427     30.401422     30.401422     60.802844
     -2.417417     33.270513     33.270513     66.541026
     -2.407407     35.758040     35.758040     71.516080
     -2.397397     38.013653     38.013653     76.027306
     -2.387387     40.139516     40.139516     80.279032
     -2.377377     42.019679     42.019679     84.039359
     -2.367367     43.267359     43.267359     86.534718
     -2.357357     43.333664     43.333664     86.667328
     -2.347347     41.740069     41.740069     83.480137
     -2.337337     38.328249     38.328249     76.656499
     -2.327327     33.404820     33.404820     66.809639
     -2.317317     27.708256     27.708256     55.416511
     -2.307307     22.213619     22.213619     44.427239
     -2.297297     17.865108     17.865108     35.730215
     -2.287287     15.345852     15.345852     30.691705
     -2.277277     14.956941     14.956941     29.913881
     -2.267267     16.616632     16.616632     33.233263
     -2.257257     19.944542     19.944542     39.889084
     -2.247247     24.380945     24.380945     48.761889
     -2.237237     29.300829     29.300829     58.601659
     -2.227227     34.100079     34.100079     68.200158
     -2.217217     38.247333     38.247333     76.494665
     -2.207207     41.308431     41.308431     82.616862
     -2.197197     42.960417     42.960417     85.920835
     -2.187187     43.014450     43.014450     86.028900
     -2.177177     41.455594     41.455594     82.911188
     -2.167167     38.483615     38.483615     76.967231
     -2.157157     34.517205     34.517205     69.034411
     -2.147147     30.125670     30.125670     60.251341
     -2.137137     25.886569     25.886569     51.773138
     -2.127127     22.218162     22.218162     44.436324
     -2.117117     19.265498     19.265498     38.530995
     -2.107107     16.900566     16.900566     33.801132
     -2.097097     14.836650     14.836650     29.673300
     -2.087087     12.793966     12.793966     25.587932
     -2.077077     10.630323     10.630323     21.260647
     -2.067067      8.379857      8.379857     16.759714
     -2.057057      6.200779      6.200779     12.401558
     -2.047047      4.279659      4.279659      8.559317
     -2.037037      2.749698      2.749698      5.499395
     -2.027027      1.657262      1.657262      3.314523
     -2.017017      0.977408      0.977408      1.954816
     -2.007007      0.656925      0.656925      1.313850
     -1.996997      0.659435      0.659435      1.318870
     -1.986987      0.994862      0.994862      1.989723
     -1.976977      1.725107      1.725107      3.450213
     -1.966967      2.944456      2.944456      5.888913
     -1.956957      4.738674      4.738674      9.477349
     -1.946947      7.133784      7.133784     14.267569
     -1.936937     10.053067     10.053067     20.106134
     -1.926927     13.302788     13.302788     26.605576
     -1.916917     16.598258     16.598258     33.196516
     -1.906907     19.623639     19.623639     39.247278
     -1.896897     22.101599     22.101599     44.203198
     -1.886887     23.844414     23.844414     47.688828
     -1.876877     24.770481     24.770481     49.540962
     -1.866867     24.891340     24.891340     49.782679
     -1.856857     24.289421     24.289421     48.578842
     -1.846847     23.104954     23.104954     46.209908
     -1.836837     21.533222     21.533222     43.066445
     -1.826827     19.814419     19.814419     39.628838
     -1.816817     18.194912     18.194912     36.389824
     -1.806807     16.857940     16.857940     33.715881
     -1.796797     15.852051     15.852051     31.704103
     -1.786787     15.062451     15.062451     30.124901
     -1.776777     14.255324     14.255324     28.510648
     -1.766767     13.183553     13.183553     26.367106
     -1.756757     11.702455     11.702455     23.404909
     -1.746747      9.835995      9.835995     19.671990
     -1.736737      7.763922      7.763922     15.527844
     -1.726727      5.746657      5.746657     11.493315
     -1.716717      4.035479      4.035479      8.070959
     -1.706707      2.813005      2.813005      5.626010
     -1.696697      2.180506      2.180506      4.361011
     -1.686687      2.176711      2.176711      4.353422
     -1.676677      2.797392      2.797392      5.594784
     -1.666667      3.992460      3.992460      7.984919
     -1.656657      5.640074      5.640074     11.280149
     -1.646647      7.520819      7.520819     15.041639
     -1.636637      9.324558      9.324558     18.649116
     -1.626627     10.710407     10.710407     21.420813
