# EIG2DOS: Utility for SIESTA to obtain the electronic density of states
#  E. Artacho, Apr 1999, A. Garcia, Apr 2012
#  Nick R. Papior, Feb 2017
# ------------------------------------------
# Eigenvalues calculated from a non-polarized calculation
# Eigenvalues read from siesta.EIG
# Kpoint weights read from siesta.KP
# Using smearing parameter:   0.0500
# Using 1000 points in the energy range
# Selected bands: 1 to: 2981
# Emin, Emax in file for selected band(s):    -27.2529205    218.4022430
# Nbands, Nspin, Nk   =   2981     1     1
# E_F                 =    -4.1912 eV --> (shifted to ZERO)
# Broadening          =     0.0500 eV
#
#        E            N(up)  (=)   N(down)         Ntot
     -5.000000     31.667404     31.667404     63.334807
     -4.989990     36.823966     36.823966     73.647932
     -4.979980     41.698212     41.698212     83.396425
     -4.969970     45.438837     45.438837     90.877674
     -4.959960     47.329540     47.329540     94.659079
     -4.949950     47.028746     47.028746     94.057492
     -4.939940     44.688527     44.688527     89.377053
     -4.929930     40.919264     40.919264     81.838527
     -4.919920     36.637183     36.637183     73.274366
     -4.909910     32.864788     32.864788     65.729576
     -4.899900     30.537556     30.537556     61.075113
     -4.889890     30.332589     30.332589     60.665177
     -4.879880     32.518307     32.518307     65.036615
     -4.869870     36.845150     36.845150     73.690299
     -4.859860     42.530286     42.530286     85.060572
     -4.849850     48.390805     48.390805     96.781609
     -4.839840     53.128281     53.128281    106.256563
     -4.829830     55.687182     55.687182    111.374364
     -4.819820     55.553601     55.553601    111.107203
     -4.809810     52.872370     52.872370    105.744741
     -4.799800     48.339261     48.339261     96.678522
     -4.789790     42.926863     42.926863     85.853726
     -4.779780     37.569887     37.569887     75.139774
     -4.769770     32.934576     32.934576     65.869151
     -4.759760     29.337270     29.337270     58.674539
     -4.749750     26.800061     26.800061     53.600121
     -4.739740     25.178671     25.178671     50.357343
     -4.729730     24.287020     24.287020     48.574040
     -4.719720     23.966358     23.966358     47.932715
     -4.709710     24.085588     24.085588     48.171176
     -4.699700     24.496881     24.496881     48.993762
     -4.689690     24.994613     24.994613     49.989227
     -4.679680     25.325690     25.325690     50.651381
     -4.669670     25.271597     25.271597     50.543194
     -4.659660     24.777157     24.777157     49.554314
     -4.649650     24.061355     24.061355     48.122710
     -4.639640     23.635761     23.635761     47.271522
     -4.629630     24.186122     24.186122     48.372244
     -4.619620     26.332634     26.332634     52.665268
     -4.609610     30.349222     30.349222     60.698444
     -4.599600     35.961423     35.961423     71.922845
     -4.589590     42.331461     42.331461     84.662922
     -4.579580     48.271697     48.271697     96.543393
     -4.569570     52.626212     52.626212    105.252425
     -4.559560     54.672772     54.672772    109.345544
     -4.549550     54.373751     54.373751    108.747503
     -4.539540     52.364718     52.364718    104.729436
     -4.529530     49.685821     49.685821     99.371642
     -4.519520     47.374324     47.374324     94.748648
     -4.509510     46.090549     46.090549     92.181098
     -4.499499     45.922987     45.922987     91.845973
     -4.489489     46.431091     46.431091     92.862183
     -4.479479     46.881298     46.881298     93.762596
     -4.469469     46.559009     46.559009     93.118019
     -4.459459     45.024570     45.024570     90.049141
     -4.449449     42.224541     42.224541     84.449082
     -4.439439     38.445487     38.445487     76.890974
     -4.429429     34.167569     34.167569     68.335139
     -4.419419     29.906133     29.906133     59.812267
     -4.409409     26.109662     26.109662     52.219324
     -4.399399     23.128949     23.128949     46.257898
     -4.389389     21.222110     21.222110     42.444219
     -4.379379     20.546751     20.546751     41.093502
     -4.369369     21.120475     21.120475     42.240950
     -4.359359     22.777255     22.777255     45.554510
     -4.349349     25.170781     25.170781     50.341562
     -4.339339     27.855903     27.855903     55.711806
     -4.329329     30.429614     30.429614     60.859228
     -4.319319     32.669692     32.669692     65.339383
     -4.309309     34.601644     34.601644     69.203288
     -4.299299     36.455770     36.455770     72.911540
     -4.289289     38.525440     38.525440     77.050880
     -4.279279     40.980309     40.980309     81.960619
     -4.269269     43.710039     43.710039     87.420078
     -4.259259     46.271112     46.271112     92.542224
     -4.249249     47.979753     47.979753     95.959506
     -4.239239     48.138872     48.138872     96.277744
     -4.229229     46.321132     46.321132     92.642265
     -4.219219     42.586493     42.586493     85.172985
     -4.209209     37.525018     37.525018     75.050036
     -4.199199     32.090382     32.090382     64.180765
     -4.189189     27.290472     27.290472     54.580944
     -4.179179     23.870924     23.870924     47.741847
     -4.169169     22.125504     22.125504     44.251009
     -4.159159     21.898989     21.898989     43.797977
     -4.149149     22.755898     22.755898     45.511795
     -4.139139     24.219991     24.219991     48.439982
     -4.129129     25.970747     25.970747     51.941493
     -4.119119     27.913022     27.913022     55.826045
     -4.109109     30.097542     30.097542     60.195084
     -4.099099     32.540564     32.540564     65.081128
     -4.089089     35.045394     35.045394     70.090787
     -4.079079     37.138498     37.138498     74.276997
     -4.069069     38.182485     38.182485     76.364969
     -4.059059     37.632352     37.632352     75.264704
     -4.049049     35.311804     35.311804     70.623608
     -4.039039     31.562236     31.562236     63.124472
     -4.029029     27.180218     27.180218     54.360436
     -4.019019     23.172415     23.172415     46.344831
     -4.009009     20.448070     20.448070     40.896140
     -3.998999     19.585203     19.585203     39.170406
     -3.988989     20.748326     20.748326     41.496652
     -3.978979     23.749456     23.749456     47.498912
     -3.968969     28.184875     28.184875     56.369749
     -3.958959     33.573233     33.573233     67.146466
     -3.948949     39.454160     39.454160     78.908320
     -3.938939     45.445869     45.445869     90.891738
     -3.928929     51.276014     51.276014    102.552029
     -3.918919     56.788467     56.788467    113.576934
     -3.908909     61.911687     61.911687    123.823374
     -3.898899     66.578525     66.578525    133.157051
     -3.888889     70.617958     70.617958    141.235917
     -3.878879     73.673996     73.673996    147.347992
     -3.868869     75.213847     75.213847    150.427694
     -3.858859     74.652595     74.652595    149.305190
     -3.848849     71.561724     71.561724    143.123448
     -3.838839     65.878944     65.878944    131.757889
     -3.828829     58.026297     58.026297    116.052594
     -3.818819     48.878143     48.878143     97.756287
     -3.808809     39.581646     39.581646     79.163292
     -3.798799     31.289327     31.289327     62.578653
     -3.788789     24.891705     24.891705     49.783410
     -3.778779     20.830350     20.830350     41.660699
     -3.768769     19.037772     19.037772     38.075545
     -3.758759     19.008655     19.008655     38.017310
     -3.748749     19.972573     19.972573     39.945146
     -3.738739     21.118499     21.118499     42.236997
     -3.728729     21.815322     21.815322     43.630643
     -3.718719     21.776770     21.776770     43.553540
     -3.708709     21.130753     21.130753     42.261506
     -3.698699     20.371561     20.371561     40.743123
     -3.688689     20.198918     20.198918     40.397835
     -3.678679     21.279293     21.279293     42.558586
     -3.668669     23.996017     23.996017     47.992033
     -3.658659     28.272397     28.272397     56.544795
     -3.648649     33.540687     33.540687     67.081373
     -3.638639     38.882168     38.882168     77.764336
     -3.628629     43.293722     43.293722     86.587444
     -3.618619     45.978378     45.978378     91.956757
     -3.608609     46.547524     46.547524     93.095049
     -3.598599     45.069704     45.069704     90.139408
     -3.588589     41.976279     41.976279     83.952559
     -3.578579     37.890016     37.890016     75.780033
     -3.568569     33.450385     33.450385     66.900769
     -3.558559     29.179751     29.179751     58.359503
     -3.548549     25.402364     25.402364     50.804729
     -3.538539     22.216555     22.216555     44.433109
     -3.528529     19.523635     19.523635     39.047271
     -3.518519     17.112476     17.112476     34.224953
     -3.508509     14.777630     14.777630     29.555259
     -3.498498     12.426490     12.426490     24.852980
     -3.488488     10.130206     10.130206     20.260413
     -3.478478      8.099650      8.099650     16.199301
     -3.468468      6.603760      6.603760     13.207520
     -3.458458      5.869020      5.869020     11.738039
     -3.448448      5.997098      5.997098     11.994196
     -3.438438      6.923283      6.923283     13.846566
     -3.428428      8.426042      8.426042     16.852085
     -3.418418     10.190525     10.190525     20.381049
     -3.408408     11.917311     11.917311     23.834622
     -3.398398     13.446450     13.446450     26.892900
     -3.388388     14.845637     14.845637     29.691275
     -3.378378     16.411083     16.411083     32.822166
     -3.368368     18.562185     18.562185     37.124370
     -3.358358     21.664173     21.664173     43.328346
     -3.348348     25.853430     25.853430     51.706860
     -3.338338     30.939565     30.939565     61.879130
     -3.328328     36.416354     36.416354     72.832709
     -3.318318     41.561465     41.561465     83.122930
     -3.308308     45.578958     45.578958     91.157916
     -3.298298     47.748958     47.748958     95.497915
     -3.288288     47.571096     47.571096     95.142193
     -3.278278     44.890621     44.890621     89.781241
     -3.268268     39.974976     39.974976     79.949953
     -3.258258     33.494843     33.494843     66.989686
     -3.248248     26.387716     26.387716     52.775433
     -3.238238     19.638213     19.638213     39.276426
     -3.228228     14.055571     14.055571     28.111142
     -3.218218     10.127665     10.127665     20.255329
     -3.208208      7.984434      7.984434     15.968869
     -3.198198      7.450279      7.450279     14.900558
     -3.188188      8.141920      8.141920     16.283840
     -3.178178      9.580428      9.580428     19.160856
     -3.168168     11.307768     11.307768     22.615537
     -3.158158     13.001506     13.001506     26.003012
     -3.148148     14.562734     14.562734     29.125467
     -3.138138     16.134642     16.134642     32.269285
     -3.128128     18.019662     18.019662     36.039323
     -3.118118     20.507647     20.507647     41.015293
     -3.108108     23.682512     23.682512     47.365023
     -3.098098     27.302364     27.302364     54.604727
     -3.088088     30.823940     30.823940     61.647879
     -3.078078     33.573204     33.573204     67.146407
     -3.068068     34.986984     34.986984     69.973967
     -3.058058     34.810568     34.810568     69.621135
     -3.048048     33.158897     33.158897     66.317795
     -3.038038     30.423394     30.423394     60.846789
     -3.028028     27.088964     27.088964     54.177929
     -3.018018     23.566748     23.566748     47.133495
     -3.008008     20.124675     20.124675     40.249350
     -2.997998     16.929339     16.929339     33.858678
     -2.987988     14.146330     14.146330     28.292660
     -2.977978     12.021946     12.021946     24.043893
     -2.967968     10.893091     10.893091     21.786181
     -2.957958     11.118530     11.118530     22.237059
     -2.947948     12.962009     12.962009     25.924018
     -2.937938     16.472062     16.472062     32.944124
     -2.927928     21.400569     21.400569     42.801138
     -2.917918     27.192484     27.192484     54.384967
     -2.907908     33.064629     33.064629     66.129258
     -2.897898     38.167569     38.167569     76.335137
     -2.887888     41.791903     41.791903     83.583805
     -2.877878     43.551803     43.551803     87.103605
     -2.867868     43.473433     43.473433     86.946866
     -2.857858     41.945755     41.945755     83.891509
     -2.847848     39.548388     39.548388     79.096776
     -2.837838     36.828987     36.828987     73.657975
     -2.827828     34.128719     34.128719     68.257437
     -2.817818     31.530843     31.530843     63.061686
     -2.807808     28.943655     28.943655     57.887310
     -2.797798     26.259314     26.259314     52.518627
     -2.787788     23.493763     23.493763     46.987526
     -2.777778     20.830502     20.830502     41.661003
     -2.767768     18.551386     18.551386     37.102772
     -2.757758     16.904902     16.904902     33.809804
     -2.747748     15.996761     15.996761     31.993523
     -2.737738     15.769064     15.769064     31.538128
     -2.727728     16.074308     16.074308     32.148616
     -2.717718     16.787016     16.787016     33.574032
     -2.707708     17.870718     17.870718     35.741436
     -2.697698     19.350451     19.350451     38.700903
     -2.687688     21.211340     21.211340     42.422681
     -2.677678     23.303429     23.303429     46.606858
     -2.667668     25.336542     25.336542     50.673083
     -2.657658     26.988933     26.988933     53.977865
     -2.647648     28.069968     28.069968     56.139935
     -2.637638     28.631140     28.631140     57.262280
     -2.627628     28.947691     28.947691     57.895382
     -2.617618     29.376655     29.376655     58.753310
     -2.607608     30.175740     30.175740     60.351480
     -2.597598     31.384954     31.384954     62.769908
     -2.587588     32.821601     32.821601     65.643201
     -2.577578     34.163770     34.163770     68.327541
     -2.567568     35.055971     35.055971     70.111942
     -2.557558     35.186766     35.186766     70.373533
     -2.547548     34.335761     34.335761     68.671521
     -2.537538     32.417459     32.417459     64.834918
     -2.527528     29.536797     29.536797     59.073595
     -2.517518     26.032859     26.032859     52.065719
     -2.507508     22.464116     22.464116     44.928232
     -2.497497     19.505569     19.505569     39.011138
     -2.487487     17.775210     17.775210     35.550420
     -2.477477     17.651124     17.651124     35.302249
     -2.467467     19.153776     19.153776     38.307552
     -2.457457     21.945037     21.945037     43.890074
     -2.447447     25.449381     25.449381     50.898763
     -2.437437     29.053017     29.053017     58.106034
     -2.427427     32.302306     32.302306     64.604612
     -2.417417     35.018336     35.018336     70.036671
     -2.407407     37.276275     37.276275     74.552549
     -2.397397     39.257620     39.257620     78.515239
     -2.387387     41.046541     41.046541     82.093083
     -2.377377     42.476904     42.476904     84.953809
     -2.367367     43.120905     43.120905     86.241809
     -2.357357     42.443494     42.443494     84.886988
     -2.347347     40.058526     40.058526     80.117052
     -2.337337     35.961689     35.961689     71.923378
     -2.327327     30.621365     30.621365     61.242731
     -2.317317     24.881543     24.881543     49.763087
     -2.307307     19.726533     19.726533     39.453065
     -2.297297     16.016765     16.016765     32.033530
     -2.287287     14.298416     14.298416     28.596833
     -2.277277     14.733700     14.733700     29.467400
     -2.267267     17.137237     17.137237     34.274475
     -2.257257     21.071142     21.071142     42.142285
     -2.247247     25.952596     25.952596     51.905192
     -2.237237     31.146455     31.146455     62.292910
     -2.227227     36.034278     36.034278     72.068556
     -2.217217     40.062901     40.062901     80.125802
     -2.207207     42.781634     42.781634     85.563269
     -2.197197     43.879085     43.879085     87.758170
     -2.187187     43.226288     43.226288     86.452576
     -2.177177     40.919537     40.919537     81.839075
     -2.167167     37.298235     37.298235     74.596470
     -2.157157     32.904502     32.904502     65.809005
     -2.147147     28.367581     28.367581     56.735161
     -2.137137     24.236879     24.236879     48.473759
     -2.127127     20.829120     20.829120     41.658239
     -2.117117     18.163998     18.163998     36.327995
     -2.107107     16.024395     16.024395     32.048791
     -2.097097     14.111692     14.111692     28.223384
     -2.087087     12.216629     12.216629     24.433259
     -2.077077     10.323508     10.323508     20.647015
     -2.067067      8.607942      8.607942     17.215885
     -2.057057      7.344417      7.344417     14.688833
     -2.047047      6.775598      6.775598     13.551195
     -2.037037      6.998752      6.998752     13.997504
     -2.027027      7.906688      7.906688     15.813376
     -2.017017      9.198636      9.198636     18.397272
     -2.007007     10.457682     10.457682     20.915364
     -1.996997     11.273428     11.273428     22.546856
     -1.986987     11.371292     11.371292     22.742583
     -1.976977     10.702128     10.702128     21.404256
     -1.966967      9.457994      9.457994     18.915987
     -1.956957      8.010298      8.010298     16.020596
     -1.946947      6.798632      6.798632     13.597265
     -1.936937      6.213136      6.213136     12.426271
     -1.926927      6.504858      6.504858     13.009715
     -1.916917      7.738566      7.738566     15.477132
     -1.906907      9.786890      9.786890     19.573779
     -1.896897     12.359855     12.359855     24.719710
     -1.886887     15.064158     15.064158     30.128316
     -1.876877     17.483876     17.483876     34.967752
     -1.866867     19.268009     19.268009     38.536018
     -1.856857     20.205542     20.205542     40.411083
     -1.846847     20.269408     20.269408     40.538816
     -1.836837     19.615753     19.615753     39.231507
     -1.826827     18.532549     18.532549     37.065098
     -1.816817     17.344286     17.344286     34.688572
     -1.806807     16.298521     16.298521     32.597042
     -1.796797     15.477632     15.477632     30.955264
     -1.786787     14.779097     14.779097     29.558194
     -1.776777     13.980095     13.980095     27.960191
     -1.766767     12.858147     12.858147     25.716294
     -1.756757     11.307181     11.307181     22.614361
     -1.746747      9.391742      9.391742     18.783484
     -1.736737      7.319868      7.319868     14.639736
     -1.726727      5.361175      5.361175     10.722350
     -1.716717      3.760631      3.760631      7.521262
     -1.706707      2.688425      2.688425      5.376849
     -1.696697      2.234725      2.234725      4.469449
     -1.686687      2.428637      2.428637      4.857275
     -1.676677      3.251100      3.251100      6.502200
     -1.666667      4.624313      4.624313      9.248626
     -1.656657      6.385166      6.385166     12.770331
     -1.646647      8.270629      8.270629     16.541259
     -1.636637      9.945449      9.945449     19.890898
     -1.626627     11.082640     11.082640     22.165279
