# EIG2DOS: Utility for SIESTA to obtain the electronic density of states
#  E. Artacho, Apr 1999, A. Garcia, Apr 2012
#  Nick R. Papior, Feb 2017
# ------------------------------------------
# Eigenvalues calculated from a non-polarized calculation
# Eigenvalues read from siesta.EIG
# Kpoint weights read from siesta.KP
# Using smearing parameter:   0.0500
# Using 1000 points in the energy range
# Selected bands: 1 to: 2981
# Emin, Emax in file for selected band(s):    -27.2580574    218.3972210
# Nbands, Nspin, Nk   =   2981     1     1
# E_F                 =    -4.2011 eV --> (shifted to ZERO)
# Broadening          =     0.0500 eV
#
#        E            N(up)  (=)   N(down)         Ntot
     -5.000000     32.172547     32.172547     64.345094
     -4.989990     37.267338     37.267338     74.534675
     -4.979980     41.996614     41.996614     83.993227
     -4.969970     45.530710     45.530710     91.061420
     -4.959960     47.196157     47.196157     94.392314
     -4.949950     46.701903     46.701903     93.403806
     -4.939940     44.241005     44.241005     88.482009
     -4.929930     40.442709     40.442709     80.885418
     -4.919920     36.217639     36.217639     72.435278
     -4.909910     32.565502     32.565502     65.131004
     -4.899900     30.392940     30.392940     60.785880
     -4.889890     30.350627     30.350627     60.701254
     -4.879880     32.685574     32.685574     65.371147
     -4.869870     37.130227     37.130227     74.260453
     -4.859860     42.885652     42.885652     85.771305
     -4.849850     48.756525     48.756525     97.513050
     -4.839840     53.440597     53.440597    106.881195
     -4.829830     55.891594     55.891594    111.783188
     -4.819820     55.617979     55.617979    111.235959
     -4.809810     52.794177     52.794177    105.588354
     -4.799800     48.143335     48.143335     96.286669
     -4.789790     42.654908     42.654908     85.309816
     -4.779780     37.266790     37.266790     74.533579
     -4.769770     32.637582     32.637582     65.275165
     -4.759760     29.071812     29.071812     58.143624
     -4.749750     26.582336     26.582336     53.164672
     -4.739740     25.022006     25.022006     50.044012
     -4.729730     24.207588     24.207588     48.415177
     -4.719720     23.984071     23.984071     47.968142
     -4.709710     24.217817     24.217817     48.435634
     -4.699700     24.746153     24.746153     49.492307
     -4.689690     25.335727     25.335727     50.671454
     -4.679680     25.700463     25.700463     51.400926
     -4.669670     25.597921     25.597921     51.195842
     -4.659660     24.972407     24.972407     49.944815
     -4.649650     24.071736     24.071736     48.143473
     -4.639640     23.458366     23.458366     46.916732
     -4.629630     23.872945     23.872945     47.745890
     -4.619620     25.974141     25.974141     51.948282
     -4.609610     30.044174     30.044174     60.088349
     -4.599600     35.784647     35.784647     71.569294
     -4.589590     42.310877     42.310877     84.621754
     -4.579580     48.381754     48.381754     96.763507
     -4.569570     52.799044     52.799044    105.598089
     -4.559560     54.822404     54.822404    109.644808
     -4.549550     54.424184     54.424184    108.848369
     -4.539540     52.271744     52.271744    104.543487
     -4.529530     49.445957     49.445957     98.891914
     -4.519520     47.020535     47.020535     94.041070
     -4.509510     45.679663     45.679663     91.359327
     -4.499499     45.521021     45.521021     91.042042
     -4.489489     46.100394     46.100394     92.200787
     -4.479479     46.670322     46.670322     93.340644
     -4.469469     46.494343     46.494343     92.988685
     -4.459459     45.105780     45.105780     90.211560
     -4.449449     42.423698     42.423698     84.847396
     -4.439439     38.712940     38.712940     77.425880
     -4.429429     34.443418     34.443418     68.886836
     -4.419419     30.134272     30.134272     60.268543
     -4.409409     26.249963     26.249963     52.499926
     -4.399399     23.163976     23.163976     46.327952
     -4.389389     21.157154     21.157154     42.314309
     -4.379379     20.404619     20.404619     40.809239
     -4.369369     20.933981     20.933981     41.867963
     -4.359359     22.582210     22.582210     45.164421
     -4.349349     25.000818     25.000818     50.001636
     -4.339339     27.738785     27.738785     55.477571
     -4.329329     30.383816     30.383816     60.767631
     -4.319319     32.700441     32.700441     65.400883
     -4.309309     34.697092     34.697092     69.394184
     -4.299299     36.585638     36.585638     73.171276
     -4.289289     38.645207     38.645207     77.290414
     -4.279279     41.042581     41.042581     82.085161
     -4.269269     43.681058     43.681058     87.362116
     -4.259259     46.146125     46.146125     92.292251
     -4.249249     47.789213     47.789213     95.578426
     -4.239239     47.940589     47.940589     95.881179
     -4.229229     46.180570     46.180570     92.361139
     -4.219219     42.554100     42.554100     85.108201
     -4.209209     37.621113     37.621113     75.242226
     -4.199199     32.303351     32.303351     64.606702
     -4.189189     27.586377     27.586377     55.172754
     -4.179179     24.207223     24.207223     48.414447
     -4.169169     22.461625     22.461625     44.923250
     -4.159159     22.200842     22.200842     44.401684
     -4.149149     22.996322     22.996322     45.992644
     -4.139139     24.379130     24.379130     48.758260
     -4.129129     26.038782     26.038782     52.077564
     -4.119119     27.894168     27.894168     55.788337
     -4.109109     30.011668     30.011668     60.023337
     -4.099099     32.419246     32.419246     64.838491
     -4.089089     34.922503     34.922503     69.845006
     -4.079079     37.039404     37.039404     74.078809
     -4.069069     38.117516     38.117516     76.235031
     -4.059059     37.597960     37.597960     75.195920
     -4.049049     35.298132     35.298132     70.596263
     -4.039039     31.561800     31.561800     63.123600
     -4.029029     27.192038     27.192038     54.384076
     -4.019019     23.199300     23.199300     46.398600
     -4.009009     20.489549     20.489549     40.979099
     -3.998999     19.631489     19.631489     39.262978
     -3.988989     20.779941     20.779941     41.559883
     -3.978979     23.743524     23.743524     47.487047
     -3.968969     28.124883     28.124883     56.249765
     -3.958959     33.456979     33.456979     66.913958
     -3.948949     39.295607     39.295607     78.591215
     -3.938939     45.270054     45.270054     90.540108
     -3.928929     51.109756     51.109756    102.219512
     -3.918919     56.651395     56.651395    113.302791
     -3.908909     61.811336     61.811336    123.622672
     -3.898899     66.510751     66.510751    133.021502
     -3.888889     70.571428     70.571428    141.142856
     -3.878879     73.636217     73.636217    147.272433
     -3.868869     75.176343     75.176343    150.352686
     -3.858859     74.613771     74.613771    149.227542
     -3.848849     71.526907     71.526907    143.053814
     -3.838839     65.857858     65.857858    131.715717
     -3.828829     58.028892     58.028892    116.057783
     -3.818819     48.910311     48.910311     97.820622
     -3.808809     39.642506     39.642506     79.285013
     -3.798799     31.371117     31.371117     62.742234
     -3.788789     24.982096     24.982096     49.964192
     -3.778779     20.915980     20.915980     41.831961
     -3.768769     19.107552     19.107552     38.215105
     -3.758759     19.055937     19.055937     38.111875
     -3.748749     19.995981     19.995981     39.991962
     -3.738739     21.121550     21.121550     42.243100
     -3.728729     21.805023     21.805023     43.610046
     -3.718719     21.761380     21.761380     43.522760
     -3.708709     21.117174     21.117174     42.234348
     -3.698699     20.363154     20.363154     40.726309
     -3.688689     20.194626     20.194626     40.389253
     -3.678679     21.274610     21.274610     42.549221
     -3.668669     23.985602     23.985602     47.971204
     -3.658659     28.253331     28.253331     56.506662
     -3.648649     33.514834     33.514834     67.029669
     -3.638639     38.856313     38.856313     77.712626
     -3.628629     43.277115     43.277115     86.554231
     -3.618619     45.978783     45.978783     91.957566
     -3.608609     46.567758     46.567758     93.135517
     -3.598599     45.106503     45.106503     90.213005
     -3.588589     42.021933     42.021933     84.043866
     -3.578579     37.935679     37.935679     75.871357
     -3.568569     33.489166     33.489166     66.978332
     -3.558559     29.208172     29.208172     58.416344
     -3.548549     25.419956     25.419956     50.839912
     -3.538539     22.224471     22.224471     44.448941
     -3.528529     19.523442     19.523442     39.046884
     -3.518519     17.105822     17.105822     34.211645
     -3.508509     14.766738     14.766738     29.533477
     -3.498498     12.414891     12.414891     24.829782
     -3.488488     10.123050     10.123050     20.246100
     -3.478478      8.103193      8.103193     16.206385
     -3.468468      6.623844      6.623844     13.247688
     -3.458458      5.908531      5.908531     11.817062
     -3.448448      6.052466      6.052466     12.104931
     -3.438438      6.980345      6.980345     13.960690
     -3.428428      8.455977      8.455977     16.911954
     -3.418418     10.147028     10.147028     20.294056
     -3.408408     11.736850     11.736850     23.473701
     -3.398398     13.054270     13.054270     26.108540
     -3.388388     14.170712     14.170712     28.341423
     -3.378378     15.411686     15.411686     30.823372
     -3.368368     17.258507     17.258507     34.517014
     -3.358358     20.165986     20.165986     40.331972
     -3.348348     24.364487     24.364487     48.728973
     -3.338338     29.723635     29.723635     59.447270
     -3.328328     35.726120     35.726120     71.452239
     -3.318318     41.554191     41.554191     83.108381
     -3.308308     46.256912     46.256912     92.513825
     -3.298298     48.955324     48.955324     97.910648
     -3.288288     49.045050     49.045050     98.090100
     -3.278278     46.354808     46.354808     92.709616
     -3.268268     41.214411     41.214411     82.428822
     -3.258258     34.395968     34.395968     68.791935
     -3.248248     26.931189     26.931189     53.862378
     -3.238238     19.861997     19.861997     39.723994
     -3.228228     14.014098     14.014098     28.028196
     -3.218218      9.867230      9.867230     19.734460
     -3.208208      7.541620      7.541620     15.083239
     -3.198198      6.867077      6.867077     13.734154
     -3.188188      7.483384      7.483384     14.966768
     -3.178178      8.940151      8.940151     17.880301
     -3.168168     10.793316     10.793316     21.586631
     -3.158158     12.703623     12.703623     25.407247
     -3.148148     14.522988     14.522988     29.045976
     -3.138138     16.329383     16.329383     32.658765
     -3.128128     18.370583     18.370583     36.741166
     -3.118118     20.914706     20.914706     41.829412
     -3.108108     24.062601     24.062601     48.125203
     -3.098098     27.614845     27.614845     55.229691
     -3.088088     31.072867     31.072867     62.145734
     -3.078078     33.789502     33.789502     67.579004
     -3.068068     35.203477     35.203477     70.406954
     -3.058058     35.043632     35.043632     70.087265
     -3.048048     33.403854     33.403854     66.807709
     -3.038038     30.661895     30.661895     61.323789
     -3.028028     27.300976     27.300976     54.601952
     -3.018018     23.739604     23.739604     47.479209
     -3.008008     20.255548     20.255548     40.511096
     -2.997998     17.022117     17.022117     34.044233
     -2.987988     14.206462     14.206462     28.412924
     -2.977978     12.052666     12.052666     24.105332
     -2.967968     10.894609     10.894609     21.789217
     -2.957958     11.089876     11.089876     22.179753
     -2.947948     12.904068     12.904068     25.808136
     -2.937938     16.390077     16.390077     32.780153
     -2.927928     21.304708     21.304708     42.609416
     -2.917918     27.095771     27.095771     54.191542
     -2.907908     32.978654     32.978654     65.957308
     -2.897898     38.097645     38.097645     76.195289
     -2.887888     41.734117     41.734117     83.468235
     -2.877878     43.494048     43.494048     86.988095
     -2.867868     43.400833     43.400833     86.801666
     -2.857858     41.848644     41.848644     83.697289
     -2.847848     39.429290     39.429290     78.858580
     -2.837838     36.705018     36.705018     73.410036
     -2.827828     34.027677     34.027677     68.055355
     -2.817818     31.482151     31.482151     62.964303
     -2.807808     28.967827     28.967827     57.935654
     -2.797798     26.360421     26.360421     52.720842
     -2.787788     23.657971     23.657971     47.315942
     -2.777778     21.030904     21.030904     42.061808
     -2.767768     18.756588     18.756588     37.513177
     -2.757758     17.087504     17.087504     34.175007
     -2.747748     16.138565     16.138565     32.277130
     -2.737738     15.861937     15.861937     31.723875
     -2.727728     16.117861     16.117861     32.235722
     -2.717718     16.785470     16.785470     33.570940
     -2.707708     17.831047     17.831047     35.662094
     -2.697698     19.282460     19.282460     38.564920
     -2.687688     21.128690     21.128690     42.257380
     -2.677678     23.223816     23.223816     46.447631
     -2.667668     25.279697     25.279697     50.559395
     -2.657658     26.972592     26.972592     53.945184
     -2.647648     28.105384     28.105384     56.210767
     -2.637638     28.720149     28.720149     57.440298
     -2.627628     29.082447     29.082447     58.164894
     -2.617618     29.541741     29.541741     59.083482
     -2.607608     30.351454     30.351454     60.702908
     -2.597598     31.550693     31.550693     63.101385
     -2.587588     32.958922     32.958922     65.917843
     -2.577578     34.259135     34.259135     68.518270
     -2.567568     35.102962     35.102962     70.205924
     -2.557558     35.187197     35.187197     70.374394
     -2.547548     34.299116     34.299116     68.598232
     -2.537538     32.358694     32.358694     64.717387
     -2.527528     29.473161     29.473161     58.946321
     -2.517518     25.980646     25.980646     51.961292
     -2.507508     22.435923     22.435923     44.871846
     -2.497497     19.508169     19.508169     39.016337
     -2.487487     17.807969     17.807969     35.615939
     -2.477477     17.705153     17.705153     35.410305
     -2.467467     19.212375     19.212375     38.424750
     -2.457457     21.986089     21.986089     43.972178
     -2.447447     25.449763     25.449763     50.899525
     -2.437437     28.994210     28.994210     57.988420
     -2.427427     32.175686     32.175686     64.351372
     -2.417417     34.828603     34.828603     69.657206
     -2.407407     37.042084     37.042084     74.084169
     -2.397397     39.009130     39.009130     78.018259
     -2.387387     40.820050     40.820050     81.640100
     -2.377377     42.307190     42.307190     84.614381
     -2.367367     43.032718     43.032718     86.065436
     -2.357357     42.444659     42.444659     84.889317
     -2.347347     40.137368     40.137368     80.274736
     -2.337337     36.090215     36.090215     72.180429
     -2.327327     30.763144     30.763144     61.526288
     -2.317317     25.001169     25.001169     50.002337
     -2.307307     19.797201     19.797201     39.594401
     -2.297297     16.024051     16.024051     32.048102
     -2.287287     14.240419     14.240419     28.480838
     -2.277277     14.618964     14.618964     29.237928
     -2.267267     16.981841     16.981841     33.963682
     -2.257257     20.895667     20.895667     41.791334
     -2.247247     25.779205     25.779205     51.558409
     -2.237237     30.996221     30.996221     61.992442
     -2.227227     35.924960     35.924960     71.849921
     -2.217217     40.007270     40.007270     80.014540
     -2.207207     42.786293     42.786293     85.572587
     -2.197197     43.943732     43.943732     87.887465
     -2.187187     43.343572     43.343572     86.687144
     -2.177177     41.075842     41.075842     82.151684
     -2.167167     37.475657     37.475657     74.951313
     -2.157157     33.083880     33.083880     66.167759
     -2.147147     28.531852     28.531852     57.063704
     -2.137137     24.373607     24.373607     48.747214
     -2.127127     20.930882     20.930882     41.861764
     -2.117117     18.225575     18.225575     36.451151
     -2.107107     16.036093     16.036093     32.072187
     -2.097097     14.048744     14.048744     28.097487
     -2.087087     12.025799     12.025799     24.051598
     -2.077077      9.910538      9.910538     19.821076
     -2.067067      7.833542      7.833542     15.667083
     -2.057057      6.040207      6.040207     12.080414
     -2.047047      4.790306      4.790306      9.580613
     -2.037037      4.274077      4.274077      8.548154
     -2.027027      4.561718      4.561718      9.123436
     -2.017017      5.581176      5.581176     11.162352
     -2.007007      7.117451      7.117451     14.234902
     -1.996997      8.838544      8.838544     17.677088
     -1.986987     10.359385     10.359385     20.718770
     -1.976977     11.342525     11.342525     22.685050
     -1.966967     11.608538     11.608538     23.217076
     -1.956957     11.210209     11.210209     22.420417
     -1.946947     10.430633     10.430633     20.861266
     -1.936937      9.696774      9.696774     19.393548
     -1.926927      9.438687      9.438687     18.877374
     -1.916917      9.948210      9.948210     19.896420
     -1.906907     11.288315     11.288315     22.576630
     -1.896897     13.280477     13.280477     26.560953
     -1.886887     15.566476     15.566476     31.132953
     -1.876877     17.716850     17.716850     35.433701
     -1.866867     19.348482     19.348482     38.696963
     -1.856857     20.218544     20.218544     40.437087
     -1.846847     20.274447     20.274447     40.548893
     -1.836837     19.651331     19.651331     39.302662
     -1.826827     18.617334     18.617334     37.234668
     -1.816817     17.477099     17.477099     34.954198
     -1.806807     16.460185     16.460185     32.920370
     -1.796797     15.636615     15.636615     31.273230
     -1.786787     14.900801     14.900801     29.801602
     -1.776777     14.037454     14.037454     28.074908
     -1.766767     12.839884     12.839884     25.679767
     -1.756757     11.220490     11.220490     22.440979
     -1.746747      9.258400      9.258400     18.516800
     -1.736737      7.167727      7.167727     14.335455
     -1.726727      5.214901      5.214901     10.429803
     -1.716717      3.635326      3.635326      7.270653
     -1.706707      2.587848      2.587848      5.175696
     -1.696697      2.153580      2.153580      4.307159
     -1.686687      2.357129      2.357129      4.714257
     -1.676677      3.179874      3.179874      6.359747
     -1.666667      4.548435      4.548435      9.096869
     -1.656657      6.306255      6.306255     12.612511
     -1.646647      8.196571      8.196571     16.393141
     -1.636637      9.887533      9.887533     19.775067
     -1.626627     11.050832     11.050832     22.101663
