# EIG2DOS: Utility for SIESTA to obtain the electronic density of states
#  E. Artacho, Apr 1999, A. Garcia, Apr 2012
#  Nick R. Papior, Feb 2017
# ------------------------------------------
# Eigenvalues calculated from a non-polarized calculation
# Eigenvalues read from siesta.EIG
# Kpoint weights read from siesta.KP
# Using smearing parameter:   0.0500
# Using 1000 points in the energy range
# Selected bands: 1 to: 2981
# Emin, Emax in file for selected band(s):    -27.3345223    218.4110600
# Nbands, Nspin, Nk   =   2981     1     1
# E_F                 =    -4.1829 eV --> (shifted to ZERO)
# Broadening          =     0.0500 eV
#
#        E            N(up)  (=)   N(down)         Ntot
     -5.000000     31.733733     31.733733     63.467466
     -4.989990     37.129245     37.129245     74.258489
     -4.979980     42.218540     42.218540     84.437080
     -4.969970     46.085711     46.085711     92.171423
     -4.959960     47.976845     47.976845     95.953689
     -4.949950     47.554742     47.554742     95.109483
     -4.939940     45.015372     45.015372     90.030744
     -4.929930     41.035091     41.035091     82.070182
     -4.919920     36.594585     36.594585     73.189170
     -4.909910     32.758623     32.758623     65.517247
     -4.899900     30.470177     30.470177     60.940354
     -4.889890     30.376488     30.376488     60.752976
     -4.879880     32.687304     32.687304     65.374608
     -4.869870     37.085663     37.085663     74.171326
     -4.859860     42.740745     42.740745     85.481489
     -4.849850     48.467617     48.467617     96.935234
     -4.839840     53.024418     53.024418    106.048835
     -4.829830     55.462220     55.462220    110.924439
     -4.819820     55.397913     55.397913    110.795825
     -4.809810     53.100265     53.100265    106.200531
     -4.799800     49.356458     49.356458     98.712915
     -4.789790     45.178358     45.178358     90.356715
     -4.779780     41.467330     41.467330     82.934660
     -4.769770     38.759408     38.759408     77.518816
     -4.759760     37.127294     37.127294     74.254588
     -4.749750     36.249305     36.249305     72.498611
     -4.739740     35.595976     35.595976     71.191951
     -4.729730     34.650285     34.650285     69.300569
     -4.719720     33.076052     33.076052     66.152104
     -4.709710     30.781570     30.781570     61.563141
     -4.699700     27.880446     27.880446     55.760891
     -4.689690     24.601909     24.601909     49.203818
     -4.679680     21.218811     21.218811     42.437623
     -4.669670     18.033227     18.033227     36.066453
     -4.659660     15.407916     15.407916     30.815832
     -4.649650     13.793031     13.793031     27.586062
     -4.639640     13.694695     13.694695     27.389390
     -4.629630     15.562546     15.562546     31.125092
     -4.619620     19.617805     19.617805     39.235610
     -4.609610     25.683075     25.683075     51.366151
     -4.599600     33.096052     33.096052     66.192103
     -4.589590     40.778309     40.778309     81.556618
     -4.579580     47.478956     47.478956     94.957911
     -4.569570     52.132376     52.132376    104.264752
     -4.559560     54.197959     54.197959    108.395919
     -4.549550     53.834526     53.834526    107.669051
     -4.539540     51.823212     51.823212    103.646423
     -4.529530     49.263100     49.263100     98.526199
     -4.519520     47.165139     47.165139     94.330278
     -4.509510     46.109800     46.109800     92.219601
     -4.499499     46.097081     46.097081     92.194161
     -4.489489     46.628154     46.628154     93.256308
     -4.479479     46.961020     46.961020     93.922041
     -4.469469     46.419834     46.419834     92.839668
     -4.459459     44.631819     44.631819     89.263638
     -4.449449     41.613459     41.613459     83.226918
     -4.439439     37.703139     37.703139     75.406278
     -4.429429     33.403740     33.403740     66.807480
     -4.419419     29.224607     29.224607     58.449215
     -4.409409     25.588160     25.588160     51.176319
     -4.399399     22.810583     22.810583     45.621165
     -4.389389     21.116341     21.116341     42.232682
     -4.379379     20.635650     20.635650     41.271300
     -4.369369     21.367049     21.367049     42.734098
     -4.359359     23.134988     23.134988     46.269976
     -4.349349     25.594823     25.594823     51.189645
     -4.339339     28.315267     28.315267     56.630533
     -4.329329     30.917194     30.917194     61.834388
     -4.319319     33.205067     33.205067     66.410135
     -4.309309     35.222407     35.222407     70.444813
     -4.299299     37.196807     37.196807     74.393614
     -4.289289     39.391112     39.391112     78.782225
     -4.279279     41.919715     41.919715     83.839431
     -4.269269     44.607984     44.607984     89.215968
     -4.259259     46.964378     46.964378     93.928756
     -4.249249     48.298878     48.298878     96.597757
     -4.239239     47.962809     47.962809     95.925618
     -4.229229     45.622811     45.622811     91.245621
     -4.219219     41.448503     41.448503     82.897006
     -4.209209     36.117641     36.117641     72.235281
     -4.199199     30.622173     30.622173     61.244346
     -4.189189     25.953613     25.953613     51.907226
     -4.179179     22.802733     22.802733     45.605466
     -4.169169     21.396078     21.396078     42.792155
     -4.159159     21.521494     21.521494     43.042988
     -4.149149     22.708247     22.708247     45.416494
     -4.139139     24.466093     24.466093     48.932186
     -4.129129     26.473040     26.473040     52.946080
     -4.119119     28.632318     28.632318     57.264636
     -4.109109     30.981062     30.981062     61.962125
     -4.099099     33.505251     33.505251     67.010501
     -4.089089     35.969035     35.969035     71.938069
     -4.079079     37.871020     37.871020     75.742040
     -4.069069     38.580500     38.580500     77.160999
     -4.059059     37.605342     37.605342     75.210683
     -4.049049     34.857980     34.857980     69.715961
     -4.039039     30.774888     30.774888     61.549777
     -4.029029     26.220682     26.220682     52.441363
     -4.019019     22.223431     22.223431     44.446862
     -4.009009     19.669279     19.669279     39.338557
     -3.998999     19.086704     19.086704     38.173409
     -3.988989     20.584854     20.584854     41.169708
     -3.978979     23.927288     23.927288     47.854575
     -3.968969     28.672161     28.672161     57.344322
     -3.958959     34.310020     34.310020     68.620039
     -3.948949     40.363942     40.363942     80.727884
     -3.938939     46.450627     46.450627     92.901254
     -3.928929     52.311596     52.311596    104.623192
     -3.918919     57.812311     57.812311    115.624621
     -3.908909     62.896023     62.896023    125.792046
     -3.898899     67.490378     67.490378    134.980756
     -3.888889     71.397491     71.397491    142.794982
     -3.878879     74.227215     74.227215    148.454431
     -3.868869     75.429818     75.429818    150.859635
     -3.858859     74.441595     74.441595    148.883190
     -3.848849     70.897508     70.897508    141.795017
     -3.838839     64.824037     64.824037    129.648074
     -3.828829     56.726783     56.726783    113.453565
     -3.818819     47.529104     47.529104     95.058208
     -3.808809     38.377352     38.377352     76.754704
     -3.798799     30.376856     30.376856     60.753712
     -3.788789     24.342143     24.342143     48.684286
     -3.778779     20.632698     20.632698     41.265396
     -3.768769     19.112811     19.112811     38.225623
     -3.758759     19.236051     19.236051     38.472103
     -3.748749     20.223827     20.223827     40.447655
     -3.738739     21.288867     21.288867     42.577735
     -3.728729     21.848460     21.848460     43.696920
     -3.718719     21.676800     21.676800     43.353600
     -3.708709     20.958479     20.958479     41.916959
     -3.698699     20.224892     20.224892     40.449785
     -3.688689     20.181722     20.181722     40.363444
     -3.678679     21.466930     21.466930     42.933859
     -3.668669     24.408125     24.408125     48.816251
     -3.658659     28.862574     28.862574     57.725149
     -3.648649     34.207537     34.207537     68.415074
     -3.638639     39.498186     39.498186     78.996372
     -3.628629     43.741127     43.741127     87.482254
     -3.618619     46.178611     46.178611     92.357221
     -3.608609     46.475160     46.475160     92.950320
     -3.598599     44.749512     44.749512     89.499024
     -3.588589     41.468879     41.468879     82.937758
     -3.578579     37.273565     37.273565     74.547130
     -3.568569     32.803454     32.803454     65.606907
     -3.558559     28.567569     28.567569     57.135139
     -3.548549     24.867782     24.867782     49.735563
     -3.538539     21.778125     21.778125     43.556250
     -3.528529     19.183682     19.183682     38.367364
     -3.518519     16.876213     16.876213     33.752426
     -3.508509     14.681072     14.681072     29.362144
     -3.498498     12.567791     12.567791     25.135582
     -3.488488     10.696778     10.696778     21.393557
     -3.478478      9.380840      9.380840     18.761681
     -3.468468      8.975693      8.975693     17.951386
     -3.458458      9.738117      9.738117     19.476233
     -3.448448     11.697777     11.697777     23.395553
     -3.438438     14.585949     14.585949     29.171897
     -3.428428     17.856015     17.856015     35.712030
     -3.418418     20.810520     20.810520     41.621040
     -3.408408     22.811371     22.811371     45.622742
     -3.398398     23.504076     23.504076     47.008153
     -3.388388     22.962793     22.962793     45.925586
     -3.378378     21.685849     21.685849     43.371698
     -3.368368     20.436889     20.436889     40.873779
     -3.358358     19.997286     19.997286     39.994572
     -3.348348     20.927436     20.927436     41.854873
     -3.338338     23.412755     23.412755     46.825510
     -3.328328     27.218893     27.218893     54.437786
     -3.318318     31.740937     31.740937     63.481873
     -3.308308     36.124558     36.124558     72.249116
     -3.298298     39.448107     39.448107     78.896214
     -3.288288     40.950042     40.950042     81.900083
     -3.278278     40.252343     40.252343     80.504686
     -3.268268     37.494034     37.494034     74.988069
     -3.258258     33.295283     33.295283     66.590566
     -3.248248     28.540512     28.540512     57.081024
     -3.238238     24.064447     24.064447     48.128894
     -3.228228     20.383140     20.383140     40.766280
     -3.218218     17.589433     17.589433     35.178866
     -3.208208     15.442300     15.442300     30.884600
     -3.198198     13.580596     13.580596     27.161192
     -3.188188     11.743082     11.743082     23.486165
     -3.178178      9.898047      9.898047     19.796094
     -3.168168      8.251214      8.251214     16.502429
     -3.158158      7.162616      7.162616     14.325231
     -3.148148      7.027695      7.027695     14.055389
     -3.138138      8.164083      8.164083     16.328166
     -3.128128     10.718416     10.718416     21.436832
     -3.118118     14.595102     14.595102     29.190204
     -3.108108     19.418869     19.418869     38.837738
     -3.098098     24.558660     24.558660     49.117319
     -3.088088     29.236658     29.236658     58.473315
     -3.078078     32.712292     32.712292     65.424584
     -3.068068     34.483228     34.483228     68.966456
     -3.058058     34.418389     34.418389     68.836777
     -3.048048     32.758811     32.758811     65.517623
     -3.038038     29.986351     29.986351     59.972703
     -3.028028     26.630194     26.630194     53.260388
     -3.018018     23.111010     23.111010     46.222019
     -3.008008     19.692221     19.692221     39.384442
     -2.997998     16.538933     16.538933     33.077866
     -2.987988     13.824272     13.824272     27.648545
     -2.977978     11.806525     11.806525     23.613051
     -2.967968     10.829688     10.829688     21.659376
     -2.957958     11.247005     11.247005     22.494010
     -2.947948     13.301542     13.301542     26.603085
     -2.937938     17.009038     17.009038     34.018076
     -2.927928     22.083776     22.083776     44.167551
     -2.917918     27.938079     27.938079     55.876158
     -2.907908     33.771004     33.771004     67.542007
     -2.897898     38.737229     38.737229     77.474459
     -2.887888     42.154432     42.154432     84.308864
     -2.877878     43.680286     43.680286     87.360573
     -2.867868     43.387942     43.387942     86.775884
     -2.857858     41.701851     41.701851     83.403703
     -2.847848     39.214800     39.214800     78.429599
     -2.837838     36.463746     36.463746     72.927491
     -2.827828     33.764182     33.764182     67.528363
     -2.817818     31.173752     31.173752     62.347505
     -2.807808     28.588507     28.588507     57.177014
     -2.797798     25.906175     25.906175     51.812350
     -2.787788     23.159635     23.159635     46.319271
     -2.777778     20.547891     20.547891     41.095781
     -2.767768     18.356147     18.356147     36.712294
     -2.757758     16.822404     16.822404     33.644808
     -2.747748     16.036205     16.036205     32.072410
     -2.737738     15.929561     15.929561     31.859122
     -2.727728     16.356901     16.356901     32.713803
     -2.717718     17.200870     17.200870     34.401741
     -2.707708     18.424390     18.424390     36.848779
     -2.697698     20.030159     20.030159     40.060317
     -2.687688     21.960422     21.960422     43.920844
     -2.677678     24.021217     24.021217     48.042434
     -2.667668     25.905503     25.905503     51.811005
     -2.657658     27.320686     27.320686     54.641372
     -2.647648     28.145995     28.145995     56.291989
     -2.637638     28.514134     28.514134     57.028268
     -2.627628     28.755773     28.755773     57.511546
     -2.617618     29.234251     29.234251     58.468503
     -2.607608     30.166769     30.166769     60.333537
     -2.597598     31.528867     31.528867     63.057734
     -2.587588     33.076496     33.076496     66.152993
     -2.577578     34.446490     34.446490     68.892980
     -2.567568     35.266153     35.266153     70.532307
     -2.557558     35.228696     35.228696     70.457392
     -2.547548     34.139107     34.139107     68.278214
     -2.537538     31.958132     31.958132     63.916264
     -2.527528     28.853055     28.853055     57.706109
     -2.517518     25.227135     25.227135     50.454269
     -2.507508     21.683952     21.683952     43.367905
     -2.497497     18.906620     18.906620     37.813241
     -2.487487     17.478753     17.478753     34.957506
     -2.477477     17.711624     17.711624     35.423249
     -2.467467     19.547595     19.547595     39.095190
     -2.457457     22.582753     22.582753     45.165505
     -2.447447     26.205811     26.205811     52.411622
     -2.437437     29.803761     29.803761     59.607523
     -2.427427     32.954344     32.954344     65.908689
     -2.417417     35.524911     35.524911     71.049822
     -2.407407     37.632112     37.632112     75.264225
     -2.397397     39.477976     39.477976     78.955953
     -2.387387     41.140415     41.140415     82.280829
     -2.377377     42.428163     42.428163     84.856325
     -2.367367     42.888484     42.888484     85.776968
     -2.357357     41.982641     41.982641     83.965283
     -2.347347     39.352990     39.352990     78.705981
     -2.337337     35.049054     35.049054     70.098107
     -2.327327     29.596300     29.596300     59.192599
     -2.317317     23.873972     23.873972     47.747944
     -2.307307     18.865611     18.865611     37.731221
     -2.297297     15.398026     15.398026     30.796052
     -2.287287     13.967267     13.967267     27.934534
     -2.277277     14.687954     14.687954     29.375908
     -2.267267     17.342027     17.342027     34.684054
     -2.257257     21.476039     21.476039     42.952077
     -2.247247     26.502992     26.502992     53.005983
     -2.237237     31.786372     31.786372     63.572744
     -2.227227     36.702863     36.702863     73.405727
     -2.217217     40.690258     40.690258     81.380515
     -2.207207     43.290367     43.290367     86.580735
     -2.197197     44.195521     44.195521     88.391043
     -2.187187     43.300234     43.300234     86.600468
     -2.177177     40.745805     40.745805     81.491609
     -2.167167     36.930498     36.930498     73.860996
     -2.157157     32.455263     32.455263     64.910526
     -2.147147     27.996486     27.996486     55.992971
     -2.137137     24.138025     24.138025     48.276049
     -2.127127     21.228634     21.228634     42.457269
     -2.117117     19.328206     19.328206     38.656413
     -2.107107     18.261037     18.261037     36.522073
     -2.097097     17.735028     17.735028     35.470056
     -2.087087     17.455241     17.455241     34.910482
     -2.077077     17.180253     17.180253     34.360506
     -2.067067     16.721655     16.721655     33.443310
     -2.057057     15.927657     15.927657     31.855315
     -2.047047     14.690663     14.690663     29.381326
     -2.037037     12.982905     12.982905     25.965810
     -2.027027     10.889007     10.889007     21.778014
     -2.017017      8.600187      8.600187     17.200374
     -2.007007      6.362234      6.362234     12.724468
     -1.996997      4.402788      4.402788      8.805577
     -1.986987      2.876273      2.876273      5.752545
     -1.976977      1.850876      1.850876      3.701753
     -1.966967      1.335460      1.335460      2.670920
     -1.956957      1.323822      1.323822      2.647645
     -1.946947      1.828925      1.828925      3.657850
     -1.936937      2.888264      2.888264      5.776527
     -1.926927      4.536769      4.536769      9.073538
     -1.916917      6.759161      6.759161     13.518322
     -1.906907      9.444652      9.444652     18.889303
     -1.896897     12.368635     12.368635     24.737269
     -1.886887     15.216199     15.216199     30.432398
     -1.876877     17.644471     17.644471     35.288942
     -1.866867     19.364218     19.364218     38.728435
     -1.856857     20.214023     20.214023     40.428045
     -1.846847     20.203631     20.203631     40.407261
     -1.836837     19.511451     19.511451     39.022901
     -1.826827     18.431204     18.431204     36.862407
     -1.816817     17.276554     17.276554     34.553108
     -1.806807     16.271734     16.271734     32.543467
     -1.796797     15.472264     15.472264     30.944529
     -1.786787     14.756733     14.756733     29.513466
     -1.776777     13.900295     13.900295     27.800591
     -1.766767     12.696644     12.696644     25.393288
     -1.756757     11.066687     11.066687     22.133374
     -1.746747      9.100668      9.100668     18.201336
     -1.736737      7.020960      7.020960     14.041919
     -1.726727      5.097029      5.097029     10.194058
     -1.716717      3.563271      3.563271      7.126542
     -1.706707      2.576188      2.576188      5.152376
     -1.696697      2.214711      2.214711      4.429423
     -1.686687      2.500207      2.500207      5.000414
     -1.676677      3.406540      3.406540      6.813080
     -1.666667      4.846036      4.846036      9.692072
     -1.656657      6.642365      6.642365     13.284731
     -1.646647      8.520020      8.520020     17.040040
     -1.636637     10.139226     10.139226     20.278452
     -1.626627     11.182713     11.182713     22.365425
