# EIG2DOS: Utility for SIESTA to obtain the electronic density of states
#  E. Artacho, Apr 1999, A. Garcia, Apr 2012
#  Nick R. Papior, Feb 2017
# ------------------------------------------
# Eigenvalues calculated from a non-polarized calculation
# Eigenvalues read from siesta.EIG
# Kpoint weights read from siesta.KP
# Using smearing parameter:   0.0500
# Using 1000 points in the energy range
# Selected bands: 1 to: 2981
# Emin, Emax in file for selected band(s):    -27.1823432    218.3427600
# Nbands, Nspin, Nk   =   2981     1     1
# E_F                 =    -4.2669 eV --> (shifted to ZERO)
# Broadening          =     0.0500 eV
#
#        E            N(up)  (=)   N(down)         Ntot
     -5.000000     35.101979     35.101979     70.203958
     -4.989990     38.527972     38.527972     77.055944
     -4.979980     41.464094     41.464094     82.928188
     -4.969970     43.382312     43.382312     86.764624
     -4.959960     43.920612     43.920612     87.841225
     -4.949950     42.978573     42.978573     85.957146
     -4.939940     40.746005     40.746005     81.492009
     -4.929930     37.668615     37.668615     75.337230
     -4.919920     34.376942     34.376942     68.753883
     -4.909910     31.602942     31.602942     63.205883
     -4.899900     30.085881     30.085881     60.171763
     -4.889890     30.447976     30.447976     60.895953
     -4.879880     33.027709     33.027709     66.055419
     -4.869870     37.702395     37.702395     75.404791
     -4.859860     43.784232     43.784232     87.568463
     -4.849850     50.087082     50.087082    100.174163
     -4.839840     55.202991     55.202991    110.405982
     -4.829830     57.917320     57.917320    115.834640
     -4.819820     57.596729     57.596729    115.193457
     -4.809810     54.374791     54.374791    108.749583
     -4.799800     49.053074     49.053074     98.106148
     -4.789790     42.777228     42.777228     85.554456
     -4.779780     36.649611     36.649611     73.299223
     -4.769770     31.443811     31.443811     62.887623
     -4.759760     27.503898     27.503898     55.007796
     -4.749750     24.807192     24.807192     49.614384
     -4.739740     23.107544     23.107544     46.215088
     -4.729730     22.075980     22.075980     44.151960
     -4.719720     21.393238     21.393238     42.786477
     -4.709710     20.789554     20.789554     41.579107
     -4.699700     20.052363     20.052363     40.104727
     -4.689690     19.030596     19.030596     38.061192
     -4.679680     17.657589     17.657589     35.315177
     -4.669670     15.996192     15.996192     31.992383
     -4.659660     14.286689     14.286689     28.573378
     -4.649650     12.963806     12.963806     25.927611
     -4.639640     12.612655     12.612655     25.225309
     -4.629630     13.853050     13.853050     27.706100
     -4.619620     17.167744     17.167744     34.335487
     -4.609610     22.715461     22.715461     45.430922
     -4.599600     30.189978     30.189978     60.379957
     -4.589590     38.793081     38.793081     77.586163
     -4.579580     47.367217     47.367217     94.734434
     -4.569570     54.676381     54.676381    109.352761
     -4.559560     59.750815     59.750815    119.501629
     -4.549550     62.164838     62.164838    124.329677
     -4.539540     62.133231     62.133231    124.266461
     -4.529530     60.387965     60.387965    120.775930
     -4.519520     57.891956     57.891956    115.783912
     -4.509510     55.508643     55.508643    111.017287
     -4.499499     53.749598     53.749598    107.499197
     -4.489489     52.676189     52.676189    105.352378
     -4.479479     51.964966     51.964966    103.929932
     -4.469469     51.088622     51.088622    102.177244
     -4.459459     49.532993     49.532993     99.065986
     -4.449449     46.972069     46.972069     93.944138
     -4.439439     43.353062     43.353062     86.706124
     -4.429429     38.887435     38.887435     77.774870
     -4.419419     33.979828     33.979828     67.959656
     -4.409409     29.137724     29.137724     58.275448
     -4.399399     24.888764     24.888764     49.777528
     -4.389389     21.706862     21.706862     43.413725
     -4.379379     19.936148     19.936148     39.872296
     -4.369369     19.714079     19.714079     39.428158
     -4.359359     20.919803     20.919803     41.839605
     -4.349349     23.185401     23.185401     46.370802
     -4.339339     25.989289     25.989289     51.978577
     -4.329329     28.810100     28.810100     57.620200
     -4.319319     31.283075     31.283075     62.566150
     -4.309309     33.294520     33.294520     66.589041
     -4.299299     34.977423     34.977423     69.954845
     -4.289289     36.613862     36.613862     73.227723
     -4.279279     38.482999     38.482999     76.965998
     -4.269269     40.706353     40.706353     81.412705
     -4.259259     43.140807     43.140807     86.281614
     -4.249249     45.362532     45.362532     90.725063
     -4.239239     46.767652     46.767652     93.535305
     -4.229229     46.777321     46.777321     93.554642
     -4.219219     45.079799     45.079799     90.159599
     -4.209209     41.801291     41.801291     83.602583
     -4.199199     37.509781     37.509781     75.019561
     -4.189189     33.031806     33.031806     66.063611
     -4.179179     29.161791     29.161791     58.323582
     -4.169169     26.403165     26.403165     52.806329
     -4.159159     24.860294     24.860294     49.720587
     -4.149149     24.315220     24.315220     48.630439
     -4.139139     24.428158     24.428158     48.856315
     -4.129129     24.947818     24.947818     49.895636
     -4.119119     25.825245     25.825245     51.650491
     -4.109109     27.179032     27.179032     54.358063
     -4.099099     29.133492     29.133492     58.266984
     -4.089089     31.617278     31.617278     63.234557
     -4.079079     34.240725     34.240725     68.481451
     -4.069069     36.343294     36.343294     72.686588
     -4.059059     37.217909     37.217909     74.435818
     -4.049049     36.415375     36.415375     72.830750
     -4.039039     33.973175     33.973175     67.946350
     -4.029029     30.444109     30.444109     60.888217
     -4.019019     26.708495     26.708495     53.416990
     -4.009009     23.670892     23.670892     47.341784
     -3.998999     21.993507     21.993507     43.987013
     -3.988989     21.976556     21.976556     43.953111
     -3.978979     23.597719     23.597719     47.195438
     -3.968969     26.638105     26.638105     53.276211
     -3.958959     30.801341     30.801341     61.602682
     -3.948949     35.775021     35.775021     71.550041
     -3.938939     41.245693     41.245693     82.491386
     -3.928929     46.909681     46.909681     93.819363
     -3.918919     52.504213     52.504213    105.008426
     -3.908909     57.840857     57.840857    115.681713
     -3.898899     62.799009     62.799009    125.598017
     -3.888889     67.256080     67.256080    134.512160
     -3.878879     70.980789     70.980789    141.961577
     -3.868869     73.558452     73.558452    147.116905
     -3.858859     74.418277     74.418277    148.836555
     -3.848849     72.985983     72.985983    145.971967
     -3.838839     68.915330     68.915330    137.830659
     -3.828829     62.299227     62.299227    124.598453
     -3.818819     53.756893     53.756893    107.513787
     -3.808809     44.342921     44.342921     88.685842
     -3.798799     35.301704     35.301704     70.603409
     -3.788789     27.755729     27.755729     55.511457
     -3.778779     22.437274     22.437274     44.874547
     -3.768769     19.546110     19.546110     39.092220
     -3.758759     18.762078     18.762078     37.524156
     -3.748749     19.390050     19.390050     38.780100
     -3.738739     20.583862     20.583862     41.167724
     -3.728729     21.586967     21.586967     43.173934
     -3.718719     21.932904     21.932904     43.865808
     -3.708709     21.560650     21.560650     43.121300
     -3.698699     20.816256     20.816256     41.632511
     -3.688689     20.334473     20.334473     40.668945
     -3.678679     20.823526     20.823526     41.647052
     -3.668669     22.809006     22.809006     45.618012
     -3.658659     26.417811     26.417811     52.835622
     -3.648649     31.283908     31.283908     62.567817
     -3.638639     36.622580     36.622580     73.245160
     -3.628629     41.454584     41.454584     82.909169
     -3.618619     44.895132     44.895132     89.790263
     -3.608609     46.393360     46.393360     92.786720
     -3.598599     45.837038     45.837038     91.674077
     -3.588589     43.507386     43.507386     87.014772
     -3.578579     39.934781     39.934781     79.869562
     -3.568569     35.729289     35.729289     71.458577
     -3.558559     31.438893     31.438893     62.877785
     -3.548549     27.454183     27.454183     54.908366
     -3.538539     23.961263     23.961263     47.922527
     -3.528529     20.946876     20.946876     41.893752
     -3.518519     18.259978     18.259978     36.519956
     -3.508509     15.716754     15.716754     31.433509
     -3.498498     13.210707     13.210707     26.421413
     -3.488488     10.780170     10.780170     21.560340
     -3.478478      8.604905      8.604905     17.209810
     -3.468468      6.938881      6.938881     13.877762
     -3.458458      6.013214      6.013214     12.026427
     -3.448448      5.947498      5.947498     11.894995
     -3.438438      6.695770      6.695770     13.391540
     -3.428428      8.040148      8.040148     16.080296
     -3.418418      9.637290      9.637290     19.274580
     -3.408408     11.113826     11.113826     22.227653
     -3.398398     12.189555     12.189555     24.379110
     -3.388388     12.786801     12.786801     25.573602
     -3.378378     13.077868     13.077868     26.155735
     -3.368368     13.442541     13.442541     26.885081
     -3.358358     14.347186     14.347186     28.694372
     -3.348348     16.191700     16.191700     32.383400
     -3.338338     19.177799     19.177799     38.355599
     -3.328328     23.231066     23.231066     46.462133
     -3.318318     27.981497     27.981497     55.962994
     -3.308308     32.797082     32.797082     65.594165
     -3.298298     36.874236     36.874236     73.748473
     -3.288288     39.394508     39.394508     78.789016
     -3.278278     39.734803     39.734803     79.469606
     -3.268268     37.673084     37.673084     75.346168
     -3.258258     33.500677     33.500677     67.001354
     -3.248248     27.973276     27.973276     55.946553
     -3.238238     22.103953     22.103953     44.207906
     -3.228228     16.878101     16.878101     33.756202
     -3.218218     13.001308     13.001308     26.002615
     -3.208208     10.762349     10.762349     21.524698
     -3.198198     10.034114     10.034114     20.068228
     -3.188188     10.386489     10.386489     20.772977
     -3.178178     11.265268     11.265268     22.530536
     -3.168168     12.189734     12.189734     24.379468
     -3.158158     12.921518     12.921518     25.843035
     -3.148148     13.556201     13.556201     27.112403
     -3.138138     14.498478     14.498478     28.996956
     -3.128128     16.311511     16.311511     32.623022
     -3.118118     19.476654     19.476654     38.953309
     -3.108108     24.142986     24.142986     48.285971
     -3.098098     29.966221     29.966221     59.932443
     -3.088088     36.118418     36.118418     72.236836
     -3.078078     41.490923     41.490923     82.981847
     -3.068068     45.029895     45.029895     90.059789
     -3.058058     46.073429     46.073429     92.146857
     -3.048048     44.545409     44.545409     89.090819
     -3.038038     40.923427     40.923427     81.846855
     -3.028028     36.009833     36.009833     72.019666
     -3.018018     30.631598     30.631598     61.263196
     -3.008008     25.416693     25.416693     50.833386
     -2.997998     20.731911     20.731911     41.463822
     -2.987988     16.766001     16.766001     33.532003
     -2.977978     13.668974     13.668974     27.337948
     -2.967968     11.650682     11.650682     23.301364
     -2.957958     10.987090     10.987090     21.974180
     -2.947948     11.940183     11.940183     23.880366
     -2.937938     14.634407     14.634407     29.268814
     -2.927928     18.942450     18.942450     37.884900
     -2.917918     24.426993     24.426993     48.853987
     -2.907908     30.371114     30.371114     60.742229
     -2.897898     35.906824     35.906824     71.813649
     -2.887888     40.216635     40.216635     80.433270
     -2.877878     42.746291     42.746291     85.492582
     -2.867868     43.348311     43.348311     86.696623
     -2.857858     42.293164     42.293164     84.586328
     -2.847848     40.137067     40.137067     80.274135
     -2.837838     37.499622     37.499622     74.999244
     -2.827828     34.847352     34.847352     69.694705
     -2.817818     32.376088     32.376088     64.752175
     -2.807808     30.035258     30.035258     60.070517
     -2.797798     27.665708     27.665708     55.331415
     -2.787788     25.167376     25.167376     50.334751
     -2.777778     22.603953     22.603953     45.207906
     -2.767768     20.192995     20.192995     40.385990
     -2.757758     18.198346     18.198346     36.396692
     -2.747748     16.797873     16.797873     33.595746
     -2.737738     16.010602     16.010602     32.021204
     -2.727728     15.726615     15.726615     31.453230
     -2.717718     15.814997     15.814997     31.629994
     -2.707708     16.232588     16.232588     32.465175
     -2.697698     17.054469     17.054469     34.108937
     -2.687688     18.399649     18.399649     36.799299
     -2.677678     20.299370     20.299370     40.598741
     -2.667668     22.600759     22.600759     45.201519
     -2.657658     24.981416     24.981416     49.962833
     -2.647648     27.078730     27.078730     54.157461
     -2.637638     28.658703     28.658703     57.317406
     -2.627628     29.718661     29.718661     59.437321
     -2.617618     30.460088     30.460088     60.920176
     -2.607608     31.153157     31.153157     62.306314
     -2.597598     31.981518     31.981518     63.963036
     -2.587588     32.957040     32.957040     65.914081
     -2.577578     33.934056     33.934056     67.868112
     -2.567568     34.683716     34.683716     69.367432
     -2.557558     34.965842     34.965842     69.931684
     -2.547548     34.568559     34.568559     69.137119
     -2.537538     33.335164     33.335164     66.670328
     -2.527528     31.212857     31.212857     62.425715
     -2.517518     28.325550     28.325550     56.651099
     -2.507508     25.026254     25.026254     50.052508
     -2.497497     21.870534     21.870534     43.741067
     -2.487487     19.488379     19.488379     38.976758
     -2.477477     18.393018     18.393018     36.786037
     -2.467467     18.808640     18.808640     37.617280
     -2.457457     20.597560     20.597560     41.195120
     -2.447447     23.323599     23.323599     46.647198
     -2.437437     26.426576     26.426576     52.853152
     -2.427427     29.432109     29.432109     58.864218
     -2.417417     32.103544     32.103544     64.207088
     -2.407407     34.467326     34.467326     68.934653
     -2.397397     36.700485     36.700485     73.400971
     -2.387387     38.934735     38.934735     77.869469
     -2.377377     41.075668     41.075668     82.151336
     -2.367367     42.735135     42.735135     85.470269
     -2.357357     43.326290     43.326290     86.652580
     -2.347347     42.292768     42.292768     84.585536
     -2.337337     39.372497     39.372497     78.744995
     -2.327327     34.771985     34.771985     69.543969
     -2.317317     29.166466     29.166466     58.332931
     -2.307307     23.525655     23.525655     47.051310
     -2.297297     18.845175     18.845175     37.690350
     -2.287287     15.894890     15.894890     31.789779
     -2.277277     15.067428     15.067428     30.134857
     -2.267267     16.351208     16.351208     32.702416
     -2.257257     19.401624     19.401624     38.803248
     -2.247247     23.662765     23.662765     47.325531
     -2.237237     28.495553     28.495553     56.991107
     -2.227227     33.281723     33.281723     66.563447
     -2.217217     37.487752     37.487752     74.975503
     -2.207207     40.688803     40.688803     81.377605
     -2.197197     42.569795     42.569795     85.139590
     -2.187187     42.930953     42.930953     85.861906
     -2.177177     41.717608     41.717608     83.435216
     -2.167167     39.066763     39.066763     78.133527
     -2.157157     35.332188     35.332188     70.664376
     -2.147147     31.042083     31.042083     62.084166
     -2.137137     26.773923     26.773923     53.547845
     -2.127127     22.985648     22.985648     45.971296
     -2.117117     19.882480     19.882480     39.764961
     -2.107107     17.390239     17.390239     34.780478
     -2.097097     15.249399     15.249399     30.498799
     -2.087087     13.176271     13.176271     26.352542
     -2.077077     11.004487     11.004487     22.008974
     -2.067067      8.741135      8.741135     17.482269
     -2.057057      6.528009      6.528009     13.056018
     -2.047047      4.549559      4.549559      9.099117
     -2.037037      2.945552      2.945552      5.891104
     -2.027027      1.767292      1.767292      3.534585
     -2.017017      0.982617      0.982617      1.965234
     -2.007007      0.510507      0.510507      1.021015
     -1.996997      0.260882      0.260882      0.521765
     -1.986987      0.164183      0.164183      0.328366
     -1.976977      0.187502      0.187502      0.375004
     -1.966967      0.341075      0.341075      0.682149
     -1.956957      0.678890      0.678890      1.357781
     -1.946947      1.292854      1.292854      2.585708
     -1.936937      2.295951      2.295951      4.591903
     -1.926927      3.790504      3.790504      7.581007
     -1.916917      5.824396      5.824396     11.648792
     -1.906907      8.348385      8.348385     16.696770
     -1.896897     11.194398     11.194398     22.388797
     -1.886887     14.091499     14.091499     28.182999
     -1.876877     16.722228     16.722228     33.444455
     -1.866867     18.804771     18.804771     37.609543
     -1.856857     20.175548     20.175548     40.351096
     -1.846847     20.846006     20.846006     41.692011
     -1.836837     21.012825     21.012825     42.025649
     -1.826827     21.008165     21.008165     42.016331
     -1.816817     21.189526     21.189526     42.379052
     -1.806807     21.793094     21.793094     43.586187
     -1.796797     22.804770     22.804770     45.609541
     -1.786787     23.917176     23.917176     47.834353
     -1.776777     24.615764     24.615764     49.231529
     -1.766767     24.374353     24.374353     48.748705
     -1.756757     22.875151     22.875151     45.750301
     -1.746747     20.146890     20.146890     40.293780
     -1.736737     16.556546     16.556546     33.113091
     -1.726727     12.669724     12.669724     25.339447
     -1.716717      9.059959      9.059959     18.119917
     -1.706707      6.158858      6.158858     12.317716
     -1.696697      4.198092      4.198092      8.396184
     -1.686687      3.234657      3.234657      6.469315
     -1.676677      3.211182      3.211182      6.422364
     -1.666667      4.001235      4.001235      8.002470
     -1.656657      5.417934      5.417934     10.835867
     -1.646647      7.200270      7.200270     14.400539
     -1.636637      9.013073      9.013073     18.026147
     -1.626627     10.491433     10.491433     20.982866
