# EIG2DOS: Utility for SIESTA to obtain the electronic density of states
#  E. Artacho, Apr 1999, A. Garcia, Apr 2012
#  Nick R. Papior, Feb 2017
# ------------------------------------------
# Eigenvalues calculated from a non-polarized calculation
# Eigenvalues read from siesta.EIG
# Kpoint weights read from siesta.KP
# Using smearing parameter:   0.0500
# Using 1000 points in the energy range
# Selected bands: 1 to: 2981
# Emin, Emax in file for selected band(s):    -27.3795010    218.3877750
# Nbands, Nspin, Nk   =   2981     1     1
# E_F                 =    -4.2244 eV --> (shifted to ZERO)
# Broadening          =     0.0500 eV
#
#        E            N(up)  (=)   N(down)         Ntot
     -5.000000     34.861922     34.861922     69.723845
     -4.989990     39.051020     39.051020     78.102040
     -4.979980     42.480195     42.480195     84.960390
     -4.969970     44.590870     44.590870     89.181739
     -4.959960     45.027881     45.027881     90.055761
     -4.949950     43.755538     43.755538     87.511075
     -4.939940     41.078319     41.078319     82.156638
     -4.929930     37.576287     37.576287     75.152575
     -4.919920     33.997234     33.997234     67.994469
     -4.909910     31.143364     31.143364     62.286729
     -4.899900     29.759809     29.759809     59.519617
     -4.889890     30.407134     30.407134     60.814269
     -4.879880     33.309350     33.309350     66.618700
     -4.869870     38.212961     38.212961     76.425921
     -4.859860     44.336551     44.336551     88.673101
     -4.849850     50.488459     50.488459    100.976917
     -4.839840     55.364176     55.364176    110.728352
     -4.829830     57.935908     57.935908    115.871815
     -4.819820     57.777441     57.777441    115.554882
     -4.809810     55.179188     55.179188    110.358376
     -4.799800     51.001470     51.001470    102.002940
     -4.789790     46.336009     46.336009     92.672018
     -4.779780     42.126817     42.126817     84.253634
     -4.769770     38.902454     38.902454     77.804908
     -4.759760     36.703265     36.703265     73.406531
     -4.749750     35.195039     35.195039     70.390077
     -4.739740     33.889797     33.889797     67.779594
     -4.729730     32.367954     32.367954     64.735909
     -4.719720     30.414616     30.414616     60.829231
     -4.709710     28.034138     28.034138     56.068277
     -4.699700     25.369621     25.369621     50.739243
     -4.689690     22.598466     22.598466     45.196933
     -4.679680     19.876799     19.876799     39.753599
     -4.669670     17.362809     17.362809     34.725617
     -4.659660     15.289701     15.289701     30.579402
     -4.649650     14.021685     14.021685     28.043369
     -4.639640     14.032459     14.032459     28.064918
     -4.629630     15.786857     15.786857     31.573714
     -4.619620     19.557016     19.557016     39.114031
     -4.609610     25.242065     25.242065     50.484130
     -4.599600     32.272956     32.272956     64.545913
     -4.589590     39.666288     39.666288     79.332576
     -4.579580     46.242002     46.242002     92.484004
     -4.569570     50.951001     50.951001    101.902002
     -4.559560     53.198860     53.198860    106.397719
     -4.549550     53.035793     53.035793    106.071586
     -4.539540     51.127844     51.127844    102.255689
     -4.529530     48.512885     48.512885     97.025771
     -4.519520     46.234821     46.234821     92.469643
     -4.509510     44.997267     44.997267     89.994534
     -4.499499     44.964054     44.964054     89.928108
     -4.489489     45.768192     45.768192     91.536385
     -4.479479     46.704935     46.704935     93.409870
     -4.469469     47.015998     47.015998     94.031997
     -4.459459     46.148440     46.148440     92.296880
     -4.449449     43.899598     43.899598     87.799196
     -4.439439     40.421345     40.421345     80.842690
     -4.429429     36.120110     36.120110     72.240221
     -4.419419     31.522411     31.522411     63.044823
     -4.409409     27.165836     27.165836     54.331673
     -4.399399     23.535151     23.535151     47.070303
     -4.389389     21.023533     21.023533     42.047066
     -4.379379     19.888447     19.888447     39.776894
     -4.369369     20.195400     20.195400     40.390801
     -4.359359     21.777936     21.777936     43.555872
     -4.349349     24.256301     24.256301     48.512603
     -4.339339     27.134597     27.134597     54.269194
     -4.329329     29.950959     29.950959     59.901918
     -4.319319     32.419461     32.419461     64.838921
     -4.309309     34.500623     34.500623     69.001247
     -4.299299     36.369396     36.369396     72.738793
     -4.289289     38.293823     38.293823     76.587646
     -4.279279     40.471228     40.471228     80.942455
     -4.269269     42.882432     42.882432     85.764864
     -4.259259     45.221504     45.221504     90.443007
     -4.249249     46.941490     46.941490     93.882981
     -4.239239     47.421678     47.421678     94.843356
     -4.229229     46.209615     46.209615     92.419230
     -4.219219     43.241341     43.241341     86.482681
     -4.209209     38.931087     38.931087     77.862173
     -4.199199     34.070130     34.070130     68.140260
     -4.189189     29.566941     29.566941     59.133881
     -4.179179     26.144391     26.144391     52.288782
     -4.169169     24.131995     24.131995     48.263990
     -4.159159     23.438723     23.438723     46.877445
     -4.149149     23.698848     23.698848     47.397695
     -4.139139     24.503115     24.503115     49.006230
     -4.129129     25.597365     25.597365     51.194730
     -4.119119     26.956022     26.956022     53.912044
     -4.109109     28.700962     28.700962     57.401924
     -4.099099     30.911503     30.911503     61.823006
     -4.089089     33.430480     33.430480     66.860959
     -4.079079     35.785586     35.785586     71.571171
     -4.069069     37.296200     37.296200     74.592399
     -4.059059     37.337282     37.337282     74.674565
     -4.049049     35.635291     35.635291     71.270583
     -4.039039     32.439699     32.439699     64.879398
     -4.029029     28.475194     28.475194     56.950388
     -4.019019     24.698984     24.698984     49.397968
     -4.009009     21.988835     21.988835     43.977670
     -3.998999     20.908774     20.908774     41.817548
     -3.988989     21.636046     21.636046     43.272092
     -3.978979     24.035184     24.035184     48.070369
     -3.968969     27.797420     27.797420     55.594839
     -3.958959     32.560477     32.560477     65.120953
     -3.948949     37.971249     37.971249     75.942497
     -3.938939     43.706860     43.706860     87.413719
     -3.928929     49.488252     49.488252     98.976504
     -3.918919     55.098864     55.098864    110.197729
     -3.908909     60.388124     60.388124    120.776247
     -3.898899     65.231563     65.231563    130.463126
     -3.888889     69.447788     69.447788    138.895577
     -3.878879     72.714979     72.714979    145.429957
     -3.868869     74.550369     74.550369    149.100737
     -3.858859     74.395186     74.395186    148.790372
     -3.848849     71.794411     71.794411    143.588822
     -3.838839     66.605813     66.605813    133.211627
     -3.828829     59.146848     59.146848    118.293695
     -3.818819     50.205718     50.205718    100.411437
     -3.808809     40.896338     40.896338     81.792676
     -3.798799     32.400407     32.400407     64.800813
     -3.788789     25.683566     25.683566     51.367133
     -3.778779     21.278098     21.278098     42.556196
     -3.768769     19.194133     19.194133     38.388266
     -3.758759     18.973740     18.973740     37.947480
     -3.748749     19.859456     19.859456     39.718912
     -3.738739     21.023654     21.023654     42.047308
     -3.728729     21.798311     21.798311     43.596623
     -3.718719     21.850566     21.850566     43.701132
     -3.708709     21.262746     21.262746     42.525492
     -3.698699     20.494602     20.494602     40.989205
     -3.688689     20.230801     20.230801     40.461603
     -3.678679     21.147609     21.147609     42.295218
     -3.668669     23.663275     23.663275     47.326551
     -3.658659     27.754485     27.754485     55.508970
     -3.648649     32.911442     32.911442     65.822884
     -3.638639     38.259774     38.259774     76.519547
     -3.628629     42.810798     42.810798     85.621596
     -3.618619     45.744832     45.744832     91.489664
     -3.608609     46.619333     46.619333     93.238665
     -3.598599     45.435065     45.435065     90.870131
     -3.588589     42.563424     42.563424     85.126849
     -3.578579     38.592208     38.592208     77.184416
     -3.568569     34.157652     34.157652     68.315305
     -3.558559     29.806043     29.806043     59.612086
     -3.548549     25.900489     25.900489     51.800979
     -3.538539     22.579195     22.579195     45.158390
     -3.528529     19.774183     19.774183     39.548366
     -3.518519     17.292817     17.292817     34.585633
     -3.508509     14.940616     14.940616     29.881232
     -3.498498     12.638989     12.638989     25.277978
     -3.488488     10.488797     10.488797     20.977595
     -3.478478      8.755722      8.755722     17.511444
     -3.468468      7.788144      7.788144     15.576289
     -3.458458      7.899772      7.899772     15.799544
     -3.448448      9.251022      9.251022     18.502043
     -3.438438     11.757526     11.757526     23.515052
     -3.428428     15.053744     15.053744     30.107487
     -3.418418     18.540429     18.540429     37.080858
     -3.408408     21.529096     21.529096     43.058192
     -3.398398     23.455860     23.455860     46.911720
     -3.388388     24.089203     24.089203     48.178406
     -3.378378     23.637667     23.637667     47.275335
     -3.368368     22.698183     22.698183     45.396366
     -3.358358     22.059561     22.059561     44.119121
     -3.348348     22.442821     22.442821     44.885641
     -3.338338     24.278801     24.278801     48.557603
     -3.328328     27.589463     27.589463     55.178926
     -3.318318     31.985587     31.985587     63.971173
     -3.308308     36.758306     36.758306     73.516612
     -3.298298     41.035335     41.035335     82.070670
     -3.288288     43.974983     43.974983     87.949965
     -3.278278     44.961172     44.961172     89.922344
     -3.268268     43.745844     43.745844     87.491689
     -3.258258     40.487669     40.487669     80.975338
     -3.248248     35.672947     35.672947     71.345894
     -3.238238     29.957510     29.957510     59.915020
     -3.228228     23.999536     23.999536     47.999073
     -3.218218     18.341732     18.341732     36.683464
     -3.208208     13.361911     13.361911     26.723822
     -3.198198      9.276646      9.276646     18.553293
     -3.188188      6.173116      6.173116     12.346231
     -3.178178      4.053522      4.053522      8.107043
     -3.168168      2.885979      2.885979      5.771958
     -3.158158      2.654593      2.654593      5.309186
     -3.148148      3.393217      3.393217      6.786433
     -3.138138      5.182878      5.182878     10.365755
     -3.128128      8.100445      8.100445     16.200889
     -3.118118     12.126569     12.126569     24.253139
     -3.108108     17.047093     17.047093     34.094186
     -3.098098     22.400060     22.400060     44.800120
     -3.088088     27.514955     27.514955     55.029910
     -3.078078     31.655095     31.655095     63.310190
     -3.068068     34.220217     34.220217     68.440433
     -3.058058     34.924047     34.924047     69.848094
     -3.048048     33.862228     33.862228     67.724455
     -3.038038     31.437521     31.437521     62.875041
     -3.028028     28.185001     28.185001     56.370003
     -3.018018     24.592140     24.592140     49.184280
     -3.008008     21.002677     21.002677     42.005354
     -2.997998     17.634425     17.634425     35.268850
     -2.987988     14.671256     14.671256     29.342512
     -2.977978     12.353830     12.353830     24.707661
     -2.967968     11.007653     11.007653     22.015305
     -2.957958     10.990841     10.990841     21.981683
     -2.947948     12.585033     12.585033     25.170066
     -2.937938     15.872651     15.872651     31.745302
     -2.927928     20.644853     20.644853     41.289707
     -2.917918     26.376868     26.376868     52.753736
     -2.907908     32.293957     32.293957     64.587913
     -2.897898     37.527361     37.527361     75.054721
     -2.887888     41.325060     41.325060     82.650121
     -2.877878     43.249717     43.249717     86.499433
     -2.867868     43.286517     43.286517     86.573033
     -2.857858     41.810597     41.810597     83.621194
     -2.847848     39.421133     39.421133     78.842267
     -2.837838     36.710588     36.710588     73.421175
     -2.827828     34.069776     34.069776     68.139552
     -2.817818     31.612030     31.612030     63.224060
     -2.807808     29.239163     29.239163     58.478326
     -2.797798     26.799761     26.799761     53.599522
     -2.787788     24.246079     24.246079     48.492158
     -2.777778     21.704039     21.704039     43.408077
     -2.767768     19.426114     19.426114     38.852227
     -2.757758     17.666750     17.666750     35.333500
     -2.747748     16.563251     16.563251     33.126502
     -2.737738     16.096157     16.096157     32.192313
     -2.727728     16.147685     16.147685     32.295371
     -2.717718     16.609911     16.609911     33.219822
     -2.707708     17.460333     17.460333     34.920666
     -2.697698     18.746128     18.746128     37.492257
     -2.687688     20.486011     20.486011     40.972021
     -2.677678     22.563974     22.563974     45.127947
     -2.667668     24.703704     24.703704     49.407408
     -2.657658     26.561070     26.561070     53.122140
     -2.647648     27.887957     27.887957     55.775913
     -2.637638     28.664131     28.664131     57.328262
     -2.627628     29.108350     29.108350     58.216701
     -2.617618     29.557483     29.557483     59.114966
     -2.607608     30.287324     30.287324     60.574648
     -2.597598     31.379763     31.379763     62.759526
     -2.587588     32.699253     32.699253     65.398506
     -2.577578     33.964575     33.964575     67.929150
     -2.567568     34.850835     34.850835     69.701670
     -2.557558     35.065121     35.065121     70.130243
     -2.547548     34.387794     34.387794     68.775589
     -2.537538     32.709419     32.709419     65.418837
     -2.527528     30.086207     30.086207     60.172414
     -2.517518     26.795749     26.795749     53.591498
     -2.507508     23.342425     23.342425     46.684850
     -2.497497     20.371998     20.371998     40.743997
     -2.487487     18.503297     18.503297     37.006595
     -2.477477     18.137356     18.137356     36.274712
     -2.467467     19.325939     19.325939     38.651879
     -2.457457     21.760396     21.760396     43.520792
     -2.447447     24.890845     24.890845     49.781690
     -2.437437     28.129277     28.129277     56.258554
     -2.427427     31.052270     31.052270     62.104539
     -2.417417     33.516253     33.516253     67.032505
     -2.407407     35.634022     35.634022     71.268045
     -2.397397     37.622741     37.622741     75.245483
     -2.387387     39.594952     39.594952     79.189904
     -2.377377     41.396819     41.396819     82.793639
     -2.367367     42.583466     42.583466     85.166931
     -2.357357     42.560869     42.560869     85.121737
     -2.347347     40.841373     40.841373     81.682746
     -2.337337     37.296543     37.296543     74.593086
     -2.327327     32.285118     32.285118     64.570236
     -2.317317     26.593750     26.593750     53.187500
     -2.307307     21.220743     21.220743     42.441486
     -2.297297     17.102681     17.102681     34.205362
     -2.287287     14.892849     14.892849     29.785698
     -2.277277     14.854398     14.854398     29.708797
     -2.267267     16.869332     16.869332     33.738665
     -2.257257     20.524221     20.524221     41.048442
     -2.247247     25.226366     25.226366     50.452733
     -2.237237     30.316767     30.316767     60.633533
     -2.227227     35.161297     35.161297     70.322594
     -2.217217     39.212351     39.212351     78.424702
     -2.207207     42.042702     42.042702     84.085405
     -2.197197     43.363489     43.363489     86.726977
     -2.187187     43.043273     43.043273     86.086546
     -2.177177     41.136480     41.136480     82.272960
     -2.167167     37.907354     37.907354     75.814709
     -2.157157     33.815583     33.815583     67.631166
     -2.147147     29.433821     29.433821     58.867642
     -2.137137     25.303155     25.303155     50.606310
     -2.127127     21.780031     21.780031     43.560062
     -2.117117     18.950466     18.950466     37.900931
     -2.107107     16.660919     16.660919     33.321837
     -2.097097     14.652473     14.652473     29.304947
     -2.087087     12.727318     12.727318     25.454636
     -2.077077     10.862086     10.862086     21.724172
     -2.067067      9.217503      9.217503     18.435007
     -2.057057      8.050946      8.050946     16.101893
     -2.047047      7.582195      7.582195     15.164389
     -2.037037      7.874490      7.874490     15.748980
     -2.027027      8.777762      8.777762     17.555523
     -2.017017      9.953657      9.953657     19.907313
     -2.007007     10.973490     10.973490     21.946981
     -1.996997     11.455122     11.455122     22.910243
     -1.986987     11.188902     11.188902     22.377804
     -1.976977     10.205118     10.205118     20.410236
     -1.966967      8.759432      8.759432     17.518864
     -1.956957      7.248401      7.248401     14.496803
     -1.946947      6.093997      6.093997     12.187995
     -1.936937      5.639333      5.639333     11.278665
     -1.926927      6.080452      6.080452     12.160905
     -1.916917      7.437737      7.437737     14.875474
     -1.906907      9.559975      9.559975     19.119949
     -1.896897     12.155451     12.155451     24.310902
     -1.886887     14.847459     14.847459     29.694919
     -1.876877     17.248289     17.248289     34.496578
     -1.866867     19.037888     19.037888     38.075775
     -1.856857     20.028743     20.028743     40.057486
     -1.846847     20.200869     20.200869     40.401737
     -1.836837     19.696883     19.696883     39.393765
     -1.826827     18.773730     18.773730     37.547460
     -1.816817     17.717172     17.717172     35.434345
     -1.806807     16.741147     16.741147     33.482295
     -1.796797     15.910518     15.910518     31.821037
     -1.786787     15.126697     15.126697     30.253394
     -1.776777     14.190381     14.190381     28.380762
     -1.766767     12.914021     12.914021     25.828042
     -1.756757     11.226391     11.226391     22.452782
     -1.746747      9.216140      9.216140     18.432281
     -1.736737      7.098670      7.098670     14.197341
     -1.726727      5.134592      5.134592     10.269184
     -1.716717      3.549143      3.549143      7.098287
     -1.706707      2.490021      2.490021      4.980042
     -1.696697      2.029547      2.029547      4.059094
     -1.686687      2.189014      2.189014      4.378028
     -1.676677      2.954537      2.954537      5.909074
     -1.666667      4.266488      4.266488      8.532976
     -1.656657      5.988780      5.988780     11.977561
     -1.646647      7.885304      7.885304     15.770607
     -1.636637      9.635618      9.635618     19.271236
     -1.626627     10.905218     10.905218     21.810436
