# EIG2DOS: Utility for SIESTA to obtain the electronic density of states
#  E. Artacho, Apr 1999, A. Garcia, Apr 2012
#  Nick R. Papior, Feb 2017
# ------------------------------------------
# Eigenvalues calculated from a non-polarized calculation
# Eigenvalues read from siesta.EIG
# Kpoint weights read from siesta.KP
# Using smearing parameter:   0.0500
# Using 1000 points in the energy range
# Selected bands: 1 to: 2981
# Emin, Emax in file for selected band(s):    -27.3963712    218.4064820
# Nbands, Nspin, Nk   =   2981     1     1
# E_F                 =    -4.1902 eV --> (shifted to ZERO)
# Broadening          =     0.0500 eV
#
#        E            N(up)  (=)   N(down)         Ntot
     -5.000000     31.288348     31.288348     62.576696
     -4.989990     36.490932     36.490932     72.981865
     -4.979980     41.480716     41.480716     82.961431
     -4.969970     45.389763     45.389763     90.779526
     -4.959960     47.466251     47.466251     94.932502
     -4.949950     47.326389     47.326389     94.652777
     -4.939940     45.089781     45.089781     90.179562
     -4.929930     41.356505     41.356505     82.713010
     -4.919920     37.057054     37.057054     74.114108
     -4.909910     33.245366     33.245366     66.490733
     -4.899900     30.894266     30.894266     61.788533
     -4.889890     30.716780     30.716780     61.433560
     -4.879880     33.017133     33.017133     66.034266
     -4.869870     37.589920     37.589920     75.179839
     -4.859860     43.712703     43.712703     87.425407
     -4.849850     50.275611     50.275611    100.551222
     -4.839840     56.043084     56.043084    112.086169
     -4.829830     59.972528     59.972528    119.945055
     -4.819820     61.472110     61.472110    122.944220
     -4.809810     60.500062     60.500062    121.000124
     -4.799800     57.481863     57.481863    114.963726
     -4.789790     53.104185     53.104185    106.208370
     -4.779780     48.086926     48.086926     96.173853
     -4.769770     43.019265     43.019265     86.038529
     -4.759760     38.292926     38.292926     76.585851
     -4.749750     34.114103     34.114103     68.228207
     -4.739740     30.551545     30.551545     61.103090
     -4.729730     27.583757     27.583757     55.167513
     -4.719720     25.128187     25.128187     50.256374
     -4.709710     23.055013     23.055013     46.110027
     -4.699700     21.201107     21.201107     42.402214
     -4.689690     19.402760     19.402760     38.805520
     -4.679680     17.556040     17.556040     35.112080
     -4.669670     15.692920     15.692920     31.385841
     -4.659660     14.040584     14.040584     28.081169
     -4.649650     13.025136     13.025136     26.050272
     -4.639640     13.195588     13.195588     26.391177
     -4.629630     15.072777     15.072777     30.145554
     -4.619620     18.958434     18.958434     37.916869
     -4.609610     24.763139     24.763139     49.526279
     -4.599600     31.922005     31.922005     63.844010
     -4.589590     39.455043     39.455043     78.910087
     -4.579580     46.187004     46.187004     92.374008
     -4.569570     51.075296     51.075296    102.150593
     -4.559560     53.533073     53.533073    107.066147
     -4.549550     53.615979     53.615979    107.231958
     -4.539540     51.985853     51.985853    103.971705
     -4.529530     49.656566     49.656566     99.313133
     -4.519520     47.621082     47.621082     95.242165
     -4.509510     46.508333     46.508333     93.016666
     -4.499499     46.401547     46.401547     92.803095
     -4.489489     46.876924     46.876924     93.753848
     -4.479479     47.227971     47.227971     94.455943
     -4.469469     46.768327     46.768327     93.536653
     -4.459459     45.084907     45.084907     90.169814
     -4.449449     42.150014     42.150014     84.300029
     -4.439439     38.274591     38.274591     76.549183
     -4.429429     33.957320     33.957320     67.914641
     -4.419419     29.719635     29.719635     59.439270
     -4.409409     25.999670     25.999670     51.999340
     -4.399399     23.123777     23.123777     46.247554
     -4.389389     21.320174     21.320174     42.640347
     -4.379379     20.721984     20.721984     41.443968
     -4.369369     21.335429     21.335429     42.670859
     -4.359359     22.997373     22.997373     45.994746
     -4.349349     25.373851     25.373851     50.747702
     -4.339339     28.034302     28.034302     56.068603
     -4.329329     30.586981     30.586981     61.173962
     -4.319319     32.815754     32.815754     65.631508
     -4.309309     34.748195     34.748195     69.496390
     -4.299299     36.614318     36.614318     73.228636
     -4.289289     38.704842     38.704842     77.409685
     -4.279279     41.182628     41.182628     82.365256
     -4.269269     43.925143     43.925143     87.850286
     -4.259259     46.473405     46.473405     92.946811
     -4.249249     48.131114     48.131114     96.262227
     -4.239239     48.199045     48.199045     96.398090
     -4.229229     46.261975     46.261975     92.523949
     -4.219219     42.403237     42.403237     84.806475
     -4.209209     37.238850     37.238850     74.477700
     -4.199199     31.741516     31.741516     63.483032
     -4.189189     26.926032     26.926032     53.852064
     -4.179179     23.533787     23.533787     47.067574
     -4.169169     21.848162     21.848162     43.696325
     -4.159159     21.702656     21.702656     43.405311
     -4.149149     22.652355     22.652355     45.304710
     -4.139139     24.213280     24.213280     48.426559
     -4.129129     26.057185     26.057185     52.114369
     -4.119119     28.079783     28.079783     56.159566
     -4.109109     30.321270     30.321270     60.642540
     -4.099099     32.787952     32.787952     65.575905
     -4.089089     35.277109     35.277109     70.554218
     -4.079079     37.316387     37.316387     74.632775
     -4.069069     38.278025     38.278025     76.556051
     -4.059059     37.633071     37.633071     75.266142
     -4.049049     35.222904     35.222904     70.445808
     -4.039039     31.403028     31.403028     62.806056
     -4.029029     26.977675     26.977675     53.955350
     -4.019019     22.955309     22.955309     45.910618
     -4.009009     20.243915     20.243915     40.487831
     -3.998999     19.419592     19.419592     38.839183
     -3.988989     20.644319     20.644319     41.288638
     -3.978979     23.725045     23.725045     47.450090
     -3.968969     28.248714     28.248714     56.497428
     -3.958959     33.721003     33.721003     67.442005
     -3.948949     39.668149     39.668149     79.336298
     -3.938939     45.698431     45.698431     91.396862
     -3.928929     51.535012     51.535012    103.070024
     -3.918919     57.021851     57.021851    114.043703
     -3.908909     62.089803     62.089803    124.179607
     -3.898899     66.675338     66.675338    133.350677
     -3.888889     70.613798     70.613798    141.227596
     -3.878879     73.561093     73.561093    147.122186
     -3.868869     75.002696     75.002696    150.005393
     -3.858859     74.374710     74.374710    148.749421
     -3.848849     71.265032     71.265032    142.530065
     -3.838839     65.615916     65.615916    131.231833
     -3.828829     57.839317     57.839317    115.678634
     -3.818819     48.788487     48.788487     97.576974
     -3.808809     39.586476     39.586476     79.172951
     -3.798799     31.366848     31.366848     62.733696
     -3.788789     25.010901     25.010901     50.021803
     -3.778779     20.960599     20.960599     41.921197
     -3.768769     19.155107     19.155107     38.310214
     -3.758759     19.097961     19.097961     38.195922
     -3.748749     20.026809     20.026809     40.053618
     -3.738739     21.136471     21.136471     42.272941
     -3.728729     21.799083     21.799083     43.598166
     -3.718719     21.729244     21.729244     43.458489
     -3.708709     21.054168     21.054168     42.108336
     -3.698699     20.267462     20.267462     40.534925
     -3.688689     20.070242     20.070242     40.140484
     -3.678679     21.133957     21.133957     42.267915
     -3.668669     23.850071     23.850071     47.700143
     -3.658659     28.150109     28.150109     56.300217
     -3.648649     33.469810     33.469810     66.939620
     -3.638639     38.885165     38.885165     77.770330
     -3.628629     43.378440     43.378440     86.756881
     -3.618619     46.132921     46.132921     92.265842
     -3.608609     46.742548     46.742548     93.485096
     -3.598599     45.267992     45.267992     90.535984
     -3.588589     42.146274     42.146274     84.292548
     -3.578579     38.019236     38.019236     76.038471
     -3.568569     33.556778     33.556778     67.113555
     -3.558559     29.322383     29.322383     58.644767
     -3.548549     25.694569     25.694569     51.389137
     -3.538539     22.842429     22.842429     45.684858
     -3.528529     20.752121     20.752121     41.504242
     -3.518519     19.295041     19.295041     38.590082
     -3.508509     18.311650     18.311650     36.623299
     -3.498498     17.673402     17.673402     35.346803
     -3.488488     17.297726     17.297726     34.595452
     -3.478478     17.123864     17.123864     34.247727
     -3.468468     17.083691     17.083691     34.167382
     -3.458458     17.097351     17.097351     34.194702
     -3.448448     17.093198     17.093198     34.186396
     -3.438438     17.025724     17.025724     34.051449
     -3.428428     16.869808     16.869808     33.739616
     -3.418418     16.599719     16.599719     33.199439
     -3.408408     16.185036     16.185036     32.370072
     -3.398398     15.626387     15.626387     31.252773
     -3.388388     15.017283     15.017283     30.034565
     -3.378378     14.587104     14.587104     29.174209
     -3.368368     14.683466     14.683466     29.366931
     -3.358358     15.687960     15.687960     31.375921
     -3.348348     17.898134     17.898134     35.796267
     -3.338338     21.421427     21.421427     42.842855
     -3.328328     26.110818     26.110818     52.221635
     -3.318318     31.548971     31.548971     63.097942
     -3.308308     37.080206     37.080206     74.160413
     -3.298298     41.896322     41.896322     83.792643
     -3.288288     45.181590     45.181590     90.363180
     -3.278278     46.297868     46.297868     92.595737
     -3.268268     44.954886     44.954886     89.909771
     -3.258258     41.296097     41.296097     82.592193
     -3.248248     35.858253     35.858253     71.716506
     -3.238238     29.419590     29.419590     58.839181
     -3.228228     22.799838     22.799838     45.599677
     -3.218218     16.686169     16.686169     33.372338
     -3.208208     11.533804     11.533804     23.067609
     -3.198198      7.551511      7.551511     15.103022
     -3.188188      4.753225      4.753225      9.506450
     -3.178178      3.045070      3.045070      6.090141
     -3.168168      2.317063      2.317063      4.634126
     -3.158158      2.513381      2.513381      5.026763
     -3.148148      3.660929      3.660929      7.321858
     -3.138138      5.844188      5.844188     11.688375
     -3.128128      9.128200      9.128200     18.256401
     -3.118118     13.451753     13.451753     26.903506
     -3.108108     18.533868     18.533868     37.067736
     -3.098098     23.845944     23.845944     47.691888
     -3.088088     28.685793     28.685793     57.371587
     -3.078078     32.346587     32.346587     64.693173
     -3.068068     34.320940     34.320940     68.641880
     -3.058058     34.450117     34.450117     68.900233
     -3.048048     32.945895     32.945895     65.891790
     -3.038038     30.275416     30.275416     60.550833
     -3.028028     26.972100     26.972100     53.944201
     -3.018018     23.472288     23.472288     46.944576
     -3.008008     20.053677     20.053677     40.107354
     -2.997998     16.884929     16.884929     33.769858
     -2.987988     14.131468     14.131468     28.262935
     -2.977978     12.039809     12.039809     24.079618
     -2.967968     10.947627     10.947627     21.895255
     -2.957958     11.213668     11.213668     22.427337
     -2.947948     13.099146     13.099146     26.198291
     -2.937938     16.646607     16.646607     33.293214
     -2.927928     21.599160     21.599160     43.198320
     -2.917918     27.392701     27.392701     54.785401
     -2.907908     33.238376     33.238376     66.476753
     -2.897898     38.287771     38.287771     76.575541
     -2.887888     41.840394     41.840394     83.680788
     -2.877878     43.525209     43.525209     87.050419
     -2.867868     43.384254     43.384254     86.768508
     -2.857858     41.817840     41.817840     83.635680
     -2.847848     39.408608     39.408608     78.817217
     -2.837838     36.698694     36.698694     73.397388
     -2.827828     34.018545     34.018545     68.037089
     -2.817818     31.440553     31.440553     62.881106
     -2.807808     28.866241     28.866241     57.732482
     -2.797798     26.186776     26.186776     52.373552
     -2.787788     23.421820     23.421820     46.843640
     -2.777778     20.760683     20.760683     41.521367
     -2.767768     18.490664     18.490664     36.981329
     -2.757758     16.864165     16.864165     33.728329
     -2.747748     15.989432     15.989432     31.978864
     -2.737738     15.810164     15.810164     31.620328
     -2.727728     16.178981     16.178981     32.357962
     -2.717718     16.967022     16.967022     33.934045
     -2.707708     18.128347     18.128347     36.256694
     -2.697698     19.671571     19.671571     39.343142
     -2.687688     21.561523     21.561523     43.123046
     -2.677678     23.631384     23.631384     47.262768
     -2.667668     25.586259     25.586259     51.172518
     -2.657658     27.116995     27.116995     54.233990
     -2.647648     28.060490     28.060490     56.120979
     -2.637638     28.500914     28.500914     57.001829
     -2.627628     28.738942     28.738942     57.477883
     -2.617618     29.141355     29.141355     58.282709
     -2.607608     29.959329     29.959329     59.918658
     -2.597598     31.216144     31.216144     62.432287
     -2.587588     32.710208     32.710208     65.420416
     -2.577578     34.104112     34.104112     68.208224
     -2.567568     35.032062     35.032062     70.064123
     -2.557558     35.177273     35.177273     70.354547
     -2.547548     34.318850     34.318850     68.637699
     -2.537538     32.376160     32.376160     64.752319
     -2.527528     29.464233     29.464233     58.928467
     -2.517518     25.935339     25.935339     51.870679
     -2.507508     22.360160     22.360160     44.720320
     -2.497497     19.420575     19.420575     38.841149
     -2.487487     17.733390     17.733390     35.466779
     -2.477477     17.667391     17.667391     35.334781
     -2.467467     19.228161     19.228161     38.456321
     -2.457457     22.061394     22.061394     44.122788
     -2.447447     25.578972     25.578972     51.157944
     -2.437437     29.162147     29.162147     58.324294
     -2.427427     32.361644     32.361644     64.723288
     -2.417417     35.010627     35.010627     70.021255
     -2.407407     37.199690     37.199690     74.399380
     -2.397397     39.124008     39.124008     78.248016
     -2.387387     40.876221     40.876221     81.752442
     -2.377377     42.292787     42.292787     84.585574
     -2.367367     42.944092     42.944092     85.888184
     -2.357357     42.290846     42.290846     84.581692
     -2.347347     39.941507     39.941507     79.883015
     -2.337337     35.885825     35.885825     71.771649
     -2.327327     30.586367     30.586367     61.172733
     -2.317317     24.882595     24.882595     49.765189
     -2.307307     19.756789     19.756789     39.513579
     -2.297297     16.070232     16.070232     32.140465
     -2.287287     14.371829     14.371829     28.743659
     -2.277277     14.826342     14.826342     29.652684
     -2.267267     17.248608     17.248608     34.497216
     -2.257257     21.197572     21.197572     42.395145
     -2.247247     26.084710     26.084710     52.169420
     -2.237237     31.269567     31.269567     62.539135
     -2.227227     36.133262     36.133262     72.266523
     -2.217217     40.132071     40.132071     80.264143
     -2.207207     42.839252     42.839252     85.678503
     -2.197197     43.985489     43.985489     87.970977
     -2.187187     43.504038     43.504038     87.008076
     -2.177177     41.571957     41.571957     83.143915
     -2.167167     38.618570     38.618570     77.237141
     -2.157157     35.262877     35.262877     70.525754
     -2.147147     32.161755     32.161755     64.323510
     -2.137137     29.801258     29.801258     59.602517
     -2.127127     28.316062     28.316062     56.632124
     -2.117117     27.434673     27.434673     54.869346
     -2.107107     26.597755     26.597755     53.195510
     -2.097097     25.206103     25.206103     50.412206
     -2.087087     22.880518     22.880518     45.761037
     -2.077077     19.608842     19.608842     39.217685
     -2.067067     15.721013     15.721013     31.442027
     -2.057057     11.726777     11.726777     23.453554
     -2.047047      8.113012      8.113012     16.226023
     -2.037037      5.196746      5.196746     10.393493
     -2.027027      3.079484      3.079484      6.158969
     -2.017017      1.689232      1.689232      3.378463
     -2.007007      0.863475      0.863475      1.726951
     -1.996997      0.427803      0.427803      0.855605
     -1.986987      0.246726      0.246726      0.493452
     -1.976977      0.245698      0.245698      0.491397
     -1.966967      0.414398      0.414398      0.828797
     -1.956957      0.800508      0.800508      1.601017
     -1.946947      1.496288      1.496288      2.992576
     -1.936937      2.614503      2.614503      5.229005
     -1.926927      4.250600      4.250600      8.501200
     -1.916917      6.435342      6.435342     12.870683
     -1.906907      9.092282      9.092282     18.184565
     -1.896897     12.020050     12.020050     24.040099
     -1.886887     14.914186     14.914186     29.828371
     -1.876877     17.428246     17.428246     34.856493
     -1.866867     19.257109     19.257109     38.514219
     -1.856857     20.216325     20.216325     40.432649
     -1.846847     20.292644     20.292644     40.585288
     -1.836837     19.648561     19.648561     39.297122
     -1.826827     18.574003     18.574003     37.148007
     -1.816817     17.392559     17.392559     34.785117
     -1.806807     16.349142     16.349142     32.698284
     -1.796797     15.523222     15.523222     31.046445
     -1.786787     14.810864     14.810864     29.621729
     -1.776777     13.990629     13.990629     27.981258
     -1.766767     12.844247     12.844247     25.688493
     -1.756757     11.271259     11.271259     22.542518
     -1.746747      9.341048      9.341048     18.682095
     -1.736737      7.263938      7.263938     14.527877
     -1.726727      5.308811      5.308811     10.617621
     -1.716717      3.717727      3.717727      7.435455
     -1.706707      2.657331      2.657331      5.314662
     -1.696697      2.214917      2.214917      4.429834
     -1.686687      2.417992      2.417992      4.835985
     -1.676677      3.247052      3.247052      6.494104
     -1.666667      4.624532      4.624532      9.249065
     -1.656657      6.387783      6.387783     12.775566
     -1.646647      8.274246      8.274246     16.548492
     -1.636637      9.949188      9.949188     19.898376
     -1.626627     11.086367     11.086367     22.172734
