# EIG2DOS: Utility for SIESTA to obtain the electronic density of states
#  E. Artacho, Apr 1999, A. Garcia, Apr 2012
#  Nick R. Papior, Feb 2017
# ------------------------------------------
# Eigenvalues calculated from a non-polarized calculation
# Eigenvalues read from siesta.EIG
# Kpoint weights read from siesta.KP
# Using smearing parameter:   0.0500
# Using 1000 points in the energy range
# Selected bands: 1 to: 2981
# Emin, Emax in file for selected band(s):    -27.1207564    218.3401050
# Nbands, Nspin, Nk   =   2981     1     1
# E_F                 =    -4.2678 eV --> (shifted to ZERO)
# Broadening          =     0.0500 eV
#
#        E            N(up)  (=)   N(down)         Ntot
     -5.000000     36.212408     36.212408     72.424815
     -4.989990     39.176639     39.176639     78.353278
     -4.979980     41.539665     41.539665     83.079330
     -4.969970     42.886651     42.886651     85.773301
     -4.959960     42.971118     42.971118     85.942237
     -4.949950     41.771807     41.771807     83.543615
     -4.939940     39.499797     39.499797     78.999593
     -4.929930     36.567755     36.567755     73.135511
     -4.919920     33.541499     33.541499     67.082997
     -4.909910     31.084090     31.084090     62.168179
     -4.899900     29.881273     29.881273     59.762545
     -4.889890     30.523191     30.523191     61.046382
     -4.879880     33.332563     33.332563     66.665126
     -4.869870     38.177504     38.177504     76.355008
     -4.859860     44.360258     44.360258     88.720516
     -4.849850     50.683520     50.683520    101.367040
     -4.839840     55.733339     55.733339    111.466678
     -4.829830     58.302944     58.302944    116.605889
     -4.819820     57.784965     57.784965    115.569931
     -4.809810     54.352295     54.352295    108.704590
     -4.799800     48.846736     48.846736     97.693473
     -4.789790     42.441720     42.441720     84.883441
     -4.779780     36.248029     36.248029     72.496059
     -4.769770     31.030739     31.030739     62.061478
     -4.759760     27.116955     27.116955     54.233909
     -4.749750     24.467097     24.467097     48.934195
     -4.739740     22.822600     22.822600     45.645199
     -4.729730     21.846719     21.846719     43.693439
     -4.719720     21.215420     21.215420     42.430840
     -4.709710     20.656020     20.656020     41.312040
     -4.699700     19.955077     19.955077     39.910153
     -4.689690     18.963622     18.963622     37.927245
     -4.679680     17.620774     17.620774     35.241548
     -4.669670     15.998199     15.998199     31.996398
     -4.659660     14.345042     14.345042     28.690083
     -4.649650     13.098892     13.098892     26.197785
     -4.639640     12.833076     12.833076     25.666152
     -4.629630     14.132084     14.132084     28.264168
     -4.619620     17.415172     17.415172     34.830345
     -4.609610     22.754012     22.754012     45.508024
     -4.599600     29.748498     29.748498     59.496996
     -4.589590     37.527236     37.527236     75.054471
     -4.579580     44.913304     44.913304     89.826608
     -4.569570     50.736800     50.736800    101.473599
     -4.559560     54.201661     54.201661    108.403322
     -4.549550     55.165109     55.165109    110.330217
     -4.539540     54.200766     54.200766    108.401531
     -4.529530     52.396871     52.396871    104.793742
     -4.519520     50.954700     50.954700    101.909399
     -4.509510     50.743601     50.743601    101.487202
     -4.499499     51.991804     51.991804    103.983607
     -4.489489     54.233758     54.233758    108.467516
     -4.479479     56.522327     56.522327    113.044653
     -4.469469     57.801475     57.801475    115.602949
     -4.459459     57.276609     57.276609    114.553217
     -4.449449     54.641318     54.641318    109.282637
     -4.439439     50.103470     50.103470    100.206941
     -4.429429     44.250056     44.250056     88.500112
     -4.419419     37.846982     37.846982     75.693964
     -4.409409     31.664539     31.664539     63.329079
     -4.399399     26.368864     26.368864     52.737728
     -4.389389     22.465582     22.465582     44.931164
     -4.379379     20.260037     20.260037     40.520074
     -4.369369     19.816562     19.816562     39.633124
     -4.359359     20.934497     20.934497     41.868995
     -4.349349     23.177486     23.177486     46.354972
     -4.339339     25.976473     25.976473     51.952947
     -4.329329     28.785737     28.785737     57.571474
     -4.319319     31.234939     31.234939     62.469878
     -4.309309     33.214991     33.214991     66.429983
     -4.299299     34.864662     34.864662     69.729323
     -4.289289     36.467807     36.467807     72.935614
     -4.279279     38.302309     38.302309     76.604618
     -4.269269     40.490919     40.490919     80.981838
     -4.259259     42.899623     42.899623     85.799245
     -4.249249     45.121613     45.121613     90.243225
     -4.239239     46.571117     46.571117     93.142234
     -4.229229     46.678137     46.678137     93.356275
     -4.219219     45.122923     45.122923     90.245847
     -4.209209     42.006638     42.006638     84.013276
     -4.199199     37.862688     37.862688     75.725377
     -4.189189     33.484691     33.484691     66.969383
     -4.179179     29.645572     29.645572     59.291145
     -4.169169     26.843648     26.843648     53.687297
     -4.159159     25.194062     25.194062     50.388125
     -4.149149     24.500835     24.500835     49.001671
     -4.139139     24.450638     24.450638     48.901275
     -4.129129     24.816637     24.816637     49.633275
     -4.119119     25.568082     25.568082     51.136164
     -4.109109     26.834454     26.834454     53.668908
     -4.099099     28.745276     28.745276     57.490551
     -4.089089     31.231296     31.231296     62.462592
     -4.079079     33.903385     33.903385     67.806769
     -4.069069     36.099467     36.099467     72.198933
     -4.059059     37.106771     37.106771     74.213541
     -4.049049     36.464042     36.464042     72.928085
     -4.039039     34.189537     34.189537     68.379073
     -4.029029     30.811040     30.811040     61.622080
     -4.019019     27.181725     27.181725     54.363450
     -4.009009     24.182433     24.182433     48.364867
     -3.998999     22.461699     22.461699     44.923397
     -3.988989     22.321812     22.321812     44.643625
     -3.978979     23.760233     23.760233     47.520466
     -3.968969     26.591562     26.591562     53.183124
     -3.958959     30.557249     30.557249     61.114498
     -3.948949     35.376006     35.376006     70.752012
     -3.938939     40.751016     40.751016     81.502032
     -3.928929     46.379292     46.379292     92.758584
     -3.918919     51.987366     51.987366    103.974733
     -3.908909     57.372497     57.372497    114.744993
     -3.898899     62.403548     62.403548    124.807096
     -3.888889     66.955010     66.955010    133.910019
     -3.878879     70.798402     70.798402    141.596805
     -3.868869     73.520142     73.520142    147.040284
     -3.858859     74.539688     74.539688    149.079375
     -3.848849     73.257905     73.257905    146.515810
     -3.838839     69.294374     69.294374    138.588749
     -3.828829     62.713118     62.713118    125.426235
     -3.818819     54.124966     54.124966    108.249931
     -3.808809     44.602471     44.602471     89.204943
     -3.798799     35.426699     35.426699     70.853398
     -3.788789     27.759191     27.759191     55.518382
     -3.778779     22.358542     22.358542     44.717084
     -3.768769     19.431776     19.431776     38.863552
     -3.758759     18.650353     18.650353     37.300707
     -3.748749     19.303689     19.303689     38.607377
     -3.738739     20.531065     20.531065     41.062130
     -3.728729     21.566543     21.566543     43.133085
     -3.718719     21.939903     21.939903     43.879806
     -3.708709     21.590236     21.590236     43.180473
     -3.698699     20.865066     20.865066     41.730132
     -3.688689     20.399653     20.399653     40.799306
     -3.678679     20.900333     20.900333     41.800666
     -3.668669     22.888520     22.888520     45.777039
     -3.658659     26.486670     26.486670     52.973340
     -3.648649     31.327325     31.327325     62.654651
     -3.638639     36.630083     36.630083     73.260165
     -3.628629     41.425754     41.425754     82.851508
     -3.618619     44.841689     44.841689     89.683377
     -3.608609     46.335426     46.335426     92.670852
     -3.598599     45.794768     45.794768     91.589535
     -3.588589     43.492246     43.492246     86.984493
     -3.578579     39.945254     39.945254     79.890508
     -3.568569     35.753120     35.753120     71.506241
     -3.558559     31.460099     31.460099     62.920198
     -3.548549     27.460517     27.460517     54.921034
     -3.538539     23.948330     23.948330     47.896661
     -3.528529     20.917742     20.917742     41.835485
     -3.518519     18.221815     18.221815     36.443630
     -3.508509     15.677107     15.677107     31.354215
     -3.498498     13.175212     13.175212     26.350424
     -3.488488     10.752064     10.752064     21.504129
     -3.478478      8.585615      8.585615     17.171230
     -3.468468      6.928776      6.928776     13.857552
     -3.458458      6.011988      6.011988     12.023976
     -3.448448      5.954117      5.954117     11.908233
     -3.438438      6.708226      6.708226     13.416453
     -3.428428      8.055380      8.055380     16.110760
     -3.418418      9.651525      9.651525     19.303051
     -3.408408     11.123420     11.123420     22.246840
     -3.398398     12.192105     12.192105     24.384209
     -3.388388     12.782120     12.782120     25.564240
     -3.378378     13.068384     13.068384     26.136768
     -3.368368     13.432870     13.432870     26.865739
     -3.358358     14.342911     14.342911     28.685822
     -3.348348     16.197602     16.197602     32.395205
     -3.338338     19.195952     19.195952     38.391904
     -3.328328     23.259360     23.259360     46.518721
     -3.318318     28.013237     28.013237     56.026474
     -3.308308     32.821996     32.821996     65.643992
     -3.298298     36.880328     36.880328     73.760655
     -3.288288     39.368830     39.368830     78.737661
     -3.278278     39.660072     39.660072     79.320143
     -3.268268     37.517086     37.517086     75.034171
     -3.258258     33.197412     33.197412     66.394824
     -3.248248     27.399026     27.399026     54.798051
     -3.238238     21.057783     21.057783     42.115565
     -3.228228     15.082996     15.082996     30.165992
     -3.218218     10.144994     10.144994     20.289988
     -3.208208      6.589500      6.589500     13.179000
     -3.198198      4.479541      4.479541      8.959082
     -3.188188      3.706254      3.706254      7.412508
     -3.178178      4.096368      4.096368      8.192736
     -3.168168      5.472570      5.472570     10.945140
     -3.158158      7.666476      7.666476     15.332951
     -3.148148     10.513549     10.513549     21.027098
     -3.138138     13.859885     13.859885     27.719770
     -3.128128     17.586406     17.586406     35.172813
     -3.118118     21.627194     21.627194     43.254388
     -3.108108     25.949862     25.949862     51.899723
     -3.098098     30.488437     30.488437     60.976874
     -3.088088     35.059206     35.059206     70.118413
     -3.078078     39.315797     39.315797     78.631593
     -3.068068     42.786564     42.786564     85.573128
     -3.058058     44.989886     44.989886     89.979773
     -3.048048     45.574411     45.574411     91.148823
     -3.038038     44.417116     44.417116     88.834232
     -3.028028     41.641243     41.641243     83.282485
     -3.018018     37.564904     37.564904     75.129808
     -3.008008     32.623897     32.623897     65.247794
     -2.997998     27.310063     27.310063     54.620125
     -2.987988     22.138985     22.138985     44.277969
     -2.977978     17.633165     17.633165     35.266329
     -2.967968     14.297375     14.297375     28.594749
     -2.957958     12.571580     12.571580     25.143159
     -2.947948     12.761717     12.761717     25.523435
     -2.937938     14.960646     14.960646     29.921292
     -2.927928     18.980370     18.980370     37.960740
     -2.917918     24.324081     24.324081     48.648162
     -2.907908     30.228060     30.228060     60.456120
     -2.897898     35.789430     35.789430     71.578859
     -2.887888     40.162852     40.162852     80.325704
     -2.877878     42.769729     42.769729     85.539458
     -2.867868     43.441330     43.441330     86.882660
     -2.857858     42.431985     42.431985     84.863970
     -2.847848     40.289689     40.289689     80.579377
     -2.837838     37.635570     37.635570     75.271140
     -2.827828     34.946915     34.946915     69.893830
     -2.817818     32.436024     32.436024     64.872048
     -2.807808     30.068640     30.068640     60.137279
     -2.797798     27.695641     27.695641     55.391282
     -2.787788     25.217071     25.217071     50.434142
     -2.777778     22.687379     22.687379     45.374758
     -2.767768     20.309993     20.309993     40.619986
     -2.757758     18.335720     18.335720     36.671439
     -2.747748     16.935058     16.935058     33.870116
     -2.737738     16.126821     16.126821     32.253642
     -2.727728     15.806585     15.806585     31.613171
     -2.717718     15.851697     15.851697     31.703395
     -2.707708     16.227159     16.227159     32.454319
     -2.697698     17.014184     17.014184     34.028368
     -2.687688     18.334964     18.334964     36.669929
     -2.677678     20.220789     20.220789     40.441578
     -2.667668     22.516012     22.516012     45.032025
     -2.657658     24.893511     24.893511     49.787022
     -2.647648     26.985532     26.985532     53.971064
     -2.637638     28.554504     28.554504     57.109007
     -2.627628     29.597427     29.597427     59.194853
     -2.617618     30.319082     30.319082     60.638164
     -2.607608     30.995176     30.995176     61.990352
     -2.597598     31.814722     31.814722     63.629445
     -2.587588     32.792930     32.792930     65.585860
     -2.577578     33.785392     33.785392     67.570784
     -2.567568     34.563856     34.563856     69.127712
     -2.557558     34.889216     34.889216     69.778432
     -2.547548     34.550355     34.550355     69.100710
     -2.537538     33.388477     33.388477     66.776954
     -2.527528     31.343685     31.343685     62.687369
     -2.517518     28.528282     28.528282     57.056563
     -2.507508     25.282625     25.282625     50.565250
     -2.497497     22.152879     22.152879     44.305758
     -2.487487     19.765223     19.765223     39.530446
     -2.477477     18.633853     18.633853     37.267706
     -2.467467     18.986096     18.986096     37.972192
     -2.457457     20.687719     20.687719     41.375437
     -2.447447     23.306771     23.306771     46.613541
     -2.437437     26.290192     26.290192     52.580385
     -2.427427     29.175156     29.175156     58.350312
     -2.417417     31.740082     31.740082     63.480164
     -2.407407     34.026696     34.026696     68.053392
     -2.397397     36.223792     36.223792     72.447584
     -2.387387     38.469416     38.469416     76.938833
     -2.377377     40.670421     40.670421     81.340841
     -2.367367     42.435727     42.435727     84.871455
     -2.357357     43.170654     43.170654     86.341307
     -2.347347     42.303700     42.303700     84.607400
     -2.337337     39.549139     39.549139     79.098278
     -2.327327     35.084589     35.084589     70.169177
     -2.317317     29.559467     29.559467     59.118934
     -2.307307     23.930408     23.930408     47.860817
     -2.297297     19.198214     19.198214     38.396428
     -2.287287     16.154121     16.154121     32.308243
     -2.277277     15.219590     15.219590     30.439181
     -2.267267     16.408346     16.408346     32.816692
     -2.257257     19.389505     19.389505     38.779009
     -2.247247     23.607410     23.607410     47.214821
     -2.237237     28.414243     28.414243     56.828486
     -2.227227     33.181970     33.181970     66.363940
     -2.217217     37.373303     37.373303     74.746606
     -2.207207     40.567881     40.567881     81.135763
     -2.197197     42.459734     42.459734     84.919467
     -2.187187     42.855822     42.855822     85.711644
     -2.177177     41.699879     41.699879     83.399758
     -2.167167     39.117721     39.117721     78.235441
     -2.157157     35.446509     35.446509     70.893018
     -2.147147     31.199569     31.199569     62.399138
     -2.137137     26.947381     26.947381     53.894762
     -2.127127     23.150810     23.150810     46.301619
     -2.117117     20.025164     20.025164     40.050328
     -2.107107     17.507935     17.507935     35.015870
     -2.097097     15.347659     15.347659     30.695317
     -2.087087     13.262801     13.262801     26.525602
     -2.077077     11.084358     11.084358     22.168716
     -2.067067      8.815071      8.815071     17.630143
     -2.057057      6.593592      6.593592     13.187185
     -2.047047      4.603718      4.603718      9.207436
     -2.037037      2.986622      2.986622      5.973244
     -2.027027      1.795759      1.795759      3.591518
     -2.017017      1.000689      1.000689      2.001377
     -2.007007      0.521188      0.521188      1.042377
     -1.996997      0.267199      0.267199      0.534397
     -1.986987      0.168880      0.168880      0.337760
     -1.976977      0.193194      0.193194      0.386388
     -1.966967      0.350611      0.350611      0.701222
     -1.956957      0.695604      0.695604      1.391207
     -1.946947      1.320332      1.320332      2.640664
     -1.936937      2.337080      2.337080      4.674159
     -1.926927      3.845804      3.845804      7.691608
     -1.916917      5.890137      5.890137     11.780274
     -1.906907      8.415247      8.415247     16.830495
     -1.896897     11.247228     11.247228     22.494455
     -1.886887     14.109534     14.109534     28.219068
     -1.876877     16.677490     16.677490     33.354979
     -1.866867     18.655109     18.655109     37.310219
     -1.856857     19.849784     19.849784     39.699569
     -1.846847     20.223028     20.223028     40.446056
     -1.836837     19.904104     19.904104     39.808209
     -1.826827     19.161229     19.161229     38.322458
     -1.816817     18.332472     18.332472     36.664944
     -1.806807     17.730339     17.730339     35.460678
     -1.796797     17.548911     17.548911     35.097822
     -1.786787     17.808776     17.808776     35.617552
     -1.776777     18.361808     18.361808     36.723617
     -1.766767     18.949479     18.949479     37.898958
     -1.756757     19.284598     19.284598     38.569196
     -1.746747     19.124401     19.124401     38.248802
     -1.736737     18.320149     18.320149     36.640298
     -1.726727     16.845967     16.845967     33.691933
     -1.716717     14.812199     14.812199     29.624398
     -1.706707     12.459343     12.459343     24.918685
     -1.696697     10.123102     10.123102     20.246205
     -1.686687      8.168580      8.168580     16.337161
     -1.676677      6.906287      6.906287     13.812573
     -1.666667      6.512379      6.512379     13.024759
     -1.656657      6.975289      6.975289     13.950578
     -1.646647      8.085006      8.085006     16.170012
     -1.636637      9.474319      9.474319     18.948637
     -1.626627     10.711186     10.711186     21.422372
