# EIG2DOS: Utility for SIESTA to obtain the electronic density of states
#  E. Artacho, Apr 1999, A. Garcia, Apr 2012
#  Nick R. Papior, Feb 2017
# ------------------------------------------
# Eigenvalues calculated from a non-polarized calculation
# Eigenvalues read from siesta.EIG
# Kpoint weights read from siesta.KP
# Using smearing parameter:   0.0500
# Using 1000 points in the energy range
# Selected bands: 1 to: 2981
# Emin, Emax in file for selected band(s):    -27.2730816    218.3768710
# Nbands, Nspin, Nk   =   2981     1     1
# E_F                 =    -4.2202 eV --> (shifted to ZERO)
# Broadening          =     0.0500 eV
#
#        E            N(up)  (=)   N(down)         Ntot
     -5.000000     32.713080     32.713080     65.426160
     -4.989990     37.532397     37.532397     75.064793
     -4.979980     41.903888     41.903888     83.807776
     -4.969970     45.080207     45.080207     90.160413
     -4.959960     46.473564     46.473564     92.947127
     -4.949950     45.851283     45.851283     91.702566
     -4.939940     43.417910     43.417910     86.835820
     -4.929930     39.767389     39.767389     79.534777
     -4.919920     35.746690     35.746690     71.493380
     -4.909910     32.290789     32.290789     64.581578
     -4.899900     30.264644     30.264644     60.529289
     -4.889890     30.312227     30.312227     60.624453
     -4.879880     32.704897     32.704897     65.409794
     -4.869870     37.212921     37.212921     74.425842
     -4.859860     43.065174     43.065174     86.130348
     -4.849850     49.065996     49.065996     98.131993
     -4.839840     53.881735     53.881735    107.763469
     -4.829830     56.418251     56.418251    112.836503
     -4.819820     56.144009     56.144009    112.288017
     -4.809810     53.221410     53.221410    106.442820
     -4.799800     48.394527     48.394527     96.789055
     -4.789790     42.695363     42.695363     85.390726
     -4.779780     37.106605     37.106605     74.213210
     -4.769770     32.317140     32.317140     64.634280
     -4.759760     28.639086     28.639086     57.278172
     -4.749750     26.070419     26.070419     52.140837
     -4.739740     24.432660     24.432660     48.865321
     -4.729730     23.505754     23.505754     47.011508
     -4.719720     23.108764     23.108764     46.217529
     -4.709710     23.112486     23.112486     46.224973
     -4.699700     23.402869     23.402869     46.805737
     -4.689690     23.835164     23.835164     47.670328
     -4.679680     24.222429     24.222429     48.444858
     -4.669670     24.384474     24.384474     48.768948
     -4.659660     24.248616     24.248616     48.497232
     -4.649650     23.956442     23.956442     47.912883
     -4.639640     23.910467     23.910467     47.820934
     -4.629630     24.705388     24.705388     49.410775
     -4.619620     26.932756     26.932756     53.865511
     -4.609610     30.912468     30.912468     61.824936
     -4.599600     36.461431     36.461431     72.922862
     -4.589590     42.824013     42.824013     85.648026
     -4.579580     48.837461     48.837461     97.674922
     -4.569570     53.299935     53.299935    106.599870
     -4.559560     55.399837     55.399837    110.799673
     -4.549550     55.017419     55.017419    110.034839
     -4.539540     52.758393     52.758393    105.516785
     -4.529530     49.702589     49.702589     99.405178
     -4.519520     46.981702     46.981702     93.963405
     -4.509510     45.369981     45.369981     90.739961
     -4.499499     45.050924     45.050924     90.101847
     -4.489489     45.631924     45.631924     91.263849
     -4.479479     46.368372     46.368372     92.736744
     -4.469469     46.480247     46.480247     92.960494
     -4.459459     45.426433     45.426433     90.852867
     -4.449449     43.043186     43.043186     86.086372
     -4.439439     39.526859     39.526859     79.053719
     -4.429429     35.309749     35.309749     70.619497
     -4.419419     30.910310     30.910310     61.820620
     -4.409409     26.824029     26.824029     53.648058
     -4.399399     23.473895     23.473895     46.947790
     -4.389389     21.193396     21.193396     42.386791
     -4.379379     20.201442     20.201442     40.402884
     -4.369369     20.554352     20.554352     41.108705
     -4.359359     22.101298     22.101298     44.202596
     -4.349349     24.490354     24.490354     48.980707
     -4.339339     27.253006     27.253006     54.506012
     -4.329329     29.948025     29.948025     59.896050
     -4.319319     32.304721     32.304721     64.609442
     -4.309309     34.298723     34.298723     68.597445
     -4.299299     36.123139     36.123139     72.246277
     -4.289289     38.063949     38.063949     76.127899
     -4.279279     40.326698     40.326698     80.653395
     -4.269269     42.880284     42.880284     85.760568
     -4.259259     45.382917     45.382917     90.765834
     -4.249249     47.235590     47.235590     94.471180
     -4.239239     47.766959     47.766959     95.533918
     -4.229229     46.494885     46.494885     92.989770
     -4.219219     43.358530     43.358530     86.717060
     -4.209209     38.807130     38.807130     77.614260
     -4.199199     33.687006     33.687006     67.374012
     -4.189189     28.965457     28.965457     57.930915
     -4.179179     25.413631     25.413631     50.827262
     -4.169169     23.389426     23.389426     46.778852
     -4.159159     22.806159     22.806159     45.612317
     -4.149149     23.278814     23.278814     46.557628
     -4.139139     24.359847     24.359847     48.719694
     -4.129129     25.746207     25.746207     51.492415
     -4.119119     27.363434     27.363434     54.726868
     -4.109109     29.294658     29.294658     58.589316
     -4.099099     31.597383     31.597383     63.194766
     -4.089089     34.111155     34.111155     68.222310
     -4.079079     36.375313     36.375313     72.750627
     -4.069069     37.729034     37.729034     75.458067
     -4.059059     37.568519     37.568519     75.137038
     -4.049049     35.639446     35.639446     71.278893
     -4.039039     32.209646     32.209646     64.419293
     -4.029029     28.025711     28.025711     56.051422
     -4.019019     24.073945     24.073945     48.147890
     -4.009009     21.266608     21.266608     42.533216
     -3.998999     20.198152     20.198152     40.396303
     -3.988989     21.057953     21.057953     42.115907
     -3.978979     23.693063     23.693063     47.386126
     -3.968969     27.747280     27.747280     55.494560
     -3.958959     32.794320     32.794320     65.588641
     -3.948949     38.422205     38.422205     76.844409
     -3.938939     44.274034     44.274034     88.548069
     -3.928929     50.070423     50.070423    100.140846
     -3.918919     55.623458     55.623458    111.246915
     -3.908909     60.825448     60.825448    121.650896
     -3.898899     65.590853     65.590853    131.181705
     -3.888889     69.758421     69.758421    139.516842
     -3.878879     73.001870     73.001870    146.003741
     -3.868869     74.815457     74.815457    149.630914
     -3.858859     74.614694     74.614694    149.229388
     -3.848849     71.933399     71.933399    143.866797
     -3.838839     66.641114     66.641114    133.282228
     -3.828829     59.083952     59.083952    118.167904
     -3.818819     50.079192     50.079192    100.158384
     -3.808809     40.754387     40.754387     81.508775
     -3.798799     32.284056     32.284056     64.568112
     -3.788789     25.612662     25.612662     51.225324
     -3.778779     21.250026     21.250026     42.500052
     -3.768769     19.192624     19.192624     38.385247
     -3.758759     18.980469     18.980469     37.960938
     -3.748749     19.862091     19.862091     39.724181
     -3.738739     21.018016     21.018016     42.036032
     -3.728729     21.786002     21.786002     43.572004
     -3.718719     21.835010     21.835010     43.670021
     -3.708709     21.246309     21.246309     42.492618
     -3.698699     20.478109     20.478109     40.956218
     -3.688689     20.215162     20.215162     40.430324
     -3.678679     21.135846     21.135846     42.271693
     -3.668669     23.660697     23.660697     47.321393
     -3.658659     27.765666     27.765666     55.531331
     -3.648649     32.934977     32.934977     65.869953
     -3.638639     38.284132     38.284132     76.568264
     -3.628629     42.815208     42.815208     85.630415
     -3.618619     45.706770     45.706770     91.413541
     -3.608609     46.525931     46.525931     93.051861
     -3.598599     45.292315     45.292315     90.584630
     -3.588589     42.397315     42.397315     84.794630
     -3.578579     38.440196     38.440196     76.880392
     -3.568569     34.054532     34.054532     68.109064
     -3.558559     29.771502     29.771502     59.543004
     -3.548549     25.934191     25.934191     51.868382
     -3.538539     22.664244     22.664244     45.328488
     -3.528529     19.884755     19.884755     39.769510
     -3.518519     17.399569     17.399569     34.799139
     -3.508509     15.008752     15.008752     30.017503
     -3.498498     12.616834     12.616834     25.233669
     -3.488488     10.287768     10.287768     20.575537
     -3.478478      8.225503      8.225503     16.451005
     -3.468468      6.695110      6.695110     13.390219
     -3.458458      5.922095      5.922095     11.844191
     -3.448448      6.007155      6.007155     12.014311
     -3.438438      6.879767      6.879767     13.759534
     -3.428428      8.301569      8.301569     16.603137
     -3.418418      9.923411      9.923411     19.846823
     -3.408408     11.390297     11.390297     22.780595
     -3.398398     12.469947     12.469947     24.939894
     -3.388388     13.160888     13.160888     26.321776
     -3.378378     13.731854     13.731854     27.463707
     -3.368368     14.666001     14.666001     29.332002
     -3.358358     16.521477     16.521477     33.042953
     -3.348348     19.751302     19.751302     39.502605
     -3.338338     24.533807     24.533807     49.067614
     -3.328328     30.654048     30.654048     61.308097
     -3.318318     37.464721     37.464721     74.929442
     -3.308308     43.951430     43.951430     87.902859
     -3.298298     48.919341     48.919341     97.838682
     -3.288288     51.284665     51.284665    102.569331
     -3.278278     50.395503     50.395503    100.791005
     -3.268268     46.259138     46.259138     92.518276
     -3.258258     39.565094     39.565094     79.130187
     -3.248248     31.477989     31.477989     62.955978
     -3.238238     23.286449     23.286449     46.572898
     -3.228228     16.061277     16.061277     32.122555
     -3.218218     10.455392     10.455392     20.910784
     -3.208208      6.689567      6.689567     13.379134
     -3.198198      4.673848      4.673848      9.347697
     -3.188188      4.168870      4.168870      8.337741
     -3.178178      4.906993      4.906993      9.813987
     -3.168168      6.644407      6.644407     13.288814
     -3.158158      9.163660      9.163660     18.327320
     -3.148148     12.265074     12.265074     24.530148
     -3.138138     15.771210     15.771210     31.542419
     -3.128128     19.537950     19.537950     39.075900
     -3.118118     23.445714     23.445714     46.891428
     -3.108108     27.354199     27.354199     54.708399
     -3.098098     31.039316     31.039316     62.078632
     -3.088088     34.162542     34.162542     68.325084
     -3.078078     36.318377     36.318377     72.636755
     -3.068068     37.158484     37.158484     74.316968
     -3.058058     36.532367     36.532367     73.064735
     -3.048048     34.560699     34.560699     69.121398
     -3.038038     31.592560     31.592560     63.185120
     -3.028028     28.070346     28.070346     56.140692
     -3.018018     24.383751     24.383751     48.767502
     -3.008008     20.795583     20.795583     41.591167
     -2.997998     17.468838     17.468838     34.937676
     -2.987988     14.557771     14.557771     29.115542
     -2.977978     12.291588     12.291588     24.583175
     -2.967968     10.993640     10.993640     21.987281
     -2.957958     11.021919     11.021919     22.043838
     -2.947948     12.656014     12.656014     25.312028
     -2.937938     15.973957     15.973957     31.947915
     -2.927928     20.762274     20.762274     41.524548
     -2.917918     26.494333     26.494333     52.988666
     -2.907908     32.398445     32.398445     64.796889
     -2.897898     37.613733     37.613733     75.227465
     -2.887888     41.398359     41.398359     82.796718
     -2.877878     43.323437     43.323437     86.646874
     -2.867868     43.377045     43.377045     86.754090
     -2.857858     41.929588     41.929588     83.859176
     -2.847848     39.568436     39.568436     79.136871
     -2.837838     36.870353     36.870353     73.740706
     -2.827828     34.211645     34.211645     68.423291
     -2.817818     31.697850     31.697850     63.395700
     -2.807808     29.233651     29.233651     58.467302
     -2.797798     26.681639     26.681639     53.363277
     -2.787788     24.015499     24.015499     48.030999
     -2.777778     21.383357     21.383357     42.766714
     -2.767768     19.053722     19.053722     38.107443
     -2.757758     17.286352     17.286352     34.572704
     -2.747748     16.212299     16.212299     32.424598
     -2.737738     15.796918     15.796918     31.593836
     -2.727728     15.903342     15.903342     31.806684
     -2.717718     16.406874     16.406874     32.813747
     -2.707708     17.276543     17.276543     34.553087
     -2.697698     18.563149     18.563149     37.126299
     -2.687688     20.300508     20.300508     40.601015
     -2.677678     22.393211     22.393211     44.786422
     -2.667668     24.581445     24.581445     49.162889
     -2.657658     26.524687     26.524687     53.049374
     -2.647648     27.962407     27.962407     55.924815
     -2.637638     28.850550     28.850550     57.701100
     -2.627628     29.382727     29.382727     58.765455
     -2.617618     29.879456     29.879456     59.758912
     -2.607608     30.613925     30.613925     61.227851
     -2.597598     31.677154     31.677154     63.354307
     -2.587588     32.947714     32.947714     65.895428
     -2.577578     34.156459     34.156459     68.312918
     -2.567568     34.984851     34.984851     69.969701
     -2.557558     35.141225     35.141225     70.282450
     -2.547548     34.405169     34.405169     68.810338
     -2.537538     32.667150     32.667150     65.334301
     -2.527528     29.984514     29.984514     59.969028
     -2.517518     26.636079     26.636079     53.272157
     -2.507508     23.126849     23.126849     46.253697
     -2.497497     20.104160     20.104160     40.208320
     -2.487487     18.192963     18.192963     36.385925
     -2.477477     17.807943     17.807943     35.615886
     -2.467467     19.020999     19.020999     38.041998
     -2.457457     21.543411     21.543411     43.086823
     -2.447447     24.834784     24.834784     49.669568
     -2.437437     28.297504     28.297504     56.595008
     -2.427427     31.477695     31.477695     62.955389
     -2.417417     34.187325     34.187325     68.374650
     -2.407407     36.492946     36.492946     72.985893
     -2.397397     38.575315     38.575315     77.150630
     -2.387387     40.527057     40.527057     81.054113
     -2.377377     42.192589     42.192589     84.385178
     -2.367367     43.143155     43.143155     86.286310
     -2.357357     42.818307     42.818307     85.636614
     -2.347347     40.779097     40.779097     81.558194
     -2.337337     36.953178     36.953178     73.906356
     -2.327327     31.748912     31.748912     63.497825
     -2.317317     25.980840     25.980840     51.961680
     -2.307307     20.644260     20.644260     41.288520
     -2.297297     16.644000     16.644000     33.288000
     -2.287287     14.585639     14.585639     29.171278
     -2.277277     14.686492     14.686492     29.372985
     -2.267267     16.800159     16.800159     33.600318
     -2.257257     20.509780     20.509780     41.019560
     -2.247247     25.241052     25.241052     50.482103
     -2.237237     30.362520     30.362520     60.725040
     -2.227227     35.259885     35.259885     70.519769
     -2.217217     39.384657     39.384657     78.769314
     -2.207207     42.286128     42.286128     84.572255
     -2.197197     43.640372     43.640372     87.280744
     -2.187187     43.287780     43.287780     86.575559
     -2.177177     41.277367     41.277367     82.554733
     -2.167167     37.895305     37.895305     75.790609
     -2.157157     33.641596     33.641596     67.283193
     -2.147147     29.130349     29.130349     58.260699
     -2.137137     24.928725     24.928725     49.857450
     -2.127127     21.395276     21.395276     42.790551
     -2.117117     18.594946     18.594946     37.189892
     -2.107107     16.335876     16.335876     32.671752
     -2.097097     14.308392     14.308392     28.616784
     -2.087087     12.251633     12.251633     24.503267
     -2.077077     10.064646     10.064646     20.129292
     -2.067067      7.819120      7.819120     15.638239
     -2.057057      5.689516      5.689516     11.379032
     -2.047047      3.854634      3.854634      7.709267
     -2.037037      2.424515      2.424515      4.849031
     -2.027027      1.418216      1.418216      2.836432
     -2.017017      0.785897      0.785897      1.571794
     -2.007007      0.451970      0.451970      0.903940
     -1.996997      0.357455      0.357455      0.714910
     -1.986987      0.490210      0.490210      0.980421
     -1.976977      0.900269      0.900269      1.800537
     -1.966967      1.699219      1.699219      3.398439
     -1.956957      3.039840      3.039840      6.079681
     -1.946947      5.071630      5.071630     10.143260
     -1.936937      7.875043      7.875043     15.750086
     -1.926927     11.391690     11.391690     22.783380
     -1.916917     15.381103     15.381103     30.762205
     -1.906907     19.434473     19.434473     38.868945
     -1.896897     23.055301     23.055301     46.110603
     -1.886887     25.783748     25.783748     51.567497
     -1.876877     27.316181     27.316181     54.632362
     -1.866867     27.572798     27.572798     55.145597
     -1.856857     26.694551     26.694551     53.389101
     -1.846847     24.985124     24.985124     49.970249
     -1.836837     22.829833     22.829833     45.659666
     -1.826827     20.614482     20.614482     41.228963
     -1.816817     18.650501     18.650501     37.301002
     -1.806807     17.109377     17.109377     34.218754
     -1.796797     15.982413     15.982413     31.964827
     -1.786787     15.091861     15.091861     30.183721
     -1.776777     14.166041     14.166041     28.332082
     -1.766767     12.956517     12.956517     25.913033
     -1.756757     11.345260     11.345260     22.690521
     -1.746747      9.390642      9.390642     18.781284
     -1.736737      7.295200      7.295200     14.590399
     -1.726727      5.321696      5.321696     10.643392
     -1.716717      3.706902      3.706902      7.413803
     -1.706707      2.612662      2.612662      5.225324
     -1.696697      2.122664      2.122664      4.245328
     -1.686687      2.264070      2.264070      4.528141
     -1.676677      3.023171      3.023171      6.046342
     -1.666667      4.336151      4.336151      8.672302
     -1.656657      6.060421      6.060421     12.120842
     -1.646647      7.953422      7.953422     15.906843
     -1.636637      9.690698      9.690698     19.381396
     -1.626627     10.938000     10.938000     21.876000
