# EIG2DOS: Utility for SIESTA to obtain the electronic density of states
#  E. Artacho, Apr 1999, A. Garcia, Apr 2012
#  Nick R. Papior, Feb 2017
# ------------------------------------------
# Eigenvalues calculated from a non-polarized calculation
# Eigenvalues read from siesta.EIG
# Kpoint weights read from siesta.KP
# Using smearing parameter:   0.0500
# Using 1000 points in the energy range
# Selected bands: 1 to: 2981
# Emin, Emax in file for selected band(s):    -27.4734203    218.4181780
# Nbands, Nspin, Nk   =   2981     1     1
# E_F                 =    -4.1848 eV --> (shifted to ZERO)
# Broadening          =     0.0500 eV
#
#        E            N(up)  (=)   N(down)         Ntot
     -5.000000     35.539910     35.539910     71.079820
     -4.989990     40.478391     40.478391     80.956783
     -4.979980     44.536605     44.536605     89.073209
     -4.969970     47.020005     47.020005     94.040009
     -4.959960     47.569823     47.569823     95.139646
     -4.949950     46.301348     46.301348     92.602696
     -4.939940     43.777877     43.777877     87.555754
     -4.929930     40.846802     40.846802     81.693604
     -4.919920     38.416620     38.416620     76.833240
     -4.909910     37.253540     37.253540     74.507081
     -4.899900     37.838283     37.838283     75.676565
     -4.889890     40.284757     40.284757     80.569514
     -4.879880     44.310667     44.310667     88.621333
     -4.869870     49.264141     49.264141     98.528281
     -4.859860     54.224629     54.224629    108.449258
     -4.849850     58.185855     58.185855    116.371710
     -4.839840     60.291958     60.291958    120.583915
     -4.829830     60.058317     60.058317    120.116634
     -4.819820     57.495979     57.495979    114.991957
     -4.809810     53.087501     53.087501    106.175002
     -4.799800     47.620880     47.620880     95.241759
     -4.789790     41.946626     41.946626     83.893252
     -4.779780     36.750957     36.750957     73.501914
     -4.769770     32.422573     32.422573     64.845146
     -4.759760     29.042657     29.042657     58.085314
     -4.749750     26.473726     26.473726     52.947453
     -4.739740     24.488362     24.488362     48.976725
     -4.729730     22.875689     22.875689     45.751379
     -4.719720     21.488086     21.488086     42.976172
     -4.709710     20.228916     20.228916     40.457833
     -4.699700     19.015845     19.015845     38.031689
     -4.689690     17.766477     17.766477     35.532954
     -4.679680     16.435562     16.435562     32.871124
     -4.669670     15.094158     15.094158     30.188317
     -4.659660     14.004271     14.004271     28.008541
     -4.649650     13.630714     13.630714     27.261428
     -4.639640     14.553006     14.553006     29.106012
     -4.629630     17.282857     17.282857     34.565714
     -4.619620     22.038872     22.038872     44.077744
     -4.609610     28.563200     28.563200     57.126399
     -4.599600     36.071236     36.071236     72.142473
     -4.589590     43.392688     43.392688     86.785377
     -4.579580     49.289152     49.289152     98.578304
     -4.569570     52.845161     52.845161    105.690322
     -4.559560     53.774965     53.774965    107.549930
     -4.549550     52.507777     52.507777    105.015555
     -4.539540     50.008732     50.008732    100.017465
     -4.529530     47.411758     47.411758     94.823517
     -4.519520     45.619201     45.619201     91.238402
     -4.509510     45.024486     45.024486     90.048972
     -4.499499     45.447871     45.447871     90.895741
     -4.489489     46.281632     46.281632     92.563264
     -4.479479     46.762991     46.762991     93.525982
     -4.469469     46.257802     46.257802     92.515604
     -4.459459     44.452066     44.452066     88.904133
     -4.449449     41.400283     41.400283     82.800566
     -4.439439     37.445226     37.445226     74.890452
     -4.429429     33.073651     33.073651     66.147303
     -4.419419     28.784187     28.784187     57.568373
     -4.409409     25.013968     25.013968     50.027937
     -4.399399     22.120353     22.120353     44.240706
     -4.389389     20.377531     20.377531     40.755061
     -4.379379     19.950017     19.950017     39.900034
     -4.369369     20.841522     20.841522     41.683044
     -4.359359     22.857240     22.857240     45.714480
     -4.349349     25.626226     25.626226     51.252452
     -4.339339     28.699002     28.699002     57.398003
     -4.329329     31.686556     31.686556     63.373112
     -4.319319     34.375943     34.375943     68.751886
     -4.309309     36.765575     36.765575     73.531150
     -4.299299     39.002731     39.002731     78.005462
     -4.289289     41.251121     41.251121     82.502242
     -4.279279     43.544985     43.544985     87.089969
     -4.269269     45.691253     45.691253     91.382506
     -4.259259     47.266966     47.266966     94.533932
     -4.249249     47.729627     47.729627     95.459253
     -4.239239     46.615654     46.615654     93.231309
     -4.229229     43.756521     43.756521     87.513042
     -4.219219     39.416800     39.416800     78.833601
     -4.209209     34.277317     34.277317     68.554634
     -4.199199     29.251575     29.251575     58.503149
     -4.189189     25.204054     25.204054     50.408109
     -4.179179     22.689060     22.689060     45.378120
     -4.169169     21.819492     21.819492     43.638984
     -4.159159     22.312656     22.312656     44.625311
     -4.149149     23.679159     23.679159     47.358318
     -4.139139     25.459665     25.459665     50.919329
     -4.129129     27.397108     27.397108     54.794216
     -4.119119     29.464331     29.464331     58.928662
     -4.109109     31.737627     31.737627     63.475255
     -4.099099     34.188692     34.188692     68.377384
     -4.089089     36.521443     36.521443     73.042886
     -4.079079     38.169258     38.169258     76.338517
     -4.069069     38.485010     38.485010     76.970020
     -4.059059     37.041118     37.041118     74.082236
     -4.049049     33.881224     33.881224     67.762448
     -4.039039     29.582901     29.582901     59.165802
     -4.029029     25.094375     25.094375     50.188749
     -4.019019     21.430164     21.430164     42.860328
     -4.009009     19.373956     19.373956     38.747911
     -3.998999     19.310752     19.310752     38.621503
     -3.988989     21.224625     21.224625     42.449251
     -3.978979     24.814299     24.814299     49.628598
     -3.968969     29.642776     29.642776     59.285553
     -3.958959     35.256042     35.256042     70.512084
     -3.948949     41.251106     41.251106     82.502212
     -3.938939     47.307603     47.307603     94.615207
     -3.928929     53.199590     53.199590    106.399181
     -3.918919     58.784958     58.784958    117.569916
     -3.908909     63.957814     63.957814    127.915627
     -3.898899     68.564432     68.564432    137.128865
     -3.888889     72.317648     72.317648    144.635296
     -3.878879     74.767015     74.767015    149.534030
     -3.868869     75.367330     75.367330    150.734661
     -3.858859     73.639511     73.639511    147.279022
     -3.848849     69.365329     69.365329    138.730658
     -3.838839     62.733806     62.733806    125.467612
     -3.828829     54.374290     54.374290    108.748579
     -3.818819     45.256737     45.256737     90.513474
     -3.808809     36.488766     36.488766     72.977533
     -3.798799     29.071513     29.071513     58.143027
     -3.788789     23.684458     23.684458     47.368916
     -3.778779     20.556129     20.556129     41.112258
     -3.768769     19.450800     19.450800     38.901600
     -3.758759     19.769750     19.769750     39.539500
     -3.748749     20.737091     20.737091     41.474181
     -3.738739     21.620723     21.620723     43.241446
     -3.728729     21.932118     21.932118     43.864237
     -3.718719     21.554437     21.554437     43.108873
     -3.708709     20.764855     20.764855     41.529709
     -3.698699     20.140945     20.140945     40.281891
     -3.688689     20.370021     20.370021     40.740042
     -3.678679     22.010383     22.010383     44.020767
     -3.668669     25.276256     25.276256     50.552513
     -3.658659     29.921889     29.921889     59.843779
     -3.648649     35.275247     35.275247     70.550494
     -3.638639     40.419849     40.419849     80.839698
     -3.628629     44.463574     44.463574     88.927148
     -3.618619     46.795165     46.795165     93.590331
     -3.608609     47.235115     47.235115     94.470230
     -3.598599     46.035447     46.035447     92.070894
     -3.588589     43.745534     43.745534     87.491068
     -3.578579     41.005693     41.005693     82.011387
     -3.568569     38.341797     38.341797     76.683594
     -3.558559     36.020685     36.020685     72.041369
     -3.548549     34.003520     34.003520     68.007040
     -3.538539     32.008475     32.008475     64.016950
     -3.528529     29.662222     29.662222     59.324444
     -3.518519     26.685054     26.685054     53.370107
     -3.508509     23.034988     23.034988     46.069976
     -3.498498     18.950905     18.950905     37.901810
     -3.488488     14.881998     14.881998     29.763997
     -3.478478     11.343350     11.343350     22.686701
     -3.468468      8.763096      8.763096     17.526192
     -3.458458      7.374452      7.374452     14.748904
     -3.448448      7.173317      7.173317     14.346633
     -3.438438      7.936261      7.936261     15.872523
     -3.428428      9.287153      9.287153     18.574306
     -3.418418     10.803640     10.803640     21.607280
     -3.408408     12.149702     12.149702     24.299403
     -3.398398     13.202375     13.202375     26.404750
     -3.388388     14.123850     14.123850     28.247700
     -3.378378     15.334991     15.334991     30.669981
     -3.368368     17.379948     17.379948     34.759896
     -3.358358     20.718965     20.718965     41.437929
     -3.348348     25.521077     25.521077     51.042154
     -3.338338     31.531629     31.531629     63.063257
     -3.328328     38.062425     38.062425     76.124850
     -3.318318     44.111786     44.111786     88.223571
     -3.308308     48.585186     48.585186     97.170372
     -3.298298     50.561771     50.561771    101.123542
     -3.288288     49.536773     49.536773     99.073545
     -3.278278     45.566673     45.566673     91.133346
     -3.268268     39.262412     39.262412     78.524824
     -3.258258     31.622612     31.622612     63.245224
     -3.248248     23.760966     23.760966     47.521932
     -3.238238     16.627348     16.627348     33.254696
     -3.228228     10.821159     10.821159     21.642318
     -3.218218      6.546731      6.546731     13.093462
     -3.208208      3.694597      3.694597      7.389194
     -3.198198      1.987635      1.987635      3.975270
     -3.188188      1.126080      1.126080      2.252161
     -3.178178      0.890458      0.890458      1.780916
     -3.168168      1.192092      1.192092      2.384183
     -3.158158      2.078105      2.078105      4.156209
     -3.148148      3.698731      3.698731      7.397462
     -3.138138      6.239520      6.239520     12.479039
     -3.128128      9.822784      9.822784     19.645568
     -3.118118     14.397291     14.397291     28.794581
     -3.108108     19.655739     19.655739     39.311479
     -3.098098     25.028756     25.028756     50.057513
     -3.088088     29.785454     29.785454     59.570907
     -3.078078     33.223456     33.223456     66.446911
     -3.068068     34.878125     34.878125     69.756250
     -3.058058     34.656939     34.656939     69.313877
     -3.048048     32.834021     32.834021     65.668043
     -3.038038     29.911341     29.911341     59.822682
     -3.028028     26.424278     26.424278     52.848556
     -3.018018     22.793610     22.793610     45.587219
     -3.008008     19.288070     19.288070     38.576140
     -2.997998     16.089467     16.089467     32.178934
     -2.987988     13.395284     13.395284     26.790569
     -2.977978     11.484415     11.484415     22.968831
     -2.967968     10.705638     10.705638     21.411277
     -2.957958     11.394590     11.394590     22.789180
     -2.947948     13.755296     13.755296     27.510592
     -2.937938     17.749915     17.749915     35.499830
     -2.927928     23.034978     23.034978     46.069956
     -2.917918     28.972927     28.972927     57.945853
     -2.907908     34.733004     34.733004     69.466009
     -2.897898     39.470021     39.470021     78.940041
     -2.887888     42.535747     42.535747     85.071494
     -2.877878     43.650932     43.650932     87.301863
     -2.867868     42.966152     42.966152     85.932304
     -2.857858     40.976859     40.976859     81.953717
     -2.847848     38.320703     38.320703     76.641406
     -2.837838     35.542948     35.542948     71.085895
     -2.827828     32.934363     32.934363     65.868725
     -2.817818     30.510277     30.510277     61.020554
     -2.807808     28.125759     28.125759     56.251517
     -2.797798     25.651311     25.651311     51.302622
     -2.787788     23.106877     23.106877     46.213754
     -2.777778     20.684186     20.684186     41.368372
     -2.767768     18.657987     18.657987     37.315974
     -2.757758     17.252175     17.252175     34.504349
     -2.747748     16.547954     16.547954     33.095907
     -2.737738     16.486215     16.486215     32.972429
     -2.727728     16.948950     16.948950     33.897900
     -2.717718     17.850047     17.850047     35.700093
     -2.707708     19.162436     19.162436     38.324873
     -2.697698     20.860431     20.860431     41.720863
     -2.687688     22.826868     22.826868     45.653737
     -2.677678     24.810876     24.810876     49.621753
     -2.667668     26.492200     26.492200     52.984399
     -2.657658     27.629578     27.629578     55.259156
     -2.647648     28.200969     28.200969     56.401938
     -2.637638     28.437035     28.437035     56.874070
     -2.627628     28.714830     28.714830     57.429660
     -2.617618     29.369441     29.369441     58.738882
     -2.607608     30.531408     30.531408     61.062816
     -2.597598     32.073085     32.073085     64.146169
     -2.587588     33.671704     33.671704     67.343409
     -2.577578     34.930413     34.930413     69.860825
     -2.567568     35.486721     35.486721     70.973442
     -2.557558     35.077379     35.077379     70.154757
     -2.547548     33.575719     33.575719     67.151438
     -2.537538     31.029695     31.029695     62.059391
     -2.527528     27.701324     27.701324     55.402648
     -2.517518     24.073594     24.073594     48.147189
     -2.507508     20.785656     20.785656     41.571313
     -2.497497     18.489630     18.489630     36.979259
     -2.487487     17.669394     17.669394     35.338788
     -2.477477     18.490975     18.490975     36.981950
     -2.467467     20.748560     20.748560     41.497121
     -2.457457     23.934337     23.934337     47.868673
     -2.447447     27.411354     27.411354     54.822707
     -2.437437     30.626015     30.626015     61.252030
     -2.427427     33.276700     33.276700     66.553401
     -2.417417     35.367359     35.367359     70.734718
     -2.407407     37.118917     37.118917     74.237833
     -2.397397     38.773254     38.773254     77.546507
     -2.387387     40.379494     40.379494     80.758988
     -2.377377     41.672613     41.672613     83.345226
     -2.367367     42.121379     42.121379     84.242759
     -2.357357     41.142353     41.142353     82.284706
     -2.347347     38.386118     38.386118     76.772237
     -2.337337     33.954908     33.954908     67.909816
     -2.327327     28.441808     28.441808     56.883616
     -2.317317     22.775590     22.775590     45.551180
     -2.307307     17.952650     17.952650     35.905299
     -2.297297     14.778901     14.778901     29.557801
     -2.287287     13.713928     13.713928     27.427857
     -2.277277     14.841090     14.841090     29.682179
     -2.267267     17.930087     17.930087     35.860175
     -2.257257     22.539443     22.539443     45.078885
     -2.247247     28.118059     28.118059     56.236119
     -2.237237     34.085173     34.085173     68.170345
     -2.227227     39.881619     39.881619     79.763238
     -2.217217     44.993423     44.993423     89.986845
     -2.207207     48.958317     48.958317     97.916634
     -2.197197     51.377181     51.377181    102.754362
     -2.187187     51.954535     51.954535    103.909071
     -2.177177     50.573396     50.573396    101.146792
     -2.167167     47.373955     47.373955     94.747910
     -2.157157     42.778259     42.778259     85.556518
     -2.147147     37.414194     37.414194     74.828388
     -2.137137     31.946312     31.946312     63.892624
     -2.127127     26.884717     26.884717     53.769434
     -2.117117     22.466976     22.466976     44.933952
     -2.107107     18.668890     18.668890     37.337780
     -2.097097     15.323736     15.323736     30.647472
     -2.087087     12.270707     12.270707     24.541414
     -2.077077      9.450296      9.450296     18.900593
     -2.067067      6.911554      6.911554     13.823107
     -2.057057      4.753709      4.753709      9.507418
     -2.047047      3.054059      3.054059      6.108118
     -2.037037      1.824929      1.824929      3.649859
     -2.027027      1.012491      1.012491      2.024982
     -2.017017      0.524208      0.524208      1.048416
     -2.007007      0.263231      0.263231      0.526462
     -1.996997      0.154628      0.154628      0.309256
     -1.986987      0.159568      0.159568      0.319136
     -1.976977      0.280848      0.280848      0.561696
     -1.966967      0.563651      0.563651      1.127302
     -1.956957      1.091431      1.091431      2.182862
     -1.946947      1.972501      1.972501      3.945003
     -1.936937      3.312523      3.312523      6.625046
     -1.926927      5.173765      5.173765     10.347530
     -1.916917      7.531955      7.531955     15.063910
     -1.906907     10.249452     10.249452     20.498904
     -1.896897     13.082091     13.082091     26.164182
     -1.886887     15.724199     15.724199     31.448397
     -1.876877     17.878774     17.878774     35.757549
     -1.866867     19.328921     19.328921     38.657843
     -1.856857     19.988216     19.988216     39.976431
     -1.846847     19.917301     19.917301     39.834602
     -1.836837     19.302654     19.302654     38.605307
     -1.826827     18.398931     18.398931     36.797862
     -1.816817     17.444861     17.444861     34.889722
     -1.806807     16.577905     16.577905     33.155809
     -1.796797     15.785425     15.785425     31.570850
     -1.786787     14.923037     14.923037     29.846074
     -1.776777     13.798900     13.798900     27.597800
     -1.766767     12.283613     12.283613     24.567225
     -1.756757     10.387998     10.387998     20.775996
     -1.746747      8.270341      8.270341     16.540681
     -1.736737      6.177488      6.177488     12.354975
     -1.726727      4.360120      4.360120      8.720241
     -1.716717      3.008640      3.008640      6.017281
     -1.706707      2.233202      2.233202      4.466404
     -1.696697      2.079208      2.079208      4.158416
     -1.686687      2.549716      2.549716      5.099431
     -1.676677      3.608454      3.608454      7.216908
     -1.666667      5.157139      5.157139     10.314279
     -1.656657      7.005267      7.005267     14.010534
     -1.646647      8.864597      8.864597     17.729193
     -1.636637     10.394030     10.394030     20.788061
     -1.626627     11.294478     11.294478     22.588957
