# EIG2DOS: Utility for SIESTA to obtain the electronic density of states
#  E. Artacho, Apr 1999, A. Garcia, Apr 2012
#  Nick R. Papior, Feb 2017
# ------------------------------------------
# Eigenvalues calculated from a non-polarized calculation
# Eigenvalues read from siesta.EIG
# Kpoint weights read from siesta.KP
# Using smearing parameter:   0.0500
# Using 1000 points in the energy range
# Selected bands: 1 to: 2981
# Emin, Emax in file for selected band(s):    -27.3138583    218.3852710
# Nbands, Nspin, Nk   =   2981     1     1
# E_F                 =    -4.2166 eV --> (shifted to ZERO)
# Broadening          =     0.0500 eV
#
#        E            N(up)  (=)   N(down)         Ntot
     -5.000000     32.776347     32.776347     65.552694
     -4.989990     37.534749     37.534749     75.069497
     -4.979980     41.838145     41.838145     83.676290
     -4.969970     44.956049     44.956049     89.912098
     -4.959960     46.314798     46.314798     92.629596
     -4.949950     45.688001     45.688001     91.376002
     -4.939940     43.276767     43.276767     86.553534
     -4.929930     39.663692     39.663692     79.327383
     -4.919920     35.680760     35.680760     71.361521
     -4.909910     32.249286     32.249286     64.498573
     -4.899900     30.226170     30.226170     60.452339
     -4.889890     30.255728     30.255728     60.511456
     -4.879880     32.618674     32.618674     65.237349
     -4.869870     37.101245     37.101245     74.202489
     -4.859860     42.949401     42.949401     85.898801
     -4.849850     48.978591     48.978591     97.957182
     -4.839840     53.854821     53.854821    107.709642
     -4.829830     56.471694     56.471694    112.943388
     -4.819820     56.279425     56.279425    112.558849
     -4.809810     53.426870     53.426870    106.853740
     -4.799800     48.661015     48.661015     97.322030
     -4.789790     43.042402     43.042402     86.084805
     -4.779780     37.611843     37.611843     75.223685
     -4.769770     33.142062     33.142062     66.284124
     -4.759760     30.038909     30.038909     60.077817
     -4.749750     28.371616     28.371616     56.743232
     -4.739740     27.962226     27.962226     55.924452
     -4.729730     28.469361     28.469361     56.938722
     -4.719720     29.442534     29.442534     58.885068
     -4.709710     30.364964     30.364964     60.729928
     -4.699700     30.718770     30.718770     61.437541
     -4.689690     30.090174     30.090174     60.180348
     -4.679680     28.297104     28.297104     56.594208
     -4.669670     25.491357     25.491357     50.982715
     -4.659660     22.183204     22.183204     44.366409
     -4.649650     19.162150     19.162150     38.324299
     -4.639640     17.326830     17.326830     34.653659
     -4.629630     17.466204     17.466204     34.932408
     -4.619620     20.043075     20.043075     40.086151
     -4.609610     25.028573     25.028573     50.057147
     -4.599600     31.835028     31.835028     63.670057
     -4.589590     39.390652     39.390652     78.781304
     -4.579580     46.373504     46.373504     92.747008
     -4.569570     51.564502     51.564502    103.129004
     -4.559560     54.211093     54.211093    108.422187
     -4.549550     54.259815     54.259815    108.519630
     -4.539540     52.351442     52.351442    104.702883
     -4.529530     49.568793     49.568793     99.137586
     -4.519520     47.035690     47.035690     94.071381
     -4.509510     45.528685     45.528685     91.057369
     -4.499499     45.250598     45.250598     90.501195
     -4.489489     45.837625     45.837625     91.675250
     -4.479479     46.570539     46.570539     93.141078
     -4.469469     46.682574     46.682574     93.365148
     -4.459459     45.633200     45.633200     91.266399
     -4.449449     43.252129     43.252129     86.504258
     -4.439439     39.728842     39.728842     79.457685
     -4.429429     35.492653     35.492653     70.985306
     -4.419419     31.063536     31.063536     62.127072
     -4.409409     26.941201     26.941201     53.882403
     -4.399399     23.553329     23.553329     47.106658
     -4.389389     21.237214     21.237214     42.474428
     -4.379379     20.214437     20.214437     40.428875
     -4.369369     20.543078     20.543078     41.086156
     -4.359359     22.073133     22.073133     44.146267
     -4.349349     24.452087     24.452087     48.904175
     -4.339339     27.208952     27.208952     54.417904
     -4.329329     29.898491     29.898491     59.796983
     -4.319319     32.246078     32.246078     64.492155
     -4.309309     34.225862     34.225862     68.451724
     -4.299299     36.033801     36.033801     72.067602
     -4.289289     37.962954     37.962954     75.925908
     -4.279279     40.227588     40.227588     80.455176
     -4.269269     42.802877     42.802877     85.605754
     -4.259259     45.347356     45.347356     90.694713
     -4.249249     47.255502     47.255502     94.511005
     -4.239239     47.844861     47.844861     95.689721
     -4.229229     46.621734     46.621734     93.243469
     -4.219219     43.517071     43.517071     87.034142
     -4.209209     38.976918     38.976918     77.953835
     -4.199199     33.848714     33.848714     67.697428
     -4.189189     29.103194     29.103194     58.206388
     -4.179179     25.515529     25.515529     51.031058
     -4.169169     23.447600     23.447600     46.895201
     -4.159159     22.816812     22.816812     45.633623
     -4.149149     23.242266     23.242266     46.484532
     -4.139139     24.279724     24.279724     48.559448
     -4.129129     25.627567     25.627567     51.255135
     -4.119119     27.210980     27.210980     54.421959
     -4.109109     29.112970     29.112970     58.225939
     -4.099099     31.394154     31.394154     62.788307
     -4.089089     33.901907     33.901907     67.803813
     -4.079079     36.185842     36.185842     72.371684
     -4.069069     37.592081     37.592081     75.184163
     -4.059059     37.514399     37.514399     75.028798
     -4.049049     35.684549     35.684549     71.369097
     -4.039039     32.348809     32.348809     64.697619
     -4.029029     28.232580     28.232580     56.465160
     -4.019019     24.308944     24.308944     48.617888
     -4.009009     21.488235     21.488235     42.976471
     -3.998999     20.372529     20.372529     40.745059
     -3.988989     21.163791     21.163791     42.327582
     -3.978979     23.722274     23.722274     47.444547
     -3.968969     27.703135     27.703135     55.406271
     -3.958959     32.688715     32.688715     65.377429
     -3.948949     38.272408     38.272408     76.544816
     -3.938939     44.098699     44.098699     88.197399
     -3.928929     49.885114     49.885114     99.770228
     -3.918919     55.437091     55.437091    110.874182
     -3.908909     60.639620     60.639620    121.279239
     -3.898899     65.403333     65.403333    130.806665
     -3.888889     69.570021     69.570021    139.140041
     -3.878879     72.823458     72.823458    145.646916
     -3.868869     74.670651     74.670651    149.341302
     -3.858859     74.535103     74.535103    149.070206
     -3.848849     71.947102     71.947102    143.894205
     -3.838839     66.759407     66.759407    133.518813
     -3.828829     59.293215     59.293215    118.586430
     -3.818819     50.342542     50.342542    100.685083
     -3.808809     41.022642     41.022642     82.045284
     -3.798799     32.510902     32.510902     65.021805
     -3.788789     25.767490     25.767490     51.534981
     -3.778779     21.324041     21.324041     42.648082
     -3.768769     19.197480     19.197480     38.394960
     -3.758759     18.941511     18.941511     37.883022
     -3.748749     19.809239     19.809239     39.618478
     -3.738739     20.976963     20.976963     41.953927
     -3.728729     21.771568     21.771568     43.543136
     -3.718719     21.847826     21.847826     43.695651
     -3.708709     21.273429     21.273429     42.546859
     -3.698699     20.497504     20.497504     40.995008
     -3.688689     20.203167     20.203167     40.406333
     -3.678679     21.075701     21.075701     42.151401
     -3.668669     23.549564     23.549564     47.099128
     -3.658659     27.617513     27.617513     55.235026
     -3.648649     32.777793     32.777793     65.555585
     -3.638639     38.152050     38.152050     76.304099
     -3.628629     42.738306     42.738306     85.476613
     -3.618619     45.702427     45.702427     91.404854
     -3.608609     46.594841     46.594841     93.189682
     -3.598599     45.420095     45.420095     90.840190
     -3.588589     42.560235     42.560235     85.120469
     -3.578579     38.612370     38.612370     77.224740
     -3.568569     34.214129     34.214129     68.428259
     -3.558559     29.904614     29.904614     59.809229
     -3.548549     26.036042     26.036042     52.072084
     -3.538539     22.738013     22.738013     45.476026
     -3.528529     19.938622     19.938622     39.877244
     -3.518519     17.442887     17.442887     34.885774
     -3.508509     15.048531     15.048531     30.097062
     -3.498498     12.655661     12.655661     25.311322
     -3.488488     10.323776     10.323776     20.647553
     -3.478478      8.254397      8.254397     16.508795
     -3.468468      6.713949      6.713949     13.427897
     -3.458458      5.934912      5.934912     11.869824
     -3.448448      6.033293      6.033293     12.066586
     -3.438438      6.966288      6.966288     13.932576
     -3.428428      8.540319      8.540319     17.080638
     -3.418418     10.470269     10.470269     20.940537
     -3.408408     12.478484     12.478484     24.956968
     -3.398398     14.402575     14.402575     28.805150
     -3.388388     16.264586     16.264586     32.529171
     -3.378378     18.260152     18.260152     36.520304
     -3.368368     20.662610     20.662610     41.325220
     -3.358358     23.685245     23.685245     47.370489
     -3.348348     27.369928     27.369928     54.739857
     -3.338338     31.550062     31.550062     63.100124
     -3.328328     35.884281     35.884281     71.768562
     -3.318318     39.917748     39.917748     79.835496
     -3.308308     43.133815     43.133815     86.267631
     -3.298298     45.001307     45.001307     90.002614
     -3.288288     45.054719     45.054719     90.109437
     -3.278278     43.026447     43.026447     86.052893
     -3.268268     38.991160     38.991160     77.982321
     -3.258258     33.436953     33.436953     66.873906
     -3.248248     27.194135     27.194135     54.388270
     -3.238238     21.225930     21.225930     42.451860
     -3.228228     16.362242     16.362242     32.724485
     -3.218218     13.084729     13.084729     26.169459
     -3.208208     11.438677     11.438677     22.877354
     -3.198198     11.086794     11.086794     22.173587
     -3.188188     11.470183     11.470183     22.940366
     -3.178178     12.017700     12.017700     24.035399
     -3.168168     12.340499     12.340499     24.680997
     -3.158158     12.355556     12.355556     24.711112
     -3.148148     12.300207     12.300207     24.600414
     -3.138138     12.630966     12.630966     25.261932
     -3.128128     13.837639     13.837639     27.675278
     -3.118118     16.234212     16.234212     32.468424
     -3.108108     19.799142     19.799142     39.598284
     -3.098098     24.125150     24.125150     48.250300
     -3.088088     28.504823     28.504823     57.009647
     -3.078078     32.130419     32.130419     64.260838
     -3.068068     34.338341     34.338341     68.676682
     -3.058058     34.802744     34.802744     69.605489
     -3.048048     33.598759     33.598759     67.197518
     -3.038038     31.114944     31.114944     62.229889
     -3.028028     27.868865     27.868865     55.737729
     -3.018018     24.325368     24.325368     48.650735
     -3.008008     20.804690     20.804690     41.609380
     -2.997998     17.505841     17.505841     35.011682
     -2.987988     14.601706     14.601706     29.203412
     -2.977978     12.329298     12.329298     24.658596
     -2.967968     11.014891     11.014891     22.029782
     -2.957958     11.018469     11.018469     22.036939
     -2.947948     12.622586     12.622586     25.245172
     -2.937938     15.909577     15.909577     31.819154
     -2.927928     20.671127     20.671127     41.342254
     -2.917918     26.385711     26.385711     52.771421
     -2.907908     32.285604     32.285604     64.571209
     -2.897898     37.511700     37.511700     75.023401
     -2.887888     41.320988     41.320988     82.641977
     -2.877878     43.280396     43.280396     86.560792
     -2.867868     43.371642     43.371642     86.743285
     -2.857858     41.958279     41.958279     83.916558
     -2.847848     39.622351     39.622351     79.244703
     -2.837838     36.938354     36.938354     73.876709
     -2.827828     34.283648     34.283648     68.567297
     -2.817818     31.766976     31.766976     63.533951
     -2.807808     29.296403     29.296403     58.592807
     -2.797798     26.736471     26.736471     53.472943
     -2.787788     24.061085     24.061085     48.122171
     -2.777778     21.417949     21.417949     42.835898
     -2.767768     19.076112     19.076112     38.152225
     -2.757758     17.297721     17.297721     34.595441
     -2.747748     16.217479     16.217479     32.434958
     -2.737738     15.803908     15.803908     31.607816
     -2.727728     15.920931     15.920931     31.841863
     -2.717718     16.441410     16.441410     32.882820
     -2.707708     17.329314     17.329314     34.658628
     -2.697698     18.629399     18.629399     37.258798
     -2.687688     20.370190     20.370190     40.740380
     -2.677678     22.452860     22.452860     44.905720
     -2.667668     24.616428     24.616428     49.232856
     -2.657658     26.521466     26.521466     53.042933
     -2.647648     27.910755     27.910755     55.821509
     -2.637638     28.745687     28.745687     57.491374
     -2.627628     29.227034     29.227034     58.454069
     -2.617618     29.683119     29.683119     59.366238
     -2.607608     30.393988     30.393988     60.787976
     -2.597598     31.454977     31.454977     62.909953
     -2.587588     32.745587     32.745587     65.491174
     -2.577578     33.994462     33.994462     67.988923
     -2.567568     34.878710     34.878710     69.757421
     -2.557558     35.101037     35.101037     70.202073
     -2.547548     34.434236     34.434236     68.868472
     -2.537538     32.760505     32.760505     65.521009
     -2.527528     30.127758     30.127758     60.255516
     -2.517518     26.806027     26.806027     53.612054
     -2.507508     23.295087     23.295087     46.590174
     -2.497497     20.243109     20.243109     40.486217
     -2.487487     18.282351     18.282351     36.564703
     -2.477477     17.839024     17.839024     35.678047
     -2.467467     18.996736     18.996736     37.993472
     -2.457457     21.474774     21.474774     42.949549
     -2.447447     24.735028     24.735028     49.470055
     -2.437437     28.177039     28.177039     56.354078
     -2.427427     31.341600     31.341600     62.683201
     -2.417417     34.036177     34.036177     68.072355
     -2.407407     36.326300     36.326300     72.652601
     -2.397397     38.396444     38.396444     76.792889
     -2.387387     40.347284     40.347284     80.694569
     -2.377377     42.033329     42.033329     84.066657
     -2.367367     43.033783     43.033783     86.067567
     -2.357357     42.789008     42.789008     85.578016
     -2.347347     40.850282     40.850282     81.700563
     -2.337337     37.125847     37.125847     74.251694
     -2.327327     32.001122     32.001122     64.002244
     -2.317317     26.272934     26.272934     52.545869
     -2.307307     20.930965     20.930965     41.861930
     -2.297297     16.887830     16.887830     33.775660
     -2.287287     14.765708     14.765708     29.531416
     -2.277277     14.799665     14.799665     29.599329
     -2.267267     16.855415     16.855415     33.710830
     -2.257257     20.519537     20.519537     41.039075
     -2.247247     25.213912     25.213912     50.427824
     -2.237237     30.300717     30.300717     60.601434
     -2.227227     35.162245     35.162245     70.324490
     -2.217217     39.253120     39.253120     78.506240
     -2.207207     42.131888     42.131888     84.263776
     -2.197197     43.485607     43.485607     86.971214
     -2.187187     43.161074     43.161074     86.322147
     -2.177177     41.204416     41.204416     82.408833
     -2.167167     37.889405     37.889405     75.778810
     -2.157157     33.698877     33.698877     67.397754
     -2.147147     29.232321     29.232321     58.464641
     -2.137137     25.050705     25.050705     50.101411
     -2.127127     21.516175     21.516175     43.032349
     -2.117117     18.703549     18.703549     37.407098
     -2.107107     16.431301     16.431301     32.862602
     -2.097097     14.395994     14.395994     28.791988
     -2.087087     12.338094     12.338094     24.676188
     -2.077077     10.156189     10.156189     20.312377
     -2.067067      7.925360      7.925360     15.850719
     -2.057057      5.833816      5.833816     11.667631
     -2.047047      4.090800      4.090800      8.181600
     -2.037037      2.858475      2.858475      5.716950
     -2.027027      2.230125      2.230125      4.460250
     -2.017017      2.242138      2.242138      4.484277
     -2.007007      2.889846      2.889846      5.779693
     -1.996997      4.124204      4.124204      8.248407
     -1.986987      5.829236      5.829236     11.658473
     -1.976977      7.803323      7.803323     15.606647
     -1.966967      9.774952      9.774952     19.549903
     -1.956957     11.467820     11.467820     22.935640
     -1.946947     12.697423     12.697423     25.394847
     -1.936937     13.451690     13.451690     26.903379
     -1.926927     13.904785     13.904785     27.809569
     -1.916917     14.343919     14.343919     28.687839
     -1.906907     15.037699     15.037699     30.075399
     -1.896897     16.109710     16.109710     32.219419
     -1.886887     17.479021     17.479021     34.958041
     -1.876877     18.892439     18.892439     37.784878
     -1.866867     20.027100     20.027100     40.054199
     -1.856857     20.614017     20.614017     41.228034
     -1.846847     20.533273     20.533273     41.066547
     -1.836837     19.849801     19.849801     39.699603
     -1.826827     18.780852     18.780852     37.561704
     -1.816817     17.606537     17.606537     35.213075
     -1.806807     16.554626     16.554626     33.109252
     -1.796797     15.706281     15.706281     31.412562
     -1.786787     14.968114     14.968114     29.936228
     -1.776777     14.128585     14.128585     28.257169
     -1.766767     12.972840     12.972840     25.945679
     -1.756757     11.396723     11.396723     22.793447
     -1.746747      9.462155      9.462155     18.924309
     -1.736737      7.372477      7.372477     14.744954
     -1.726727      5.392442      5.392442     10.784884
     -1.716717      3.762559      3.762559      7.525118
     -1.706707      2.648911      2.648911      5.297822
     -1.696697      2.138544      2.138544      4.277089
     -1.686687      2.260641      2.260641      4.521282
     -1.676677      3.002682      3.002682      6.005364
     -1.666667      4.302108      4.302108      8.604217
     -1.656657      6.018145      6.018145     12.036289
     -1.646647      7.910231      7.910231     15.820461
     -1.636637      9.655002      9.655002     19.310003
     -1.626627     10.917204     10.917204     21.834409
