# EIG2DOS: Utility for SIESTA to obtain the electronic density of states
#  E. Artacho, Apr 1999, A. Garcia, Apr 2012
#  Nick R. Papior, Feb 2017
# ------------------------------------------
# Eigenvalues calculated from a non-polarized calculation
# Eigenvalues read from siesta.EIG
# Kpoint weights read from siesta.KP
# Using smearing parameter:   0.0500
# Using 1000 points in the energy range
# Selected bands: 1 to: 2981
# Emin, Emax in file for selected band(s):    -27.3752509    218.4171870
# Nbands, Nspin, Nk   =   2981     1     1
# E_F                 =    -4.1835 eV --> (shifted to ZERO)
# Broadening          =     0.0500 eV
#
#        E            N(up)  (=)   N(down)         Ntot
     -5.000000     33.672328     33.672328     67.344656
     -4.989990     38.949976     38.949976     77.899953
     -4.979980     43.588124     43.588124     87.176248
     -4.969970     46.726797     46.726797     93.453594
     -4.959960     47.764548     47.764548     95.529095
     -4.949950     46.562140     46.562140     93.124279
     -4.939940     43.489038     43.489038     86.978076
     -4.929930     39.316950     39.316950     78.633900
     -4.919920     35.028590     35.028590     70.057180
     -4.909910     31.617838     31.617838     63.235676
     -4.899900     29.918916     29.918916     59.837831
     -4.889890     30.461940     30.461940     60.923879
     -4.879880     33.349485     33.349485     66.698971
     -4.869870     38.182342     38.182342     76.364683
     -4.859860     44.092245     44.092245     88.184491
     -4.849850     49.923068     49.923068     99.846135
     -4.839840     54.535117     54.535117    109.070235
     -4.829830     57.130258     57.130258    114.260516
     -4.819820     57.463562     57.463562    114.927125
     -4.809810     55.848804     55.848804    111.697607
     -4.799800     52.961091     52.961091    105.922182
     -4.789790     49.536224     49.536224     99.072449
     -4.779780     46.108393     46.108393     92.216787
     -4.769770     42.894293     42.894293     85.788586
     -4.759760     39.846010     39.846010     79.692019
     -4.749750     36.808946     36.808946     73.617892
     -4.739740     33.681358     33.681358     67.362715
     -4.729730     30.492891     30.492891     60.985783
     -4.719720     27.379189     27.379189     54.758378
     -4.709710     24.490265     24.490265     48.980529
     -4.699700     21.901631     21.901631     43.803262
     -4.689690     19.588480     19.588480     39.176960
     -4.679680     17.483539     17.483539     34.967078
     -4.669670     15.590166     15.590166     31.180333
     -4.659660     14.088737     14.088737     28.177474
     -4.649650     13.372141     13.372141     26.744281
     -4.639640     13.974215     13.974215     27.948430
     -4.629630     16.398185     16.398185     32.796370
     -4.619620     20.894340     20.894340     41.788681
     -4.609610     27.266471     27.266471     54.532942
     -4.599600     34.795886     34.795886     69.591772
     -4.589590     42.347837     42.347837     84.695674
     -4.579580     48.661077     48.661077     97.322155
     -4.569570     52.734408     52.734408    105.468815
     -4.559560     54.159157     54.159157    108.318314
     -4.549550     53.250119     53.250119    106.500237
     -4.539540     50.909531     50.909531    101.819062
     -4.529530     48.278665     48.278665     96.557329
     -4.519520     46.324098     46.324098     92.648196
     -4.509510     45.524794     45.524794     91.049588
     -4.499499     45.770069     45.770069     91.540138
     -4.489489     46.482917     46.482917     92.965835
     -4.479479     46.894063     46.894063     93.788127
     -4.469469     46.344192     46.344192     92.688384
     -4.459459     44.498248     44.498248     88.996496
     -4.449449     41.407937     41.407937     82.815874
     -4.439439     37.430774     37.430774     74.861548
     -4.429429     33.072799     33.072799     66.145597
     -4.419419     28.840326     28.840326     57.680652
     -4.409409     25.157472     25.157472     50.314944
     -4.399399     22.351176     22.351176     44.702351
     -4.389389     20.661213     20.661213     41.322426
     -4.379379     20.228801     20.228801     40.457603
     -4.369369     21.053368     21.053368     42.106737
     -4.359359     22.951846     22.951846     45.903692
     -4.349349     25.570745     25.570745     51.141489
     -4.339339     28.474243     28.474243     56.948486
     -4.329329     31.281335     31.281335     62.562671
     -4.319319     33.788326     33.788326     67.576651
     -4.309309     36.014226     36.014226     72.028452
     -4.299299     38.142857     38.142857     76.285715
     -4.289289     40.383240     40.383240     80.766479
     -4.279279     42.805568     42.805568     85.611137
     -4.269269     45.222661     45.222661     90.445323
     -4.259259     47.175633     47.175633     94.351266
     -4.249249     48.049371     48.049371     96.098741
     -4.239239     47.292244     47.292244     94.584487
     -4.229229     44.660484     44.660484     89.320967
     -4.219219     40.379120     40.379120     80.758240
     -4.209209     35.133813     35.133813     70.267627
     -4.199199     29.880405     29.880405     59.760810
     -4.189189     25.546111     25.546111     51.092222
     -4.179179     22.748970     22.748970     45.497940
     -4.169169     21.651085     21.651085     43.302169
     -4.159159     21.995417     21.995417     43.990834
     -4.149149     23.292401     23.292401     46.584803
     -4.139139     25.061008     25.061008     50.122016
     -4.129129     27.011836     27.011836     54.023671
     -4.119119     29.090434     29.090434     58.180869
     -4.109109     31.365822     31.365822     62.731644
     -4.099099     33.828268     33.828268     67.656537
     -4.089089     36.216601     36.216601     72.433202
     -4.079079     37.992708     37.992708     75.985416
     -4.069069     38.507595     38.507595     77.015190
     -4.059059     37.291724     37.291724     74.583448
     -4.049049     34.319628     34.319628     68.639255
     -4.039039     30.102729     30.102729     60.205458
     -4.029029     25.556893     25.556893     51.113786
     -4.019019     21.712812     21.712812     43.425623
     -4.009009     19.410693     19.410693     38.821387
     -3.998999     19.107353     19.107353     38.214707
     -3.988989     20.845813     20.845813     41.691626
     -3.978979     24.352545     24.352545     48.705090
     -3.968969     29.184322     29.184322     58.368643
     -3.958959     34.857001     34.857001     69.714002
     -3.948949     40.929028     40.929028     81.858057
     -3.938939     47.046896     47.046896     94.093791
     -3.928929     52.966138     52.966138    105.932277
     -3.918919     58.545548     58.545548    117.091097
     -3.908909     63.700222     63.700222    127.400444
     -3.898899     68.312442     68.312442    136.624884
     -3.888889     72.133649     72.133649    144.267298
     -3.878879     74.737100     74.737100    149.474201
     -3.868869     75.571265     75.571265    151.142530
     -3.858859     74.116881     74.116881    148.233762
     -3.848849     70.093160     70.093160    140.186320
     -3.838839     63.626336     63.626336    127.252672
     -3.828829     55.304912     55.304912    110.609824
     -3.818819     46.092101     46.092101     92.184202
     -3.808809     37.121481     37.121481     74.242963
     -3.798799     29.441523     29.441523     58.883047
     -3.788789     23.786027     23.786027     47.572054
     -3.778779     20.432638     20.432638     40.865276
     -3.768769     19.181177     19.181177     38.362354
     -3.758759     19.449578     19.449578     38.899156
     -3.748749     20.456815     20.456815     40.913630
     -3.738739     21.444179     21.444179     42.888357
     -3.728729     21.880141     21.880141     43.760282
     -3.718719     21.598976     21.598976     43.197952
     -3.708709     20.837404     20.837404     41.674808
     -3.698699     20.155029     20.155029     40.310058
     -3.688689     20.251880     20.251880     40.503761
     -3.678679     21.727127     21.727127     43.454255
     -3.668669     24.849380     24.849380     49.698761
     -3.658659     29.418152     29.418152     58.836304
     -3.648649     34.775473     34.775473     69.550945
     -3.638639     39.975026     39.975026     79.950052
     -3.628629     44.051653     44.051653     88.103307
     -3.618619     46.289628     46.289628     92.579256
     -3.608609     46.391379     46.391379     92.782757
     -3.598599     44.499443     44.499443     88.998885
     -3.588589     41.091829     41.091829     82.183657
     -3.578579     36.814253     36.814253     73.628506
     -3.568569     32.313535     32.313535     64.627071
     -3.558559     28.110069     28.110069     56.220138
     -3.548549     24.523102     24.523102     49.046205
     -3.538539     21.654662     21.654662     43.309324
     -3.528529     19.435228     19.435228     38.870455
     -3.518519     17.719325     17.719325     35.438650
     -3.508509     16.393044     16.393044     32.786089
     -3.498498     15.440552     15.440552     30.881104
     -3.488488     14.934047     14.934047     29.868094
     -3.478478     14.956526     14.956526     29.913052
     -3.468468     15.508348     15.508348     31.016695
     -3.458458     16.455858     16.455858     32.911716
     -3.448448     17.549153     17.549153     35.098307
     -3.438438     18.492466     18.492466     36.984932
     -3.428428     19.027437     19.027437     38.054874
     -3.418418     18.998046     18.998046     37.996092
     -3.408408     18.389564     18.389564     36.779128
     -3.398398     17.347160     17.347160     34.694320
     -3.388388     16.173923     16.173923     32.347847
     -3.378378     15.296702     15.296702     30.593405
     -3.368368     15.190187     15.190187     30.380374
     -3.358358     16.267982     16.267982     32.535963
     -3.348348     18.768812     18.768812     37.537625
     -3.338338     22.670456     22.670456     45.340912
     -3.328328     27.653270     27.653270     55.306541
     -3.318318     33.122589     33.122589     66.245177
     -3.308308     38.293473     38.293473     76.586945
     -3.298298     42.335322     42.335322     84.670645
     -3.288288     44.554616     44.554616     89.109231
     -3.278278     44.564686     44.564686     89.129372
     -3.268268     42.376619     42.376619     84.753237
     -3.258258     38.369265     38.369265     76.738531
     -3.248248     33.153008     33.153008     66.306015
     -3.238238     27.393359     27.393359     54.786719
     -3.228228     21.669473     21.669473     43.338946
     -3.218218     16.406772     16.406772     32.813544
     -3.208208     11.875177     11.875177     23.750355
     -3.198198      8.219982      8.219982     16.439963
     -3.188188      5.499351      5.499351     10.998703
     -3.178178      3.721589      3.721589      7.443177
     -3.168168      2.884414      2.884414      5.768829
     -3.158158      3.011686      3.011686      6.023373
     -3.148148      4.170608      4.170608      8.341217
     -3.138138      6.449091      6.449091     12.898181
     -3.128128      9.885809      9.885809     19.771619
     -3.118118     14.371495     14.371495     28.742991
     -3.108108     19.566421     19.566421     39.132841
     -3.098098     24.888621     24.888621     49.777242
     -3.088088     29.606736     29.606736     59.213471
     -3.078078     33.022597     33.022597     66.045195
     -3.068068     34.674999     34.674999     69.349997
     -3.058058     34.471723     34.471723     68.943447
     -3.048048     32.684638     32.684638     65.369276
     -3.038038     29.812503     29.812503     59.625006
     -3.028028     26.386977     26.386977     52.773954
     -3.018018     22.823133     22.823133     45.646265
     -3.008008     19.380116     19.380116     38.760232
     -2.997998     16.226353     16.226353     32.452707
     -2.987988     13.545290     13.545290     27.090581
     -2.977978     11.606057     11.606057     23.212114
     -2.967968     10.756116     10.756116     21.512232
     -2.957958     11.339776     11.339776     22.679552
     -2.947948     13.578434     13.578434     27.156868
     -2.937938     17.457146     17.457146     34.914293
     -2.927928     22.656719     22.656719     45.313439
     -2.917918     28.560527     28.560527     57.121053
     -2.907908     34.350436     34.350436     68.700873
     -2.897898     39.181343     39.181343     78.362686
     -2.887888     42.390717     42.390717     84.781435
     -2.877878     43.672713     43.672713     87.345425
     -2.867868     43.145391     43.145391     86.290782
     -2.857858     41.274786     41.274786     82.549573
     -2.847848     38.680617     38.680617     77.361234
     -2.837838     35.905863     35.905863     71.811726
     -2.827828     33.252754     33.252754     66.505507
     -2.817818     30.754938     30.754938     61.509876
     -2.807808     28.284565     28.284565     56.569130
     -2.797798     25.722928     25.722928     51.445856
     -2.787788     23.094614     23.094614     46.189228
     -2.777778     20.593795     20.593795     41.187590
     -2.767768     18.499214     18.499214     36.998428
     -2.757758     17.040184     17.040184     34.080369
     -2.747748     16.300397     16.300397     32.600793
     -2.737738     16.215495     16.215495     32.430989
     -2.727728     16.654685     16.654685     33.309371
     -2.717718     17.519247     17.519247     35.038494
     -2.707708     18.781278     18.781278     37.562557
     -2.697698     20.432975     20.432975     40.865950
     -2.687688     22.388513     22.388513     44.777027
     -2.677678     24.424420     24.424420     48.848839
     -2.667668     26.223913     26.223913     52.447827
     -2.657658     27.516276     27.516276     55.032553
     -2.647648     28.226992     28.226992     56.453983
     -2.637638     28.535936     28.535936     57.071872
     -2.627628     28.796388     28.796388     57.592776
     -2.617618     29.357903     29.357903     58.715807
     -2.607608     30.395487     30.395487     60.790973
     -2.597598     31.834937     31.834937     63.669875
     -2.587588     33.394992     33.394992     66.789983
     -2.577578     34.697210     34.697210     69.394420
     -2.567568     35.374189     35.374189     70.748377
     -2.557558     35.139710     35.139710     70.279420
     -2.547548     33.831440     33.831440     67.662881
     -2.537538     31.453521     31.453521     62.907041
     -2.527528     28.222700     28.222700     56.445401
     -2.517518     24.586227     24.586227     49.172454
     -2.507508     21.170103     21.170103     42.340206
     -2.497497     18.645135     18.645135     37.290270
     -2.487487     17.545272     17.545272     35.090544
     -2.477477     18.105817     18.105817     36.211634
     -2.467467     20.188791     20.188791     40.377582
     -2.457457     23.330941     23.330941     46.661883
     -2.447447     26.902151     26.902151     53.804301
     -2.437437     30.316878     30.316878     60.633756
     -2.427427     33.215708     33.215708     66.431415
     -2.417417     35.540279     35.540279     71.080559
     -2.407407     37.465453     37.465453     74.930906
     -2.397397     39.215421     39.215421     78.430841
     -2.387387     40.849952     40.849952     81.699904
     -2.377377     42.132446     42.132446     84.264893
     -2.367367     42.562294     42.562294     85.124589
     -2.357357     41.575111     41.575111     83.150223
     -2.347347     38.822610     38.822610     77.645221
     -2.337337     34.393180     34.393180     68.786360
     -2.327327     28.860599     28.860599     57.721198
     -2.317317     23.139052     23.139052     46.278104
     -2.307307     18.220462     18.220462     36.440925
     -2.297297     14.915075     14.915075     29.830150
     -2.287287     13.689515     13.689515     27.379031
     -2.277277     14.629374     14.629374     29.258748
     -2.267267     17.494940     17.494940     34.989881
     -2.257257     21.817778     21.817778     43.635557
     -2.247247     26.997988     26.997988     53.995976
     -2.237237     32.385185     32.385185     64.770369
     -2.227227     37.343194     37.343194     74.686389
     -2.217217     41.305356     41.305356     82.610711
     -2.207207     43.828229     43.828229     87.656458
     -2.197197     44.648950     44.648950     89.297900
     -2.187187     43.743303     43.743303     87.486607
     -2.177177     41.366203     41.366203     82.732406
     -2.167167     38.040616     38.040616     76.081232
     -2.157157     34.461498     34.461498     68.922997
     -2.147147     31.311835     31.311835     62.623670
     -2.137137     29.041431     29.041431     58.082863
     -2.127127     27.703148     27.703148     55.406296
     -2.117117     26.937132     26.937132     53.874264
     -2.107107     26.129604     26.129604     52.259208
     -2.097097     24.681037     24.681037     49.362073
     -2.087087     22.257051     22.257051     44.514101
     -2.077077     18.905831     18.905831     37.811663
     -2.067067     15.001786     15.001786     30.003572
     -2.057057     11.066448     11.066448     22.132895
     -2.047047      7.568420      7.568420     15.136839
     -2.037037      4.791727      4.791727      9.583453
     -2.027027      2.806964      2.806964      5.613928
     -2.017017      1.523508      1.523508      3.047016
     -2.007007      0.774283      0.774283      1.548566
     -1.996997      0.390808      0.390808      0.781616
     -1.986987      0.249245      0.249245      0.498491
     -1.976977      0.288909      0.288909      0.577819
     -1.966967      0.513402      0.513402      1.026803
     -1.956957      0.982133      0.982133      1.964266
     -1.946947      1.793138      1.793138      3.586275
     -1.936937      3.053903      3.053903      6.107806
     -1.926927      4.839537      4.839537      9.679074
     -1.916917      7.146352      7.146352     14.292704
     -1.906907      9.857980      9.857980     19.715959
     -1.896897     12.742653     12.742653     25.485306
     -1.886887     15.490292     15.490292     30.980584
     -1.876877     17.780991     17.780991     35.561981
     -1.866867     19.362861     19.362861     38.725721
     -1.856857     20.114520     20.114520     40.229040
     -1.846847     20.074223     20.074223     40.148446
     -1.836837     19.426546     19.426546     38.853092
     -1.826827     18.445530     18.445530     36.891060
     -1.816817     17.404363     17.404363     34.808726
     -1.806807     16.478671     16.478671     32.957342
     -1.796797     15.684313     15.684313     31.368626
     -1.786787     14.884873     14.884873     29.769747
     -1.776777     13.872470     13.872470     27.744941
     -1.766767     12.483981     12.483981     24.967961
     -1.756757     10.692597     10.692597     21.385194
     -1.746747      8.629627      8.629627     17.259254
     -1.736737      6.533838      6.533838     13.067676
     -1.726727      4.665544      4.665544      9.331089
     -1.716717      3.234285      3.234285      6.468570
     -1.706707      2.369294      2.369294      4.738589
     -1.696697      2.129143      2.129143      4.258286
     -1.686687      2.523705      2.523705      5.047409
     -1.676677      3.520446      3.520446      7.040892
     -1.666667      5.025352      5.025352     10.050704
     -1.656657      6.853798      6.853798     13.707596
     -1.646647      8.722725      8.722725     17.445450
     -1.636637     10.291310     10.291310     20.582620
     -1.626627     11.252618     11.252618     22.505237
