# EIG2DOS: Utility for SIESTA to obtain the electronic density of states
#  E. Artacho, Apr 1999, A. Garcia, Apr 2012
#  Nick R. Papior, Feb 2017
# ------------------------------------------
# Eigenvalues calculated from a non-polarized calculation
# Eigenvalues read from siesta.EIG
# Kpoint weights read from siesta.KP
# Using smearing parameter:   0.0500
# Using 1000 points in the energy range
# Selected bands: 1 to: 2981
# Emin, Emax in file for selected band(s):    -27.3811532    218.3860090
# Nbands, Nspin, Nk   =   2981     1     1
# E_F                 =    -4.2183 eV --> (shifted to ZERO)
# Broadening          =     0.0500 eV
#
#        E            N(up)  (=)   N(down)         Ntot
     -5.000000     30.847959     30.847959     61.695919
     -4.989990     35.514783     35.514783     71.029567
     -4.979980     40.052839     40.052839     80.105678
     -4.969970     43.742114     43.742114     87.484227
     -4.959960     45.909954     45.909954     91.819908
     -4.949950     46.149319     46.149319     92.298637
     -4.939940     44.462560     44.462560     88.925120
     -4.929930     41.281831     41.281831     82.563662
     -4.919920     37.375288     37.375288     74.750575
     -4.909910     33.687470     33.687470     67.374940
     -4.899900     31.161874     31.161874     62.323749
     -4.889890     30.567008     30.567008     61.134016
     -4.879880     32.329538     32.329538     64.659076
     -4.869870     36.393233     36.393233     72.786467
     -4.859860     42.156835     42.156835     84.313671
     -4.849850     48.556134     48.556134     97.112269
     -4.839840     54.313697     54.313697    108.627394
     -4.829830     58.295353     58.295353    116.590707
     -4.819820     59.838715     59.838715    119.677430
     -4.809810     58.912021     58.912021    117.824042
     -4.799800     56.036831     56.036831    112.073663
     -4.789790     52.024335     52.024335    104.048670
     -4.779780     47.661413     47.661413     95.322826
     -4.769770     43.488248     43.488248     86.976495
     -4.759760     39.738280     39.738280     79.476560
     -4.749750     36.416060     36.416060     72.832119
     -4.739740     33.428477     33.428477     66.856954
     -4.729730     30.686016     30.686016     61.372031
     -4.719720     28.135850     28.135850     56.271700
     -4.709710     25.740282     25.740282     51.480564
     -4.699700     23.443144     23.443144     46.886289
     -4.689690     21.165385     21.165385     42.330770
     -4.679680     18.847118     18.847118     37.694237
     -4.669670     16.522023     16.522023     33.044046
     -4.659660     14.386800     14.386800     28.773599
     -4.649650     12.824390     12.824390     25.648780
     -4.639640     12.355162     12.355162     24.710323
     -4.629630     13.515706     13.515706     27.031412
     -4.619620     16.689383     16.689383     33.378766
     -4.609610     21.932195     21.932195     43.864391
     -4.599600     28.851913     28.851913     57.703826
     -4.589590     36.601607     36.601607     73.203215
     -4.579580     44.027349     44.027349     88.054697
     -4.569570     49.956449     49.956449     99.912897
     -4.559560     53.543119     53.543119    107.086238
     -4.549550     54.540579     54.540579    109.081158
     -4.539540     53.378539     53.378539    106.757078
     -4.529530     50.998567     50.998567    101.997133
     -4.519520     48.504431     48.504431     97.008861
     -4.509510     46.767241     46.767241     93.534482
     -4.499499     46.143985     46.143985     92.287970
     -4.489489     46.414287     46.414287     92.828573
     -4.479479     46.941696     46.941696     93.883392
     -4.469469     46.970922     46.970922     93.941844
     -4.459459     45.925354     45.925354     91.850707
     -4.449449     43.588035     43.588035     87.176070
     -4.439439     40.118528     40.118528     80.237056
     -4.429429     35.938642     35.938642     71.877284
     -4.419419     31.570373     31.570373     63.140746
     -4.409409     27.507374     27.507374     55.014749
     -4.399399     24.155488     24.155488     48.310977
     -4.389389     21.822495     21.822495     43.644990
     -4.379379     20.710416     20.710416     41.420832
     -4.369369     20.881400     20.881400     41.762801
     -4.359359     22.212102     22.212102     44.424205
     -4.349349     24.383346     24.383346     48.766692
     -4.339339     26.943940     26.943940     53.887879
     -4.329329     29.444254     29.444254     58.888507
     -4.319319     31.588044     31.588044     63.176088
     -4.309309     33.332335     33.332335     66.664670
     -4.299299     34.884826     34.884826     69.769651
     -4.289289     36.591516     36.591516     73.183032
     -4.279279     38.751467     38.751467     77.502933
     -4.269269     41.426183     41.426183     82.852366
     -4.259259     44.322438     44.322438     88.644876
     -4.249249     46.813852     46.813852     93.627705
     -4.239239     48.121694     48.121694     96.243388
     -4.229229     47.604659     47.604659     95.209318
     -4.219219     45.040951     45.040951     90.081902
     -4.209209     40.767923     40.767923     81.535846
     -4.199199     35.600117     35.600117     71.200233
     -4.189189     30.553944     30.553944     61.107889
     -4.179179     26.505018     26.505018     53.010037
     -4.169169     23.933105     23.933105     47.866211
     -4.159159     22.855460     22.855460     45.710920
     -4.149149     22.949672     22.949672     45.899344
     -4.139139     23.781003     23.781003     47.562006
     -4.129129     25.016209     25.016209     50.032417
     -4.119119     26.529285     26.529285     53.058570
     -4.109109     28.362728     28.362728     56.725456
     -4.099099     30.574741     30.574741     61.149482
     -4.089089     33.057049     33.057049     66.114098
     -4.079079     35.429576     35.429576     70.859152
     -4.069069     37.090387     37.090387     74.180773
     -4.059059     37.423119     37.423119     74.846238
     -4.049049     36.073177     36.073177     72.146353
     -4.039039     33.152942     33.152942     66.305883
     -4.029029     29.264071     29.264071     58.528142
     -4.019019     25.320093     25.320093     50.640186
     -4.009009     22.256576     22.256576     44.513152
     -3.998999     20.764913     20.764913     41.529827
     -3.988989     21.154989     21.154989     42.309977
     -3.978979     23.370520     23.370520     46.741041
     -3.968969     27.104835     27.104835     54.209670
     -3.958959     31.937048     31.937048     63.874095
     -3.948949     37.433269     37.433269     74.866538
     -3.938939     43.203701     43.203701     86.407403
     -3.928929     48.935368     48.935368     97.870737
     -3.918919     54.414367     54.414367    108.828733
     -3.908909     59.526325     59.526325    119.052651
     -3.898899     64.211559     64.211559    128.423118
     -3.888889     68.371495     68.371495    136.742990
     -3.878879     71.763774     71.763774    143.527548
     -3.868869     73.951835     73.951835    147.903670
     -3.858859     74.363552     74.363552    148.727104
     -3.848849     72.462810     72.462810    144.925620
     -3.838839     67.975406     67.975406    135.950812
     -3.828829     61.072657     61.072657    122.145313
     -3.818819     52.425019     52.425019    104.850037
     -3.808809     43.090252     43.090252     86.180504
     -3.798799     34.269403     34.269403     68.538805
     -3.788789     27.015240     27.015240     54.030479
     -3.778779     21.989851     21.989851     43.979702
     -3.768769     19.341421     19.341421     38.682843
     -3.758759     18.723670     18.723670     37.447340
     -3.748749     19.437697     19.437697     38.875394
     -3.738739     20.648566     20.648566     41.297132
     -3.728729     21.619134     21.619134     43.238268
     -3.718719     21.905979     21.905979     43.811958
     -3.708709     21.471993     21.471993     42.943987
     -3.698699     20.685829     20.685829     41.371657
     -3.688689     20.200994     20.200994     40.401988
     -3.678679     20.737411     20.737411     41.474823
     -3.668669     22.821600     22.821600     45.643199
     -3.658659     26.567514     26.567514     53.135027
     -3.648649     31.581843     31.581843     63.163686
     -3.638639     37.042619     37.042619     74.085239
     -3.628629     41.933107     41.933107     83.866213
     -3.618619     45.343308     45.343308     90.686616
     -3.608609     46.719635     46.719635     93.439270
     -3.598599     45.972354     45.972354     91.944708
     -3.588589     43.423815     43.423815     86.847631
     -3.578579     39.650872     39.650872     79.301744
     -3.568569     35.301206     35.301206     70.602412
     -3.558559     30.942196     30.942196     61.884391
     -3.548549     26.964014     26.964014     53.928028
     -3.538539     23.538076     23.538076     47.076152
     -3.528529     20.631874     20.631874     41.263748
     -3.518519     18.081364     18.081364     36.162727
     -3.508509     15.706048     15.706048     31.412096
     -3.498498     13.427466     13.427466     26.854931
     -3.488488     11.341590     11.341590     22.683180
     -3.478478      9.712568      9.712568     19.425136
     -3.468468      8.889037      8.889037     17.778074
     -3.458458      9.173498      9.173498     18.346997
     -3.448448     10.687858     10.687858     21.375716
     -3.438438     13.278213     13.278213     26.556426
     -3.428428     16.496719     16.496719     32.993438
     -3.418418     19.685290     19.685290     39.370581
     -3.408408     22.155693     22.155693     44.311386
     -3.398398     23.415350     23.415350     46.830700
     -3.388388     23.351404     23.351404     46.702808
     -3.378378     22.288314     22.288314     44.576628
     -3.368368     20.886524     20.886524     41.773048
     -3.358358     19.924792     19.924792     39.849585
     -3.348348     20.059593     20.059593     40.119187
     -3.338338     21.650397     21.650397     43.300795
     -3.328328     24.689592     24.689592     49.379185
     -3.318318     28.822208     28.822208     57.644417
     -3.308308     33.421264     33.421264     66.842529
     -3.298298     37.701138     37.701138     75.402276
     -3.288288     40.870419     40.870419     81.740839
     -3.278278     42.313878     42.313878     84.627756
     -3.268268     41.754141     41.754141     83.508282
     -3.258258     39.319198     39.319198     78.638395
     -3.248248     35.470552     35.470552     70.941103
     -3.238238     30.820620     30.820620     61.641239
     -3.228228     25.932496     25.932496     51.864992
     -3.218218     21.198274     21.198274     42.396547
     -3.208208     16.832444     16.832444     33.664888
     -3.198198     12.943956     12.943956     25.887911
     -3.188188      9.618172      9.618172     19.236344
     -3.178178      6.961172      6.961172     13.922344
     -3.168168      5.102980      5.102980     10.205960
     -3.158158      4.183445      4.183445      8.366889
     -3.148148      4.339348      4.339348      8.678696
     -3.138138      5.688835      5.688835     11.377670
     -3.128128      8.295398      8.295398     16.590796
     -3.118118     12.103154     12.103154     24.206308
     -3.108108     16.862601     16.862601     33.725203
     -3.098098     22.091224     22.091224     44.182447
     -3.088088     27.114621     27.114621     54.229241
     -3.078078     31.202433     31.202433     62.404866
     -3.068068     33.761500     33.761500     67.523001
     -3.058058     34.506564     34.506564     69.013128
     -3.048048     33.527015     33.527015     67.054030
     -3.038038     31.215560     31.215560     62.431120
     -3.028028     28.097049     28.097049     56.194099
     -3.018018     24.648372     24.648372     49.296745
     -3.008008     21.198474     21.198474     42.396949
     -2.997998     17.943006     17.943006     35.886012
     -2.987988     15.038448     15.038448     30.076896
     -2.977978     12.700824     12.700824     25.401649
     -2.967968     11.243573     11.243573     22.487145
     -2.957958     11.031784     11.031784     22.063568
     -2.947948     12.373663     12.373663     24.747325
     -2.937938     15.393270     15.393270     30.786539
     -2.927928     19.931089     19.931089     39.862178
     -2.917918     25.510600     25.510600     51.021201
     -2.907908     31.394639     31.394639     62.789277
     -2.897898     36.731904     36.731904     73.463808
     -2.887888     40.760947     40.760947     81.521895
     -2.877878     43.007295     43.007295     86.014590
     -2.867868     43.398560     43.398560     86.797120
     -2.857858     42.246208     42.246208     84.492415
     -2.847848     40.096478     40.096478     80.192957
     -2.837838     37.512409     37.512409     75.024818
     -2.827828     34.882424     34.882424     69.764848
     -2.817818     32.338017     32.338017     64.676035
     -2.807808     29.807735     29.807735     59.615470
     -2.797798     27.165226     27.165226     54.330452
     -2.787788     24.383056     24.383056     48.766113
     -2.777778     21.606712     21.606712     43.213424
     -2.767768     19.112868     19.112868     38.225735
     -2.757758     17.184099     17.184099     34.368199
     -2.747748     15.979593     15.979593     31.959185
     -2.737738     15.480579     15.480579     30.961159
     -2.727728     15.540457     15.540457     31.080913
     -2.717718     16.001923     16.001923     32.003846
     -2.707708     16.799379     16.799379     33.598758
     -2.697698     17.974283     17.974283     35.948565
     -2.687688     19.590987     19.590987     39.181974
     -2.677678     21.612733     21.612733     43.225465
     -2.667668     23.831713     23.831713     47.663425
     -2.657658     25.915793     25.915793     51.831586
     -2.647648     27.555288     27.555288     55.110576
     -2.637638     28.620468     28.620468     57.240937
     -2.627628     29.227502     29.227502     58.455004
     -2.617618     29.668762     29.668762     59.337523
     -2.607608     30.251503     30.251503     60.503006
     -2.597598     31.143021     31.143021     62.286042
     -2.587588     32.303945     32.303945     64.607891
     -2.577578     33.523282     33.523282     67.046564
     -2.567568     34.505986     34.505986     69.011972
     -2.557558     34.952467     34.952467     69.904934
     -2.547548     34.607439     34.607439     69.214878
     -2.537538     33.299263     33.299263     66.598525
     -2.527528     30.997375     30.997375     61.994750
     -2.517518     27.881074     27.881074     55.762148
     -2.507508     24.373834     24.373834     48.747668
     -2.497497     21.093349     21.093349     42.186697
     -2.487487     18.706902     18.706902     37.413803
     -2.477477     17.736979     17.736979     35.473958
     -2.467467     18.396068     18.396068     36.792136
     -2.457457     20.522886     20.522886     41.045771
     -2.447447     23.650576     23.650576     47.301153
     -2.437437     27.181426     27.181426     54.362852
     -2.427427     30.595897     30.595897     61.191795
     -2.417417     33.606040     33.606040     67.212081
     -2.407407     36.185173     36.185173     72.370346
     -2.397397     38.461840     38.461840     76.923680
     -2.387387     40.532782     40.532782     81.065565
     -2.377377     42.294131     42.294131     84.588261
     -2.367367     43.386936     43.386936     86.773873
     -2.357357     43.299688     43.299688     86.599376
     -2.347347     41.590348     41.590348     83.180697
     -2.337337     38.124707     38.124707     76.249414
     -2.327327     33.213946     33.213946     66.427892
     -2.317317     27.582638     27.582638     55.165275
     -2.307307     22.181976     22.181976     44.363953
     -2.297297     17.933014     17.933014     35.866028
     -2.287287     15.503363     15.503363     31.006725
     -2.277277     15.186715     15.186715     30.373430
     -2.267267     16.897972     16.897972     33.795944
     -2.257257     20.252878     20.252878     40.505756
     -2.247247     24.685719     24.685719     49.371439
     -2.237237     29.565573     29.565573     59.131147
     -2.227227     34.286842     34.286842     68.573684
     -2.217217     38.324840     38.324840     76.649679
     -2.207207     41.260866     41.260866     82.521731
     -2.197197     42.792858     42.792858     85.585716
     -2.187187     42.752169     42.752169     85.504338
     -2.177177     41.137182     41.137182     82.274364
     -2.167167     38.150833     38.150833     76.301666
     -2.157157     34.206019     34.206019     68.412039
     -2.147147     29.862438     29.862438     59.724876
     -2.137137     25.691354     25.691354     51.382708
     -2.127127     22.115140     22.115140     44.230280
     -2.117117     19.299419     19.299419     38.598839
     -2.107107     17.158029     17.158029     34.316058
     -2.097097     15.469682     15.469682     30.939364
     -2.087087     14.039377     14.039377     28.078753
     -2.077077     12.811940     12.811940     25.623879
     -2.067067     11.876741     11.876741     23.753482
     -2.057057     11.369753     11.369753     22.739506
     -2.047047     11.338853     11.338853     22.677707
     -2.037037     11.655930     11.655930     23.311861
     -2.027027     12.028351     12.028351     24.056703
     -2.017017     12.104178     12.104178     24.208357
     -2.007007     11.614555     11.614555     23.229111
     -1.996997     10.480565     10.480565     20.961130
     -1.986987      8.836737      8.836737     17.673473
     -1.976977      6.971484      6.971484     13.942969
     -1.966967      5.225882      5.225882     10.451763
     -1.956957      3.903348      3.903348      7.806697
     -1.946947      3.222408      3.222408      6.444816
     -1.936937      3.310995      3.310995      6.621989
     -1.926927      4.217461      4.217461      8.434922
     -1.916917      5.913104      5.913104     11.826209
     -1.906907      8.279314      8.279314     16.558628
     -1.896897     11.093534     11.093534     22.187068
     -1.886887     14.036826     14.036826     28.073651
     -1.876877     16.736955     16.736955     33.473911
     -1.866867     18.841971     18.841971     37.683942
     -1.856857     20.102821     20.102821     40.205641
     -1.846847     20.437733     20.437733     40.875465
     -1.836837     19.955244     19.955244     39.910487
     -1.826827     18.922677     18.922677     37.845353
     -1.816817     17.681456     17.681456     35.362911
     -1.806807     16.530794     16.530794     33.061588
     -1.796797     15.621718     15.621718     31.243436
     -1.786787     14.909744     14.909744     29.819488
     -1.776777     14.194102     14.194102     28.388203
     -1.766767     13.228763     13.228763     26.457527
     -1.756757     11.850620     11.850620     23.701240
     -1.746747     10.060827     10.060827     20.121655
     -1.736737      8.024418      8.024418     16.048837
     -1.726727      6.000872      6.000872     12.001743
     -1.716717      4.252441      4.252441      8.504882
     -1.706707      2.978112      2.978112      5.956224
     -1.696697      2.294030      2.294030      4.588060
     -1.686687      2.248208      2.248208      4.496416
     -1.676677      2.839545      2.839545      5.679090
     -1.666667      4.016689      4.016689      8.033378
     -1.656657      5.654570      5.654570     11.309141
     -1.646647      7.530497      7.530497     15.060993
     -1.636637      9.332119      9.332119     18.664237
     -1.626627     10.717896     10.717896     21.435793
