# EIG2DOS: Utility for SIESTA to obtain the electronic density of states
#  E. Artacho, Apr 1999, A. Garcia, Apr 2012
#  Nick R. Papior, Feb 2017
# ------------------------------------------
# Eigenvalues calculated from a non-polarized calculation
# Eigenvalues read from siesta.EIG
# Kpoint weights read from siesta.KP
# Using smearing parameter:   0.0500
# Using 1000 points in the energy range
# Selected bands: 1 to: 2981
# Emin, Emax in file for selected band(s):    -27.2957041    218.3897150
# Nbands, Nspin, Nk   =   2981     1     1
# E_F                 =    -4.2132 eV --> (shifted to ZERO)
# Broadening          =     0.0500 eV
#
#        E            N(up)  (=)   N(down)         Ntot
     -5.000000     32.194687     32.194687     64.389374
     -4.989990     37.138383     37.138383     74.276765
     -4.979980     41.712060     41.712060     83.424121
     -4.969970     45.130383     45.130383     90.260767
     -4.959960     46.753796     46.753796     93.507592
     -4.949950     46.301103     46.301103     92.602207
     -4.939940     43.946810     43.946810     87.893621
     -4.929930     40.279996     40.279996     80.559992
     -4.919920     36.164298     36.164298     72.328595
     -4.909910     32.562574     32.562574     65.125149
     -4.899900     30.368194     30.368194     60.736387
     -4.889890     30.247972     30.247972     60.495943
     -4.879880     32.490258     32.490258     64.980516
     -4.869870     36.879507     36.879507     73.759015
     -4.859860     42.658376     42.658376     85.316752
     -4.849850     48.643432     48.643432     97.286864
     -4.839840     53.507059     53.507059    107.014117
     -4.829830     56.149897     56.149897    112.299793
     -4.819820     56.022695     56.022695    112.045389
     -4.809810     53.262957     53.262957    106.525915
     -4.799800     48.593719     48.593719     97.187439
     -4.789790     43.042619     43.042619     86.085238
     -4.779780     37.614380     37.614380     75.228760
     -4.769770     33.049252     33.049252     66.098504
     -4.759760     29.733556     29.733556     59.467113
     -4.749750     27.743404     27.743404     55.486807
     -4.739740     26.948408     26.948408     53.896816
     -4.729730     27.100531     27.100531     54.201062
     -4.719720     27.872301     27.872301     55.744602
     -4.709710     28.859049     28.859049     57.718097
     -4.699700     29.592280     29.592280     59.184559
     -4.689690     29.608580     29.608580     59.217161
     -4.679680     28.581224     28.581224     57.162448
     -4.669670     26.471287     26.471287     52.942575
     -4.659660     23.624535     23.624535     47.249071
     -4.649650     20.752108     20.752108     41.504217
     -4.639640     18.780403     18.780403     37.560805
     -4.629630     18.608050     18.608050     37.216100
     -4.619620     20.838386     20.838386     41.676772
     -4.609610     25.561057     25.561057     51.122114
     -4.599600     32.249316     32.249316     64.498632
     -4.589590     39.824757     39.824757     79.649515
     -4.579580     46.906154     46.906154     93.812309
     -4.569570     52.194577     52.194577    104.389154
     -4.559560     54.873267     54.873267    109.746534
     -4.549550     54.865090     54.865090    109.730180
     -4.539540     52.830530     52.830530    105.661061
     -4.529530     49.896928     49.896928     99.793857
     -4.519520     47.229770     47.229770     94.459540
     -4.509510     45.623915     45.623915     91.247831
     -4.499499     45.273881     45.273881     90.547762
     -4.489489     45.793458     45.793458     91.586917
     -4.479479     46.445037     46.445037     92.890074
     -4.469469     46.459910     46.459910     92.919819
     -4.459459     45.313059     45.313059     90.626119
     -4.449449     42.858431     42.858431     85.716862
     -4.439439     39.306287     39.306287     78.612574
     -4.429429     35.094180     35.094180     70.188359
     -4.419419     30.735219     30.735219     61.470437
     -4.409409     26.710853     26.710853     53.421707
     -4.399399     23.426288     23.426288     46.852577
     -4.389389     21.199375     21.199375     42.398751
     -4.379379     20.240060     20.240060     40.480120
     -4.369369     20.603927     20.603927     41.207853
     -4.359359     22.145985     22.145985     44.291970
     -4.349349     24.522981     24.522981     49.045962
     -4.339339     27.274005     27.274005     54.548010
     -4.329329     29.962106     29.962106     59.924212
     -4.319319     32.317685     32.317685     64.635369
     -4.309309     34.316157     34.316157     68.632315
     -4.299299     36.151026     36.151026     72.302053
     -4.289289     38.109472     38.109472     76.218943
     -4.279279     40.397062     40.397062     80.794124
     -4.269269     42.978754     42.978754     85.957508
     -4.259259     45.503696     45.503696     91.007391
     -4.249249     47.360951     47.360951     94.721901
     -4.239239     47.869450     47.869450     95.738900
     -4.229229     46.544656     46.544656     93.089313
     -4.219219     43.332708     43.332708     86.665416
     -4.209209     38.696991     38.696991     77.393982
     -4.199199     33.500209     33.500209     67.000418
     -4.189189     28.723452     28.723452     57.446904
     -4.179179     25.146442     25.146442     50.292884
     -4.169169     23.130147     23.130147     46.260293
     -4.159159     22.586251     22.586251     45.172501
     -4.149149     23.124084     23.124084     46.248168
     -4.139139     24.286761     24.286761     48.573521
     -4.129129     25.758850     25.758850     51.517699
     -4.119119     27.452188     27.452188     54.904377
     -4.109109     29.437762     29.437762     58.875525
     -4.099099     31.765697     31.765697     63.531394
     -4.089089     34.275035     34.275035     68.550070
     -4.079079     36.511215     36.511215     73.022431
     -4.069069     37.823298     37.823298     75.646596
     -4.059059     37.617051     37.617051     75.234102
     -4.049049     35.644192     35.644192     71.288383
     -4.039039     32.174526     32.174526     64.349053
     -4.029029     27.954815     27.954815     55.909630
     -4.019019     23.973064     23.973064     47.946128
     -4.009009     21.146653     21.146653     42.293306
     -3.998999     20.077344     20.077344     40.154688
     -3.988989     20.960070     20.960070     41.920140
     -3.978979     23.641390     23.641390     47.282779
     -3.968969     27.756795     27.756795     55.513590
     -3.958959     32.866090     32.866090     65.732181
     -3.948949     38.543038     38.543038     77.086076
     -3.938939     44.421611     44.421611     88.843223
     -3.928929     50.221213     50.221213    100.442426
     -3.918919     55.759432     55.759432    111.518863
     -3.908909     60.936579     60.936579    121.873157
     -3.898899     65.672999     65.672999    131.345999
     -3.888889     69.808917     69.808917    139.617833
     -3.878879     73.016464     73.016464    146.032928
     -3.868869     74.789287     74.789287    149.578574
     -3.858859     74.547066     74.547066    149.094132
     -3.848849     71.833076     71.833076    143.666152
     -3.838839     66.527794     66.527794    133.055589
     -3.828829     58.983695     58.983695    117.967390
     -3.818819     50.015504     50.015504    100.031009
     -3.808809     40.739703     40.739703     81.479407
     -3.798799     32.316204     32.316204     64.632407
     -3.788789     25.677782     25.677782     51.355564
     -3.778779     21.329650     21.329650     42.659300
     -3.768769     19.270764     19.270764     38.541528
     -3.758759     19.047478     19.047478     38.094956
     -3.748749     19.914547     19.914547     39.829094
     -3.738739     21.056094     21.056094     42.112188
     -3.728729     21.810539     21.810539     43.621079
     -3.718719     21.845836     21.845836     43.691671
     -3.708709     21.242219     21.242219     42.484437
     -3.698699     20.457981     20.457981     40.915961
     -3.688689     20.179394     20.179394     40.358788
     -3.678679     21.087418     21.087418     42.174836
     -3.668669     23.605379     23.605379     47.210758
     -3.658659     27.711139     27.711139     55.422277
     -3.648649     32.888940     32.888940     65.777879
     -3.638639     38.251997     38.251997     76.503993
     -3.628629     42.798391     42.798391     85.596783
     -3.618619     45.702548     45.702548     91.405096
     -3.608609     46.529079     46.529079     93.058158
     -3.598599     45.297742     45.297742     90.595483
     -3.588589     42.402243     42.402243     84.804486
     -3.578579     38.444782     38.444782     76.889563
     -3.568569     34.060847     34.060847     68.121694
     -3.558559     29.781811     29.781811     59.563622
     -3.548549     25.949691     25.949691     51.899382
     -3.538539     22.684812     22.684812     45.369624
     -3.528529     19.909395     19.909395     39.818790
     -3.518519     17.426843     17.426843     34.853685
     -3.508509     15.036743     15.036743     30.073487
     -3.498498     12.642790     12.642790     25.285580
     -3.488488     10.307947     10.307947     20.615894
     -3.478478      8.235890      8.235890     16.471781
     -3.468468      6.693599      6.693599     13.387197
     -3.458458      5.912885      5.912885     11.825771
     -3.448448      6.008435      6.008435     12.016870
     -3.438438      6.935830      6.935830     13.871660
     -3.428428      8.499679      8.499679     16.999357
     -3.418418     10.413012     10.413012     20.826024
     -3.408408     12.397088     12.397088     24.794176
     -3.398398     14.290873     14.290873     28.581746
     -3.388388     16.122247     16.122247     32.244494
     -3.378378     18.098084     18.098084     36.196169
     -3.368368     20.506460     20.506460     41.012920
     -3.358358     23.573579     23.573579     47.147158
     -3.348348     27.345282     27.345282     54.690563
     -3.338338     31.644584     31.644584     63.289167
     -3.328328     36.105341     36.105341     72.210682
     -3.318318     40.240076     40.240076     80.480151
     -3.308308     43.502306     43.502306     87.004611
     -3.298298     45.343495     45.343495     90.686991
     -3.288288     45.296765     45.296765     90.593530
     -3.278278     43.104119     43.104119     86.208238
     -3.268268     38.849445     38.849445     77.698891
     -3.258258     33.018336     33.018336     66.036672
     -3.248248     26.424154     26.424154     52.848308
     -3.238238     20.011179     20.011179     40.022359
     -3.228228     14.615462     14.615462     29.230923
     -3.218218     10.780210     10.780210     21.560420
     -3.208208      8.680863      8.680863     17.361727
     -3.198198      8.155608      8.155608     16.311216
     -3.188188      8.803453      8.803453     17.606906
     -3.178178     10.114065     10.114065     20.228129
     -3.168168     11.608582     11.608582     23.217165
     -3.158158     12.972440     12.972440     25.944879
     -3.148148     14.146903     14.146903     28.293806
     -3.138138     15.336661     15.336661     30.673322
     -3.128128     16.908818     16.908818     33.817636
     -3.118118     19.205129     19.205129     38.410257
     -3.108108     22.339842     22.339842     44.679684
     -3.098098     26.076962     26.076962     52.153925
     -3.088088     29.854147     29.854147     59.708293
     -3.078078     32.954332     32.954332     65.908664
     -3.068068     34.753094     34.753094     69.506188
     -3.058058     34.929435     34.929435     69.858870
     -3.048048     33.545153     33.545153     67.090306
     -3.038038     30.966746     30.966746     61.933492
     -3.028028     27.686035     27.686035     55.372071
     -3.018018     24.142913     24.142913     48.285826
     -3.008008     20.638267     20.638267     41.276535
     -2.997998     17.360641     17.360641     34.721281
     -2.987988     14.481111     14.481111     28.962222
     -2.977978     12.239942     12.239942     24.479884
     -2.967968     10.966837     10.966837     21.933673
     -2.957958     11.021658     11.021658     22.043317
     -2.947948     12.682015     12.682015     25.364031
     -2.937938     16.021581     16.021581     32.043162
     -2.927928     20.822260     20.822260     41.644519
     -2.917918     26.554695     26.554695     53.109390
     -2.907908     32.447859     32.447859     64.895718
     -2.897898     37.645151     37.645151     75.290302
     -2.887888     41.411368     41.411368     82.822736
     -2.877878     43.324267     43.324267     86.648535
     -2.867868     43.376037     43.376037     86.752073
     -2.857858     41.936959     41.936959     83.873918
     -2.847848     39.589922     39.589922     79.179844
     -2.837838     36.904388     36.904388     73.808776
     -2.827828     34.249244     34.249244     68.498488
     -2.817818     31.725377     31.725377     63.450753
     -2.807808     29.237550     29.237550     58.475101
     -2.797798     26.653331     26.653331     53.306663
     -2.787788     23.954502     23.954502     47.909003
     -2.777778     21.297413     21.297413     42.594826
     -2.767768     18.956090     18.956090     37.912180
     -2.757758     17.191638     17.191638     34.383275
     -2.747748     16.132694     16.132694     32.265388
     -2.737738     15.740182     15.740182     31.480363
     -2.727728     15.872703     15.872703     31.745405
     -2.717718     16.402045     16.402045     32.804090
     -2.707708     17.294739     17.294739     34.589479
     -2.697698     18.599432     18.599432     37.198864
     -2.687688     20.347610     20.347610     40.695221
     -2.677678     22.441593     22.441593     44.883186
     -2.667668     24.620308     24.620308     49.240615
     -2.657658     26.544088     26.544088     53.088176
     -2.647648     27.955804     27.955804     55.911608
     -2.637638     28.816708     28.816708     57.633417
     -2.627628     29.326166     29.326166     58.652333
     -2.617618     29.809311     29.809311     59.618622
     -2.607608     30.541754     30.541754     61.083508
     -2.597598     31.614388     31.614388     63.228777
     -2.587588     32.903320     32.903320     65.806640
     -2.577578     34.135132     34.135132     68.270264
     -2.567568     34.986086     34.986086     69.972172
     -2.557558     35.159594     35.159594     70.319187
     -2.547548     34.431893     34.431893     68.863786
     -2.537538     32.692548     32.692548     65.385096
     -2.527528     30.000447     30.000447     60.000894
     -2.517518     26.637543     26.637543     53.275086
     -2.507508     23.112390     23.112390     46.224781
     -2.497497     20.075484     20.075484     40.150968
     -2.487487     18.154430     18.154430     36.308861
     -2.477477     17.766411     17.766411     35.532821
     -2.467467     18.985820     18.985820     37.971640
     -2.457457     21.525941     21.525941     43.051882
     -2.447447     24.846773     24.846773     49.693546
     -2.437437     28.348376     28.348376     56.696753
     -2.427427     31.571465     31.571465     63.142929
     -2.417417     34.320297     34.320297     68.640594
     -2.407407     36.653123     36.653123     73.306245
     -2.397397     38.743803     38.743803     77.487605
     -2.387387     40.681191     40.681191     81.362382
     -2.377377     42.310201     42.310201     84.620401
     -2.367367     43.207260     43.207260     86.414520
     -2.357357     42.821258     42.821258     85.642516
     -2.347347     40.724965     40.724965     81.449929
     -2.337337     36.857273     36.857273     73.714546
     -2.327327     31.634206     31.634206     63.268411
     -2.317317     25.872277     25.872277     51.744554
     -2.307307     20.562843     20.562843     41.125686
     -2.297297     16.602485     16.602485     33.204970
     -2.287287     14.586881     14.586881     29.173761
     -2.277277     14.724470     14.724470     29.448941
     -2.267267     16.862988     16.862988     33.725976
     -2.257257     20.583610     20.583610     41.167221
     -2.247247     25.313597     25.313597     50.627195
     -2.237237     30.425093     30.425093     60.850187
     -2.227227     35.307444     35.307444     70.614888
     -2.217217     39.414377     39.414377     78.828754
     -2.207207     42.295802     42.295802     84.591604
     -2.197197     43.627924     43.627924     87.255848
     -2.187187     43.252248     43.252248     86.504497
     -2.177177     41.220581     41.220581     82.441162
     -2.167167     37.822880     37.822880     75.645760
     -2.157157     33.562270     33.562270     67.124540
     -2.147147     29.053697     29.053697     58.107394
     -2.137137     24.862295     24.862295     49.724590
     -2.127127     21.342555     21.342555     42.685111
     -2.117117     18.555176     18.555176     37.110352
     -2.107107     16.305904     16.305904     32.611809
     -2.097097     14.286091     14.286091     28.572182
     -2.087087     12.240501     12.240501     24.481002
     -2.077077     10.080121     10.080121     20.160243
     -2.067067      7.898385      7.898385     15.796769
     -2.057057      5.906880      5.906880     11.813760
     -2.047047      4.342558      4.342558      8.685116
     -2.037037      3.395065      3.395065      6.790130
     -2.027027      3.172135      3.172135      6.344270
     -2.017017      3.690529      3.690529      7.381058
     -2.007007      4.871168      4.871168      9.742336
     -1.996997      6.531555      6.531555     13.063110
     -1.986987      8.390563      8.390563     16.781126
     -1.976977     10.109352     10.109352     20.218704
     -1.966967     11.376915     11.376915     22.753830
     -1.956957     12.017163     12.017163     24.034327
     -1.946947     12.068623     12.068623     24.137247
     -1.936937     11.788999     11.788999     23.577998
     -1.926927     11.569158     11.569158     23.138316
     -1.916917     11.786864     11.786864     23.573727
     -1.906907     12.662233     12.662233     25.324467
     -1.896897     14.175916     14.175916     28.351833
     -1.886887     16.079653     16.079653     32.159305
     -1.876877     17.986956     17.986956     35.973912
     -1.866867     19.502052     19.502052     39.004104
     -1.856857     20.339234     20.339234     40.678468
     -1.846847     20.397816     20.397816     40.795633
     -1.836837     19.776400     19.776400     39.552801
     -1.826827     18.725447     18.725447     37.450893
     -1.816817     17.550612     17.550612     35.101225
     -1.806807     16.495761     16.495761     32.991523
     -1.796797     15.649770     15.649770     31.299540
     -1.786787     14.920828     14.920828     29.841655
     -1.776777     14.095333     14.095333     28.190665
     -1.766767     12.954983     12.954983     25.909965
     -1.756757     11.392468     11.392468     22.784935
     -1.746747      9.467838      9.467838     18.935675
     -1.736737      7.384183      7.384183     14.768367
     -1.726727      5.407435      5.407435     10.814870
     -1.716717      3.780216      3.780216      7.560433
     -1.706707      2.671015      2.671015      5.342030
     -1.696697      2.168849      2.168849      4.337699
     -1.686687      2.303657      2.303657      4.607314
     -1.676677      3.061716      3.061716      6.123432
     -1.666667      4.376935      4.376935      8.753871
     -1.656657      6.103171      6.103171     12.206342
     -1.646647      7.994316      7.994316     15.988632
     -1.636637      9.723780      9.723780     19.447561
     -1.626627     10.957686     10.957686     21.915373
