# EIG2DOS: Utility for SIESTA to obtain the electronic density of states
#  E. Artacho, Apr 1999, A. Garcia, Apr 2012
#  Nick R. Papior, Feb 2017
# ------------------------------------------
# Eigenvalues calculated from a non-polarized calculation
# Eigenvalues read from siesta.EIG
# Kpoint weights read from siesta.KP
# Using smearing parameter:   0.0500
# Using 1000 points in the energy range
# Selected bands: 1 to: 2981
# Emin, Emax in file for selected band(s):    -27.0405177    218.3093470
# Nbands, Nspin, Nk   =   2981     1     1
# E_F                 =    -4.3032 eV --> (shifted to ZERO)
# Broadening          =     0.0500 eV
#
#        E            N(up)  (=)   N(down)         Ntot
     -5.000000     46.276974     46.276974     92.553947
     -4.989990     49.379506     49.379506     98.759013
     -4.979980     50.859966     50.859966    101.719933
     -4.969970     50.657246     50.657246    101.314492
     -4.959960     48.943223     48.943223     97.886446
     -4.949950     46.057028     46.057028     92.114056
     -4.939940     42.429224     42.429224     84.858449
     -4.929930     38.533177     38.533177     77.066354
     -4.919920     34.875547     34.875547     69.751093
     -4.909910     32.006133     32.006133     64.012265
     -4.899900     30.504619     30.504619     61.009238
     -4.889890     30.900154     30.900154     61.800309
     -4.879880     33.508357     33.508357     67.016714
     -4.869870     38.227401     38.227401     76.454803
     -4.859860     44.394336     44.394336     88.788671
     -4.849850     50.818703     50.818703    101.637405
     -4.839840     56.049180     56.049180    112.098359
     -4.829830     58.806858     58.806858    117.613717
     -4.819820     58.407449     58.407449    116.814898
     -4.809810     54.975068     54.975068    109.950135
     -4.799800     49.348304     49.348304     98.696607
     -4.789790     42.737699     42.737699     85.475399
     -4.779780     36.310867     36.310867     72.621735
     -4.769770     30.887564     30.887564     61.775128
     -4.759760     26.834272     26.834272     53.668544
     -4.749750     24.131813     24.131813     48.263626
     -4.739740     22.523870     22.523870     45.047739
     -4.729730     21.659248     21.659248     43.318496
     -4.719720     21.185340     21.185340     42.370679
     -4.709710     20.792716     20.792716     41.585432
     -4.699700     20.231804     20.231804     40.463608
     -4.689690     19.325508     19.325508     38.651015
     -4.679680     17.994384     17.994384     35.988768
     -4.669670     16.296796     16.296796     32.593593
     -4.659660     14.468839     14.468839     28.937678
     -4.649650     12.936636     12.936636     25.873272
     -4.639640     12.274966     12.274966     24.549933
     -4.629630     13.100740     13.100740     26.201479
     -4.619620     15.910689     15.910689     31.821377
     -4.609610     20.894968     20.894968     41.789936
     -4.599600     27.780983     27.780983     55.561967
     -4.589590     35.777815     35.777815     71.555630
     -4.579580     43.683200     43.683200     87.366400
     -4.569570     50.165810     50.165810    100.331621
     -4.559560     54.154056     54.154056    108.308111
     -4.549550     55.190010     55.190010    110.380021
     -4.539540     53.594376     53.594376    107.188753
     -4.529530     50.357051     50.357051    100.714103
     -4.519520     46.788053     46.788053     93.576106
     -4.509510     44.070712     44.070712     88.141424
     -4.499499     42.896083     42.896083     85.792167
     -4.489489     43.309707     43.309707     86.619414
     -4.479479     44.800967     44.800967     89.601934
     -4.469469     46.565434     46.565434     93.130869
     -4.459459     47.815848     47.815848     95.631695
     -4.449449     48.022588     48.022588     96.045177
     -4.439439     47.015352     47.015352     94.030704
     -4.429429     44.944976     44.944976     89.889953
     -4.419419     42.158560     42.158560     84.317120
     -4.409409     39.062153     39.062153     78.124307
     -4.399399     36.028284     36.028284     72.056568
     -4.389389     33.363011     33.363011     66.726022
     -4.379379     31.305940     31.305940     62.611879
     -4.369369     30.023478     30.023478     60.046957
     -4.359359     29.577869     29.577869     59.155738
     -4.349349     29.892316     29.892316     59.784632
     -4.339339     30.752738     30.752738     61.505475
     -4.329329     31.870344     31.870344     63.740689
     -4.319319     32.988132     32.988132     65.976264
     -4.309309     33.981000     33.981000     67.962001
     -4.299299     34.898514     34.898514     69.797029
     -4.289289     35.928849     35.928849     71.857697
     -4.279279     37.298531     37.298531     74.597063
     -4.269269     39.144557     39.144557     78.289113
     -4.259259     41.401643     41.401643     82.803287
     -4.249249     43.747359     43.747359     87.494718
     -4.239239     45.642359     45.642359     91.284719
     -4.229229     46.479289     46.479289     92.958578
     -4.219219     45.804498     45.804498     91.608997
     -4.209209     43.522179     43.522179     87.044358
     -4.199199     39.973783     39.973783     79.947566
     -4.189189     35.835394     35.835394     71.670788
     -4.179179     31.872222     31.872222     63.744444
     -4.169169     28.670900     28.670900     57.341800
     -4.159159     26.480642     26.480642     52.961283
     -4.149149     25.228071     25.228071     50.456143
     -4.139139     24.674037     24.674037     49.348074
     -4.129129     24.612591     24.612591     49.225183
     -4.119119     25.002753     25.002753     50.005506
     -4.109109     25.966094     25.966094     51.932187
     -4.099099     27.652348     27.652348     55.304696
     -4.089089     30.043974     30.043974     60.087947
     -4.079079     32.811971     32.811971     65.623943
     -4.069069     35.324077     35.324077     70.648153
     -4.059059     36.834678     36.834678     73.669356
     -4.049049     36.782424     36.782424     73.564849
     -4.039039     35.047547     35.047547     70.095093
     -4.029029     32.030870     32.030870     64.061739
     -4.019019     28.512389     28.512389     57.024777
     -4.009009     25.369597     25.369597     50.739193
     -3.998999     23.304223     23.304223     46.608447
     -3.988989     22.699439     22.699439     45.398878
     -3.978979     23.634639     23.634639     47.269278
     -3.968969     25.992636     25.992636     51.985271
     -3.958959     29.564455     29.564455     59.128911
     -3.948949     34.097414     34.097414     68.194828
     -3.938939     39.298727     39.298727     78.597454
     -3.928929     44.843604     44.843604     89.687209
     -3.918919     50.419289     50.419289    100.838579
     -3.908909     55.787107     55.787107    111.574215
     -3.898899     60.809440     60.809440    121.618880
     -3.888889     65.399559     65.399559    130.799118
     -3.878879     69.404235     69.404235    138.808469
     -3.868869     72.486174     72.486174    144.972347
     -3.858859     74.095033     74.095033    148.190066
     -3.848849     73.582218     73.582218    147.164437
     -3.838839     70.439030     70.439030    140.878060
     -3.828829     64.560714     64.560714    129.121428
     -3.818819     56.407372     56.407372    112.814743
     -3.808809     46.970293     46.970293     93.940585
     -3.798799     37.541352     37.541352     75.082704
     -3.788789     29.373435     29.373435     58.746871
     -3.778779     23.361772     23.361772     46.723545
     -3.768769     19.853629     19.853629     39.707258
     -3.758759     18.630253     18.630253     37.260505
     -3.748749     19.040331     19.040331     38.080661
     -3.738739     20.225912     20.225912     40.451824
     -3.728729     21.373030     21.373030     42.746061
     -3.718719     21.927785     21.927785     43.855570
     -3.708709     21.732324     21.732324     43.464648
     -3.698699     21.050308     21.050308     42.100616
     -3.688689     20.471036     20.471036     40.942073
     -3.678679     20.708853     20.708853     41.417707
     -3.668669     22.347627     22.347627     44.695253
     -3.658659     25.608578     25.608578     51.217155
     -3.648649     30.226777     30.226777     60.453554
     -3.638639     35.492956     35.492956     70.985912
     -3.628629     40.454843     40.454843     80.909686
     -3.618619     44.201910     44.201910     88.403820
     -3.608609     46.119087     46.119087     92.238173
     -3.598599     46.015127     46.015127     92.030255
     -3.588589     44.098871     44.098871     88.197741
     -3.578579     40.847394     40.847394     81.694789
     -3.568569     36.840683     36.840683     73.681367
     -3.558559     32.620066     32.620066     65.240131
     -3.548549     28.591529     28.591529     57.183058
     -3.538539     24.974324     24.974324     49.948649
     -3.528529     21.796915     21.796915     43.593830
     -3.518519     18.946025     18.946025     37.892049
     -3.508509     16.261001     16.261001     32.522002
     -3.498498     13.640290     13.640290     27.280580
     -3.488488     11.113482     11.113482     22.226964
     -3.478478      8.847059      8.847059     17.694119
     -3.468468      7.085781      7.085781     14.171562
     -3.458458      6.060229      6.060229     12.120458
     -3.448448      5.898241      5.898241     11.796482
     -3.438438      6.567592      6.567592     13.135185
     -3.428428      7.864241      7.864241     15.728482
     -3.418418      9.452396      9.452396     18.904791
     -3.408408     10.954347     10.954347     21.908694
     -3.398398     12.071448     12.071448     24.142897
     -3.388388     12.696716     12.696716     25.393432
     -3.378378     12.970582     12.970582     25.941163
     -3.368368     13.248548     13.248548     26.497096
     -3.358358     13.988252     13.988252     27.976504
     -3.348348     15.600219     15.600219     31.200438
     -3.338338     18.316866     18.316866     36.633731
     -3.328328     22.113893     22.113893     44.227786
     -3.318318     26.687584     26.687584     53.375168
     -3.308308     31.477636     31.477636     62.955272
     -3.298298     35.735432     35.735432     71.470865
     -3.288288     38.651135     38.651135     77.302269
     -3.278278     39.540490     39.540490     79.080980
     -3.268268     38.049210     38.049210     76.098421
     -3.258258     34.291787     34.291787     68.583574
     -3.248248     28.846260     28.846260     57.692520
     -3.238238     22.588596     22.588596     45.177192
     -3.228228     16.433050     16.433050     32.866100
     -3.218218     11.091151     11.091151     22.182301
     -3.208208      6.942056      6.942056     13.884112
     -3.198198      4.040584      4.040584      8.081169
     -3.188188      2.223915      2.223915      4.447830
     -3.178178      1.250008      1.250008      2.500016
     -3.168168      0.913145      0.913145      1.826289
     -3.158158      1.112296      1.112296      2.224592
     -3.148148      1.871978      1.871978      3.743957
     -3.138138      3.323165      3.323165      6.646330
     -3.128128      5.649522      5.649522     11.299045
     -3.118118      9.004100      9.004100     18.008199
     -3.108108     13.411323     13.411323     26.822647
     -3.098098     18.685524     18.685524     37.371049
     -3.088088     24.406851     24.406851     48.813701
     -3.078078     29.983408     29.983408     59.966816
     -3.068068     34.791402     34.791402     69.582803
     -3.058058     38.339662     38.339662     76.679325
     -3.048048     40.382135     40.382135     80.764270
     -3.038038     40.925274     40.925274     81.850548
     -3.028028     40.139735     40.139735     80.279470
     -3.018018     38.246730     38.246730     76.493460
     -3.008008     35.462301     35.462301     70.924603
     -2.997998     32.033800     32.033800     64.067600
     -2.987988     28.327075     28.327075     56.654150
     -2.977978     24.878079     24.878079     49.756158
     -2.967968     22.342108     22.342108     44.684216
     -2.957958     21.340744     21.340744     42.681489
     -2.947948     22.270868     22.270868     44.541736
     -2.937938     25.160757     25.160757     50.321513
     -2.927928     29.631003     29.631003     59.262006
     -2.917918     34.969101     34.969101     69.938203
     -2.907908     40.287004     40.287004     80.574007
     -2.897898     44.714465     44.714465     89.428929
     -2.887888     47.582324     47.582324     95.164649
     -2.877878     48.556908     48.556908     97.113815
     -2.867868     47.694074     47.694074     95.388148
     -2.857858     45.393775     45.393775     90.787551
     -2.847848     42.260243     42.260243     84.520487
     -2.837838     38.906899     38.906899     77.813798
     -2.827828     35.773598     35.773598     71.547197
     -2.817818     33.026890     33.026890     66.053781
     -2.807808     30.582230     30.582230     61.164460
     -2.797798     28.231580     28.231580     56.463160
     -2.787788     25.808661     25.808661     51.617323
     -2.777778     23.306364     23.306364     46.612728
     -2.767768     20.888719     20.888719     41.777437
     -2.757758     18.799699     18.799699     37.599397
     -2.747748     17.229770     17.229770     34.459539
     -2.737738     16.224093     16.224093     32.448185
     -2.727728     15.688566     15.688566     31.377131
     -2.717718     15.486745     15.486745     30.973490
     -2.707708     15.560684     15.560684     31.121368
     -2.697698     15.990795     15.990795     31.981590
     -2.687688     16.947787     16.947787     33.895574
     -2.677678     18.561215     18.561215     37.122431
     -2.667668     20.788191     20.788191     41.576381
     -2.657658     23.372034     23.372034     46.744067
     -2.647648     25.926791     25.926791     51.853582
     -2.637638     28.102655     28.102655     56.205310
     -2.627628     29.733365     29.733365     59.466731
     -2.617618     30.877975     30.877975     61.755951
     -2.607608     31.739452     31.739452     63.478905
     -2.597598     32.521622     32.521622     65.043243
     -2.587588     33.316581     33.316581     66.633162
     -2.577578     34.077833     34.077833     68.155666
     -2.567568     34.665082     34.665082     69.330163
     -2.557558     34.904121     34.904121     69.808242
     -2.547548     34.620560     34.620560     69.241119
     -2.537538     33.655724     33.655724     67.311448
     -2.527528     31.903367     31.903367     63.806733
     -2.517518     29.385156     29.385156     58.770312
     -2.507508     26.331020     26.331020     52.662040
     -2.497497     23.198010     23.198010     46.396021
     -2.487487     20.582248     20.582248     41.164495
     -2.477477     19.040810     19.040810     38.081621
     -2.467467     18.899574     18.899574     37.799147
     -2.457457     20.139382     20.139382     40.278764
     -2.447447     22.417916     22.417916     44.835832
     -2.437437     25.219725     25.219725     50.439451
     -2.427427     28.065898     28.065898     56.131796
     -2.417417     30.686167     30.686167     61.372334
     -2.407407     33.072955     33.072955     66.145911
     -2.397397     35.392134     35.392134     70.784268
     -2.387387     37.794680     37.794680     75.589359
     -2.377377     40.224425     40.224425     80.448849
     -2.367367     42.324463     42.324463     84.648925
     -2.357357     43.502612     43.502612     87.005224
     -2.347347     43.141759     43.141759     86.283518
     -2.337337     40.867989     40.867989     81.735977
     -2.327327     36.755329     36.755329     73.510658
     -2.317317     31.371460     31.371460     62.742920
     -2.307307     25.642812     25.642812     51.285624
     -2.297297     20.599582     20.599582     41.199165
     -2.287287     17.106153     17.106153     34.212306
     -2.277277     15.671155     15.671155     31.342310
     -2.267267     16.381351     16.381351     32.762703
     -2.257257     18.950097     18.950097     37.900194
     -2.247247     22.839375     22.839375     45.678750
     -2.237237     27.406492     27.406492     54.812984
     -2.227227     32.032093     32.032093     64.064187
     -2.217217     36.198908     36.198908     72.397816
     -2.207207     39.511593     39.511593     79.023186
     -2.197197     41.675848     41.675848     83.351696
     -2.187187     42.476771     42.476771     84.953543
     -2.177177     41.794104     41.794104     83.588208
     -2.167167     39.659422     39.659422     79.318843
     -2.157157     36.315843     36.315843     72.631686
     -2.147147     32.218650     32.218650     64.437299
     -2.137137     27.939390     27.939390     55.878780
     -2.127127     23.996680     23.996680     47.993361
     -2.117117     20.692592     20.692592     41.385183
     -2.107107     18.041454     18.041454     36.082908
     -2.097097     15.828438     15.828438     31.656876
     -2.087087     13.761004     13.761004     27.522008
     -2.077077     11.627518     11.627518     23.255036
     -2.067067      9.383879      9.383879     18.767759
     -2.057057      7.140462      7.140462     14.280924
     -2.047047      5.079363      5.079363     10.158726
     -2.037037      3.360065      3.360065      6.720131
     -2.027027      2.060898      2.060898      4.121796
     -2.017017      1.171203      1.171203      2.342405
     -2.007007      0.620175      0.620175      1.240350
     -1.996997      0.317533      0.317533      0.635066
     -1.986987      0.187197      0.187197      0.374395
     -1.976977      0.187453      0.187453      0.374905
     -1.966967      0.319891      0.319891      0.639781
     -1.956957      0.631118      0.631118      1.262235
     -1.946947      1.207599      1.207599      2.415198
     -1.936937      2.159839      2.159839      4.319679
     -1.926927      3.591928      3.591928      7.183856
     -1.916917      5.558500      5.558500     11.117000
     -1.906907      8.021113      8.021113     16.042226
     -1.896897     10.823293     10.823293     21.646586
     -1.886887     13.701085     13.701085     27.402170
     -1.876877     16.332526     16.332526     32.665051
     -1.866867     18.412234     18.412234     36.824469
     -1.856857     19.726775     19.726775     39.453550
     -1.846847     20.207461     20.207461     40.414922
     -1.836837     19.945523     19.945523     39.891046
     -1.826827     19.163270     19.163270     38.326539
     -1.816817     18.143592     18.143592     36.287184
     -1.806807     17.133643     17.133643     34.267286
     -1.796797     16.255901     16.255901     32.511802
     -1.786787     15.468299     15.468299     30.936598
     -1.776777     14.599820     14.599820     29.199640
     -1.766767     13.450145     13.450145     26.900291
     -1.756757     11.904410     11.904410     23.808820
     -1.746747     10.004754     10.004754     20.009508
     -1.736737      7.947685      7.947685     15.895370
     -1.726727      6.020692      6.020692     12.041383
     -1.716717      4.521551      4.521551      9.043101
     -1.706707      3.700847      3.700847      7.401695
     -1.696697      3.739597      3.739597      7.479194
     -1.686687      4.743639      4.743639      9.487277
     -1.676677      6.726768      6.726768     13.453536
     -1.666667      9.570991      9.570991     19.141983
     -1.656657     12.982452     12.982452     25.964904
     -1.646647     16.483583     16.483583     32.967167
     -1.636637     19.477706     19.477706     38.955413
     -1.626627     21.389135     21.389135     42.778270
