# EIG2DOS: Utility for SIESTA to obtain the electronic density of states
#  E. Artacho, Apr 1999, A. Garcia, Apr 2012
#  Nick R. Papior, Feb 2017
# ------------------------------------------
# Eigenvalues calculated from a non-polarized calculation
# Eigenvalues read from siesta.EIG
# Kpoint weights read from siesta.KP
# Using smearing parameter:   0.0500
# Using 1000 points in the energy range
# Selected bands: 1 to: 2981
# Emin, Emax in file for selected band(s):    -27.0377514    218.3024840
# Nbands, Nspin, Nk   =   2981     1     1
# E_F                 =    -4.3111 eV --> (shifted to ZERO)
# Broadening          =     0.0500 eV
#
#        E            N(up)  (=)   N(down)         Ntot
     -5.000000     45.469335     45.469335     90.938670
     -4.989990     49.373932     49.373932     98.747863
     -4.979980     51.642721     51.642721    103.285442
     -4.969970     52.039204     52.039204    104.078408
     -4.959960     50.630027     50.630027    101.260055
     -4.949950     47.748653     47.748653     95.497307
     -4.939940     43.902978     43.902978     87.805957
     -4.929930     39.679923     39.679923     79.359846
     -4.919920     35.687607     35.687607     71.375214
     -4.909910     32.537630     32.537630     65.075261
     -4.899900     30.830337     30.830337     61.660674
     -4.889890     31.089715     31.089715     62.179431
     -4.879880     33.618327     33.618327     67.236654
     -4.869870     38.303755     38.303755     76.607511
     -4.859860     44.475452     44.475452     88.950904
     -4.849850     50.933384     50.933384    101.866769
     -4.839840     56.210826     56.210826    112.421652
     -4.829830     59.009187     59.009187    118.018375
     -4.819820     58.626547     58.626547    117.253094
     -4.809810     55.178180     55.178180    110.356361
     -4.799800     49.505306     49.505306     99.010611
     -4.789790     42.829907     42.829907     85.659814
     -4.779780     36.334190     36.334190     72.668379
     -4.769770     30.850537     30.850537     61.701074
     -4.759760     26.753594     26.753594     53.507189
     -4.749750     24.027751     24.027751     48.055502
     -4.739740     22.416483     22.416483     44.832965
     -4.729730     21.565450     21.565450     43.130899
     -4.719720     21.116785     21.116785     42.233570
     -4.709710     20.754859     20.754859     41.509718
     -4.699700     20.224366     20.224366     40.448732
     -4.689690     19.344001     19.344001     38.688001
     -4.679680     18.031804     18.031804     36.063607
     -4.669670     16.344640     16.344640     32.689280
     -4.659660     14.517192     14.517192     29.034384
     -4.649650     12.973727     12.973727     25.947453
     -4.639640     12.286973     12.286973     24.573946
     -4.629630     13.072724     13.072724     26.145448
     -4.619620     15.829335     15.829335     31.658671
     -4.609610     20.753212     20.753212     41.506424
     -4.599600     27.583379     27.583379     55.166758
     -4.589590     35.544032     35.544032     71.088064
     -4.579580     43.446417     43.446417     86.892835
     -4.569570     49.964272     49.964272     99.928545
     -4.559560     54.017594     54.017594    108.035188
     -4.549550     55.127063     55.127063    110.254127
     -4.539540     53.586237     53.586237    107.172473
     -4.529530     50.363278     50.363278    100.726555
     -4.519520     46.761387     46.761387     93.522775
     -4.509510     43.974549     43.974549     87.949098
     -4.499499     42.715475     42.715475     85.430949
     -4.489489     43.049005     43.049005     86.098010
     -4.479479     44.466597     44.466597     88.933193
     -4.469469     46.139333     46.139333     92.278667
     -4.459459     47.232106     47.232106     94.464212
     -4.449449     47.164130     47.164130     94.328259
     -4.439439     45.745047     45.745047     91.490095
     -4.429429     43.172618     43.172618     86.345236
     -4.419419     39.923195     39.923195     79.846390
     -4.409409     36.588967     36.588967     73.177934
     -4.399399     33.716866     33.716866     67.433732
     -4.389389     31.689684     31.689684     63.379367
     -4.379379     30.668598     30.668598     61.337196
     -4.369369     30.596026     30.596026     61.192052
     -4.359359     31.244592     31.244592     62.489184
     -4.349349     32.293777     32.293777     64.587553
     -4.339339     33.417199     33.417199     66.834397
     -4.329329     34.364930     34.364930     68.729861
     -4.319319     35.024513     35.024513     70.049027
     -4.309309     35.444915     35.444915     70.889830
     -4.299299     35.814489     35.814489     71.628978
     -4.289289     36.396322     36.396322     72.792644
     -4.279279     37.435423     37.435423     74.870845
     -4.269269     39.057479     39.057479     78.114958
     -4.259259     41.182155     41.182155     82.364310
     -4.249249     43.480884     43.480884     86.961767
     -4.239239     45.414160     45.414160     90.828320
     -4.229229     46.368460     46.368460     92.736921
     -4.219219     45.867477     45.867477     91.734953
     -4.209209     43.775575     43.775575     87.551150
     -4.199199     40.387738     40.387738     80.775475
     -4.189189     36.342764     36.342764     72.685528
     -4.179179     32.389963     32.389963     64.779925
     -4.169169     29.123885     29.123885     58.247771
     -4.159159     26.818184     26.818184     53.636367
     -4.149149     25.428457     25.428457     50.856914
     -4.139139     24.738730     24.738730     49.477460
     -4.129129     24.555862     24.555862     49.111724
     -4.119119     24.843103     24.843103     49.686205
     -4.109109     25.723486     25.723486     51.446972
     -4.099099     27.351380     27.351380     54.702761
     -4.089089     29.719416     29.719416     59.438832
     -4.079079     32.511252     32.511252     65.022504
     -4.069069     35.102510     35.102510     70.205020
     -4.059059     36.743222     36.743222     73.486445
     -4.049049     36.852387     36.852387     73.704774
     -4.039039     35.278984     35.278984     70.557969
     -4.029029     32.389909     32.389909     64.779818
     -4.019019     28.938367     28.938367     57.876734
     -4.009009     25.788763     25.788763     51.577527
     -3.998999     23.645059     23.645059     47.290117
     -3.988989     22.905594     22.905594     45.811189
     -3.978979     23.673433     23.673433     47.346866
     -3.968969     25.858415     25.858415     51.716830
     -3.958959     29.276764     29.276764     58.553528
     -3.948949     33.694470     33.694470     67.388939
     -3.938939     38.827660     38.827660     77.655320
     -3.928929     44.349956     44.349956     88.699912
     -3.918919     49.938813     49.938813     99.877627
     -3.908909     55.342471     55.342471    110.684942
     -3.898899     60.412910     60.412910    120.825820
     -3.888889     65.060359     65.060359    130.120718
     -3.878879     69.136786     69.136786    138.273571
     -3.868869     72.314203     72.314203    144.628405
     -3.858859     74.047900     74.047900    148.095800
     -3.848849     73.683768     73.683768    147.367537
     -3.838839     70.693894     70.693894    141.387788
     -3.828829     64.945298     64.945298    129.890596
     -3.818819     56.870958     56.870958    113.741917
     -3.808809     47.446614     47.446614     94.893228
     -3.798799     37.965849     37.965849     75.931699
     -3.788789     29.699208     29.699208     59.398417
     -3.778779     23.568771     23.568771     47.137543
     -3.768769     19.949257     19.949257     39.898514
     -3.758759     18.642886     18.642886     37.285773
     -3.748749     19.008896     19.008896     38.017792
     -3.738739     20.188756     20.188756     40.377512
     -3.728729     21.358650     21.358650     42.717299
     -3.718719     21.949130     21.949130     43.898259
     -3.708709     21.785492     21.785492     43.570985
     -3.698699     21.117467     21.117467     42.234934
     -3.688689     20.526514     20.526514     41.053028
     -3.678679     20.726751     20.726751     41.453503
     -3.668669     22.309117     22.309117     44.618234
     -3.658659     25.507198     25.507198     51.014396
     -3.648649     30.070523     30.070523     60.141047
     -3.638639     35.302737     35.302737     70.605474
     -3.628629     40.259828     40.259828     80.519657
     -3.618619     44.033149     44.033149     88.066297
     -3.608609     46.003106     46.003106     92.006213
     -3.598599     45.968931     45.968931     91.937862
     -3.588589     44.127154     44.127154     88.254308
     -3.578579     40.942339     40.942339     81.884678
     -3.568569     36.984424     36.984424     73.968849
     -3.558559     32.789518     32.789518     65.579036
     -3.548549     28.764461     28.764461     57.528922
     -3.538539     25.134719     25.134719     50.269437
     -3.528529     21.937547     21.937547     43.875095
     -3.518519     19.067312     19.067312     38.134624
     -3.508509     16.366985     16.366985     32.733970
     -3.498498     13.734021     13.734021     27.468042
     -3.488488     11.194076     11.194076     22.388152
     -3.478478      8.909514      8.909514     17.819027
     -3.468468      7.123129      7.123129     14.246258
     -3.458458      6.066778      6.066778     12.133556
     -3.448448      5.872596      5.872596     11.745192
     -3.438438      6.514527      6.514527     13.029055
     -3.428428      7.794746      7.794746     15.589492
     -3.418418      9.381493      9.381493     18.762987
     -3.408408     10.896860     10.896860     21.793720
     -3.398398     12.036915     12.036915     24.073831
     -3.388388     12.685499     12.685499     25.370999
     -3.378378     12.973111     12.973111     25.946222
     -3.368368     13.248316     13.248316     26.496632
     -3.358358     13.967332     13.967332     27.934663
     -3.348348     15.544925     15.544925     31.089849
     -3.338338     18.221537     18.221537     36.443074
     -3.328328     21.982235     21.982235     43.964470
     -3.318318     26.532318     26.532318     53.064636
     -3.308308     31.319299     31.319299     62.638598
     -3.298298     35.600154     35.600154     71.200309
     -3.288288     38.566425     38.566425     77.132851
     -3.278278     39.528701     39.528701     79.057402
     -3.268268     38.120342     38.120342     76.240684
     -3.258258     34.438955     34.438955     68.877911
     -3.248248     29.046701     29.046701     58.093401
     -3.238238     22.810404     22.810404     45.620807
     -3.228228     16.644746     16.644746     33.289493
     -3.218218     11.269806     11.269806     22.539612
     -3.208208      7.076888      7.076888     14.153775
     -3.198198      4.131604      4.131604      8.263209
     -3.188188      2.277403      2.277403      4.554806
     -3.178178      1.273271      1.273271      2.546543
     -3.168168      0.910358      0.910358      1.820716
     -3.158158      1.082153      1.082153      2.164305
     -3.148148      1.807281      1.807281      3.614562
     -3.138138      3.212384      3.212384      6.424768
     -3.128128      5.480384      5.480384     10.960768
     -3.118118      8.768857      8.768857     17.537714
     -3.108108     13.112391     13.112391     26.224782
     -3.098098     18.339153     18.339153     36.678307
     -3.088088     24.042447     24.042447     48.084894
     -3.078078     29.637604     29.637604     59.275209
     -3.068068     34.498736     34.498736     68.997472
     -3.058058     38.123985     38.123985     76.247971
     -3.048048     40.252743     40.252743     80.505487
     -3.038038     40.878653     40.878653     81.757305
     -3.028028     40.163595     40.163595     80.327189
     -3.018018     38.321123     38.321123     76.642245
     -3.008008     35.555184     35.555184     71.110368
     -2.997998     32.094326     32.094326     64.188651
     -2.987988     28.284815     28.284815     56.569630
     -2.977978     24.655963     24.655963     49.311925
     -2.967968     21.883938     21.883938     43.767876
     -2.957958     20.644033     20.644033     41.288066
     -2.947948     21.408492     21.408492     42.816984
     -2.937938     24.276143     24.276143     48.552286
     -2.927928     28.902479     28.902479     57.804959
     -2.917918     34.554909     34.554909     69.109818
     -2.907908     40.274108     40.274108     80.548215
     -2.897898     45.093808     45.093808     90.187617
     -2.887888     48.259954     48.259954     96.519909
     -2.877878     49.392541     49.392541     98.785082
     -2.867868     48.547213     48.547213     97.094426
     -2.857858     46.158357     46.158357     92.316714
     -2.847848     42.879007     42.879007     85.758013
     -2.837838     39.367958     39.367958     78.735916
     -2.827828     36.097415     36.097415     72.194831
     -2.817818     33.251143     33.251143     66.502286
     -2.807808     30.748464     30.748464     61.496929
     -2.797798     28.374854     28.374854     56.749709
     -2.787788     25.950815     25.950815     51.901631
     -2.777778     23.453792     23.453792     46.907584
     -2.767768     21.034954     21.034954     42.069907
     -2.757758     18.931426     18.931426     37.862853
     -2.747748     17.333243     17.333243     34.666486
     -2.737738     16.288795     16.288795     32.577591
     -2.727728     15.706832     15.706832     31.413664
     -2.717718     15.450890     15.450890     30.901780
     -2.707708     15.461179     15.461179     30.922358
     -2.697698     15.818620     15.818620     31.637240
     -2.687688     16.701262     16.701262     33.402523
     -2.677678     18.253859     18.253859     36.507718
     -2.667668     20.452060     20.452060     40.904120
     -2.657658     23.052402     23.052402     46.104803
     -2.647648     25.668745     25.668745     51.337489
     -2.637638     27.935517     27.935517     55.871035
     -2.627628     29.661008     29.661008     59.322015
     -2.617618     30.880109     30.880109     61.760217
     -2.607608     31.782626     31.782626     63.565253
     -2.597598     32.573339     32.573339     65.146679
     -2.587588     33.355463     33.355463     66.710925
     -2.577578     34.096888     34.096888     68.193777
     -2.567568     34.670028     34.670028     69.340056
     -2.557558     34.910275     34.910275     69.820550
     -2.547548     34.649670     34.649670     69.299340
     -2.537538     33.731318     33.731318     67.462636
     -2.527528     32.043182     32.043182     64.086363
     -2.517518     29.592217     29.592217     59.184433
     -2.507508     26.587881     26.587881     53.175763
     -2.497497     23.468402     23.468402     46.936805
     -2.487487     20.820628     20.820628     41.641256
     -2.477477     19.205862     19.205862     38.411723
     -2.467467     18.965669     18.965669     37.931337
     -2.457457     20.101478     20.101478     40.202956
     -2.447447     22.288887     22.288887     44.577774
     -2.437437     25.022543     25.022543     50.045085
     -2.427427     27.824802     27.824802     55.649604
     -2.417417     30.420723     30.420723     60.841447
     -2.407407     32.797102     32.797102     65.594204
     -2.397397     35.117891     35.117891     70.235782
     -2.387387     37.538007     37.538007     75.076013
     -2.377377     40.009598     40.009598     80.019197
     -2.367367     42.183737     42.183737     84.367473
     -2.357357     43.469785     43.469785     86.939570
     -2.347347     43.241154     43.241154     86.482308
     -2.337337     41.103106     41.103106     82.206213
     -2.327327     37.102587     37.102587     74.205174
     -2.317317     31.782802     31.782802     63.565605
     -2.307307     26.056984     26.056984     52.113969
     -2.297297     20.957672     20.957672     41.915345
     -2.287287     17.365142     17.365142     34.730284
     -2.277277     15.810730     15.810730     31.621459
     -2.267267     16.402863     16.402863     32.805727
     -2.257257     18.870039     18.870039     37.740079
     -2.247247     22.681379     22.681379     45.362758
     -2.237237     27.195390     27.195390     54.390780
     -2.227227     31.791793     31.791793     63.583586
     -2.217217     35.953557     35.953557     71.907114
     -2.207207     39.287713     39.287713     78.575426
     -2.197197     41.502454     41.502454     83.004908
     -2.187187     42.381531     42.381531     84.763063
     -2.177177     41.796033     41.796033     83.592065
     -2.167167     39.761300     39.761300     79.522600
     -2.157157     36.500747     36.500747     73.001495
     -2.147147     32.453587     32.453587     64.907174
     -2.137137     28.185489     28.185489     56.370979
     -2.127127     24.221665     24.221665     48.443330
     -2.117117     20.879770     20.879770     41.759540
     -2.107107     18.191303     18.191303     36.382606
     -2.097097     15.952896     15.952896     31.905791
     -2.087087     13.874315     13.874315     27.748631
     -2.077077     11.738632     11.738632     23.477265
     -2.067067      9.493614      9.493614     18.987228
     -2.057057      7.243476      7.243476     14.486952
     -2.047047      5.168537      5.168537     10.337074
     -2.037037      3.430413      3.430413      6.860826
     -2.027027      2.111308      2.111308      4.222617
     -2.017017      1.203989      1.203989      2.407979
     -2.007007      0.639434      0.639434      1.278867
     -1.996997      0.327426      0.327426      0.654853
     -1.986987      0.190790      0.190790      0.381579
     -1.976977      0.186165      0.186165      0.372330
     -1.966967      0.313384      0.313384      0.626768
     -1.956957      0.617429      0.617429      1.234858
     -1.946947      1.183552      1.183552      2.367104
     -1.936937      2.121865      2.121865      4.243730
     -1.926927      3.537358      3.537358      7.074717
     -1.916917      5.487106      5.487106     10.974213
     -1.906907      7.936319      7.936319     15.872638
     -1.896897     10.732385     10.732385     21.464771
     -1.886887     13.614025     13.614025     27.228049
     -1.876877     16.259582     16.259582     32.519164
     -1.866867     18.361221     18.361221     36.722442
     -1.856857     19.700859     19.700859     39.401718
     -1.846847     20.204284     20.204284     40.408568
     -1.836837     19.957957     19.957957     39.915913
     -1.826827     19.181737     19.181737     38.363473
     -1.816817     18.159459     18.159459     36.318918
     -1.806807     17.142637     17.142637     34.285275
     -1.796797     16.260082     16.260082     32.520164
     -1.786787     15.475319     15.475319     30.950639
     -1.776777     14.619313     14.619313     29.238627
     -1.766767     13.488548     13.488548     26.977095
     -1.756757     11.960302     11.960302     23.920604
     -1.746747     10.066225     10.066225     20.132450
     -1.736737      7.991659      7.991659     15.983317
     -1.726727      6.013033      6.013033     12.026067
     -1.716717      4.417362      4.417362      8.834725
     -1.706707      3.446622      3.446622      6.893243
     -1.696697      3.281137      3.281137      6.562273
     -1.686687      4.043224      4.043224      8.086448
     -1.676677      5.788261      5.788261     11.576522
     -1.666667      8.463739      8.463739     16.927478
     -1.656657     11.848955     11.848955     23.697909
     -1.646647     15.518062     15.518062     31.036125
     -1.636637     18.875228     18.875228     37.750456
     -1.626627     21.282304     21.282304     42.564609
