# EIG2DOS: Utility for SIESTA to obtain the electronic density of states
#  E. Artacho, Apr 1999, A. Garcia, Apr 2012
#  Nick R. Papior, Feb 2017
# ------------------------------------------
# Eigenvalues calculated from a non-polarized calculation
# Eigenvalues read from siesta.EIG
# Kpoint weights read from siesta.KP
# Using smearing parameter:   0.0500
# Using 1000 points in the energy range
# Selected bands: 1 to: 2981
# Emin, Emax in file for selected band(s):    -27.1801088    218.3483680
# Nbands, Nspin, Nk   =   2981     1     1
# E_F                 =    -4.2568 eV --> (shifted to ZERO)
# Broadening          =     0.0500 eV
#
#        E            N(up)  (=)   N(down)         Ntot
     -5.000000     34.799525     34.799525     69.599049
     -4.989990     38.313464     38.313464     76.626928
     -4.979980     41.630349     41.630349     83.260699
     -4.969970     44.068253     44.068253     88.136505
     -4.959960     45.086696     45.086696     90.173392
     -4.949950     44.446310     44.446310     88.892619
     -4.939940     42.275185     42.275185     84.550370
     -4.929930     39.036318     39.036318     78.072637
     -4.919920     35.429624     35.429624     70.859247
     -4.909910     32.270772     32.270772     64.541544
     -4.899900     30.366599     30.366599     60.733198
     -4.889890     30.377857     30.377857     60.755714
     -4.879880     32.657509     32.657509     65.315019
     -4.869870     37.088661     37.088661     74.177323
     -4.859860     42.995360     42.995360     85.990720
     -4.849850     49.213876     49.213876     98.427753
     -4.839840     54.360084     54.360084    108.720168
     -4.829830     57.227377     57.227377    114.454753
     -4.819820     57.161264     57.161264    114.322529
     -4.809810     54.245930     54.245930    108.491859
     -4.799800     49.221759     49.221759     98.443518
     -4.789790     43.183953     43.183953     86.367905
     -4.779780     37.210582     37.210582     74.421165
     -4.769770     32.078201     32.078201     64.156403
     -4.759760     28.150563     28.150563     56.301125
     -4.749750     25.428000     25.428000     50.856000
     -4.739740     23.681828     23.681828     47.363656
     -4.729730     22.592402     22.592402     45.184804
     -4.719720     21.842998     21.842998     43.685996
     -4.709710     21.162239     21.162239     42.324479
     -4.699700     20.334823     20.334823     40.669645
     -4.689690     19.209049     19.209049     38.418099
     -4.679680     17.722276     17.722276     35.444553
     -4.669670     15.946247     15.946247     31.892494
     -4.659660     14.132442     14.132442     28.264884
     -4.649650     12.725487     12.725487     25.450973
     -4.639640     12.317456     12.317456     24.634911
     -4.629630     13.534055     13.534055     27.068109
     -4.619620     16.866503     16.866503     33.733007
     -4.609610     22.485825     22.485825     44.971649
     -4.599600     30.097368     30.097368     60.194737
     -4.589590     38.904066     38.904066     77.808131
     -4.579580     47.729543     47.729543     95.459086
     -4.569570     55.296776     55.296776    110.593551
     -4.559560     60.582022     60.582022    121.164044
     -4.549550     63.111037     63.111037    126.222074
     -4.539540     63.074469     63.074469    126.148937
     -4.529530     61.213898     61.213898    122.427796
     -4.519520     58.529198     58.529198    117.058396
     -4.509510     55.928704     55.928704    111.857407
     -4.499499     53.955119     53.955119    107.910238
     -4.489489     52.676011     52.676011    105.352022
     -4.479479     51.755362     51.755362    103.510724
     -4.469469     50.653940     50.653940    101.307881
     -4.459459     48.866109     48.866109     97.732217
     -4.449449     46.101557     46.101557     92.203113
     -4.439439     42.358686     42.358686     84.717372
     -4.429429     37.891722     37.891722     75.783444
     -4.419419     33.117181     33.117181     66.234361
     -4.409409     28.515131     28.515131     57.030261
     -4.399399     24.556313     24.556313     49.112625
     -4.389389     21.650239     21.650239     43.300479
     -4.379379     20.091554     20.091554     40.183108
     -4.369369     19.995770     19.995770     39.991539
     -4.359359     21.246954     21.246954     42.493908
     -4.349349     23.498692     23.498692     46.997385
     -4.339339     26.254891     26.254891     52.509782
     -4.329329     29.015216     29.015216     58.030433
     -4.319319     31.429863     31.429863     62.859726
     -4.309309     33.397532     33.397532     66.795065
     -4.299299     35.064861     35.064861     70.129722
     -4.289289     36.727699     36.727699     73.455397
     -4.279279     38.670984     38.670984     77.341969
     -4.269269     41.002793     41.002793     82.005585
     -4.259259     43.541751     43.541751     87.083503
     -4.249249     45.808952     45.808952     91.617904
     -4.239239     47.150354     47.150354     94.300708
     -4.229229     46.967269     46.967269     93.934538
     -4.219219     44.972798     44.972798     89.945596
     -4.209209     41.356660     41.356660     82.713319
     -4.199199     36.765574     36.765574     73.531148
     -4.189189     32.092043     32.092043     64.184086
     -4.179179     28.164956     28.164956     56.329912
     -4.169169     25.487474     25.487474     50.974948
     -4.159159     24.138030     24.138030     48.276060
     -4.149149     23.860335     23.860335     47.720671
     -4.139139     24.274384     24.274384     48.548768
     -4.129129     25.091809     25.091809     50.183618
     -4.119119     26.230545     26.230545     52.461089
     -4.109109     27.779761     27.779761     55.559522
     -4.099099     29.839469     29.839469     59.678938
     -4.089089     32.323209     32.323209     64.646418
     -4.079079     34.840564     34.840564     69.681128
     -4.069069     36.747643     36.747643     73.495285
     -4.059059     37.369551     37.369551     74.739101
     -4.049049     36.297917     36.297917     72.595834
     -4.039039     33.610829     33.610829     67.221658
     -4.029029     29.894832     29.894832     59.789663
     -4.019019     26.054822     26.054822     52.109644
     -4.009009     23.011136     23.011136     46.022272
     -3.998999     21.432298     21.432298     42.864595
     -3.988989     21.611758     21.611758     43.223517
     -3.978979     23.503045     23.503045     47.006090
     -3.968969     26.845718     26.845718     53.691436
     -3.958959     31.292094     31.292094     62.584189
     -3.948949     36.482351     36.482351     72.964703
     -3.938939     42.073241     42.073241     84.146482
     -3.928929     47.756266     47.756266     95.512533
     -3.918919     53.286709     53.286709    106.573419
     -3.908909     58.506938     58.506938    117.013877
     -3.898899     63.326473     63.326473    126.652946
     -3.888889     67.641271     67.641271    135.282542
     -3.878879     71.223365     71.223365    142.446729
     -3.868869     73.651363     73.651363    147.302727
     -3.858859     74.348969     74.348969    148.697938
     -3.848849     72.748230     72.748230    145.496461
     -3.838839     68.524219     68.524219    137.048439
     -3.828829     61.799197     61.799197    123.598394
     -3.818819     53.216555     53.216555    106.433111
     -3.808809     43.838232     43.838232     87.676463
     -3.798799     34.895580     34.895580     69.791161
     -3.788789     27.483256     27.483256     54.966511
     -3.778779     22.301460     22.301460     44.602921
     -3.768769     19.523328     19.523328     39.046656
     -3.758759     18.812759     18.812759     37.625517
     -3.748749     19.470079     19.470079     38.940159
     -3.738739     20.653986     20.653986     41.307973
     -3.728729     21.619359     21.619359     43.238719
     -3.718719     21.914842     21.914842     43.829684
     -3.708709     21.495315     21.495315     42.990631
     -3.698699     20.720677     20.720677     41.441355
     -3.688689     20.234944     20.234944     40.469889
     -3.678679     20.749273     20.749273     41.498545
     -3.668669     22.785183     22.785183     45.570365
     -3.658659     26.459062     26.459062     52.918125
     -3.648649     31.389785     31.389785     62.779570
     -3.638639     36.776138     36.776138     73.552277
     -3.628629     41.625213     41.625213     83.250427
     -3.618619     45.045688     45.045688     90.091375
     -3.608609     46.490143     46.490143     92.980287
     -3.598599     45.859576     45.859576     91.719152
     -3.588589     43.454403     43.454403     86.908807
     -3.578579     39.823775     39.823775     79.647550
     -3.568569     35.589586     35.589586     71.179171
     -3.558559     31.300910     31.300910     62.601820
     -3.548549     27.339332     27.339332     54.678664
     -3.538539     23.876574     23.876574     47.753148
     -3.528529     20.886065     20.886065     41.772130
     -3.518519     18.209594     18.209594     36.419187
     -3.508509     15.663856     15.663856     31.327712
     -3.498498     13.148398     13.148398     26.296796
     -3.488488     10.709014     10.709014     21.418028
     -3.478478      8.530656      8.530656     17.061313
     -3.468468      6.868641      6.868641     13.737282
     -3.458458      5.952310      5.952310     11.904619
     -3.448448      5.898375      5.898375     11.796750
     -3.438438      6.658815      6.658815     13.317629
     -3.428428      8.015458      8.015458     16.030915
     -3.418418      9.626263      9.626263     19.252526
     -3.408408     11.119817     11.119817     22.239635
     -3.398398     12.217353     12.217353     24.434706
     -3.388388     12.841029     12.841029     25.682059
     -3.378378     13.160642     13.160642     26.321284
     -3.368368     13.551011     13.551011     27.102022
     -3.358358     14.471988     14.471988     28.943975
     -3.348348     16.317507     16.317507     32.635015
     -3.338338     19.286609     19.286609     38.573218
     -3.328328     23.307433     23.307433     46.614866
     -3.318318     28.017446     28.017446     56.034892
     -3.308308     32.794056     32.794056     65.588112
     -3.298298     36.840904     36.840904     73.681809
     -3.288288     39.341805     39.341805     78.683610
     -3.278278     39.671254     39.671254     79.342507
     -3.268268     37.603023     37.603023     75.206045
     -3.258258     33.425706     33.425706     66.851412
     -3.248248     27.895086     27.895086     55.790173
     -3.238238     22.026129     22.026129     44.052257
     -3.228228     16.805811     16.805811     33.611622
     -3.218218     12.939518     12.939518     25.879037
     -3.208208     10.714004     10.714004     21.428007
     -3.198198      9.999206      9.999206     19.998411
     -3.188188     10.361808     10.361808     20.723616
     -3.178178     11.243727     11.243727     22.487454
     -3.168168     12.158133     12.158133     24.316267
     -3.158158     12.856612     12.856612     25.713224
     -3.148148     13.420819     13.420819     26.841637
     -3.138138     14.241700     14.241700     28.483400
     -3.128128     15.878019     15.878019     31.756038
     -3.118118     18.828089     18.828089     37.656178
     -3.108108     23.287448     23.287448     46.574896
     -3.098098     28.983152     28.983152     57.966304
     -3.088088     35.161320     35.161320     70.322640
     -3.078078     40.756259     40.756259     81.512518
     -3.068068     44.697208     44.697208     89.394415
     -3.058058     46.240434     46.240434     92.480868
     -3.048048     45.189042     45.189042     90.378085
     -3.038038     41.906734     41.906734     83.813468
     -3.028028     37.131142     37.131142     74.262284
     -3.018018     31.691847     31.691847     63.383694
     -3.008008     26.275440     26.275440     52.550879
     -2.997998     21.333243     21.333243     42.666487
     -2.987988     17.132770     17.132770     34.265540
     -2.977978     13.876518     13.876518     27.753037
     -2.967968     11.794511     11.794511     23.589023
     -2.957958     11.154927     11.154927     22.309853
     -2.947948     12.192686     12.192686     24.385372
     -2.937938     14.994869     14.994869     29.989739
     -2.927928     19.394810     19.394810     38.789621
     -2.917918     24.922076     24.922076     49.844152
     -2.907908     30.840843     30.840843     61.681686
     -2.897898     36.284139     36.284139     72.568278
     -2.887888     40.455837     40.455837     80.911673
     -2.877878     42.836779     42.836779     85.673558
     -2.867868     43.316009     43.316009     86.632017
     -2.857858     42.188442     42.188442     84.376884
     -2.847848     40.013709     40.013709     80.027418
     -2.837838     37.393502     37.393502     74.787004
     -2.827828     34.763883     34.763883     69.527766
     -2.817818     32.291688     32.291688     64.583377
     -2.807808     29.911778     29.911778     59.823557
     -2.797798     27.470787     27.470787     54.941575
     -2.787788     24.891156     24.891156     49.782312
     -2.777778     22.264724     22.264724     44.529447
     -2.767768     19.830198     19.830198     39.660395
     -2.757758     17.857705     17.857705     35.715409
     -2.747748     16.516763     16.516763     33.033525
     -2.737738     15.810437     15.810437     31.620875
     -2.727728     15.614101     15.614101     31.228202
     -2.717718     15.788702     15.788702     31.577404
     -2.707708     16.288758     16.288758     32.577516
     -2.697698     17.187620     17.187620     34.375240
     -2.687688     18.598028     18.598028     37.196057
     -2.677678     20.539756     20.539756     41.079511
     -2.667668     22.848227     22.848227     45.696454
     -2.657658     25.196708     25.196708     50.393415
     -2.647648     27.230566     27.230566     54.461132
     -2.637638     28.734504     28.734504     57.469008
     -2.627628     29.727620     29.727620     59.455239
     -2.617618     30.427163     30.427163     60.854326
     -2.607608     31.107945     31.107945     62.215891
     -2.597598     31.948119     31.948119     63.896238
     -2.587588     32.948690     32.948690     65.897380
     -2.577578     33.952119     33.952119     67.904238
     -2.567568     34.718359     34.718359     69.436719
     -2.557558     34.997012     34.997012     69.994023
     -2.547548     34.568616     34.568616     69.137233
     -2.537538     33.275292     33.275292     66.550583
     -2.527528     31.072869     31.072869     62.145738
     -2.517518     28.103207     28.103207     56.206413
     -2.507508     24.741099     24.741099     49.482198
     -2.497497     21.559916     21.559916     43.119832
     -2.487487     19.197800     19.197800     38.395600
     -2.477477     18.165744     18.165744     36.331487
     -2.467467     18.678925     18.678925     37.357850
     -2.457457     20.588759     20.588759     41.177518
     -2.447447     23.449442     23.449442     46.898883
     -2.437437     26.692778     26.692778     53.385557
     -2.427427     29.836250     29.836250     59.672499
     -2.417417     32.632638     32.632638     65.265276
     -2.407407     35.093764     35.093764     70.187528
     -2.397397     37.377928     37.377928     74.755855
     -2.387387     39.596496     39.596496     79.192992
     -2.377377     41.638857     41.638857     83.277715
     -2.367367     43.113173     43.113173     86.226347
     -2.357357     43.449272     43.449272     86.898545
     -2.347347     42.130112     42.130112     84.260224
     -2.337337     38.948507     38.948507     77.897014
     -2.327327     34.165786     34.165786     68.331572
     -2.317317     28.494051     28.494051     56.988102
     -2.307307     22.910159     22.910159     45.820319
     -2.297297     18.386780     18.386780     36.773561
     -2.287287     15.650933     15.650933     31.301867
     -2.277277     15.047615     15.047615     30.095229
     -2.267267     16.526232     16.526232     33.052465
     -2.257257     19.719264     19.719264     39.438528
     -2.247247     24.064433     24.064433     48.128866
     -2.237237     28.927762     28.927762     57.855523
     -2.227227     33.699925     33.699925     67.399851
     -2.217217     37.853766     37.853766     75.707531
     -2.207207     40.966242     40.966242     81.932483
     -2.197197     42.722871     42.722871     85.445743
     -2.187187     42.929782     42.929782     85.859564
     -2.177177     41.548585     41.548585     83.097170
     -2.167167     38.742348     38.742348     77.484697
     -2.157157     34.893336     34.893336     69.786671
     -2.147147     30.549722     30.549722     61.099444
     -2.137137     26.291785     26.291785     52.583570
     -2.127127     22.561874     22.561874     45.123748
     -2.117117     19.538416     19.538416     39.076831
     -2.107107     17.120960     17.120960     34.241921
     -2.097097     15.034174     15.034174     30.068348
     -2.087087     12.992396     12.992396     25.984791
     -2.077077     10.837459     10.837459     21.674918
     -2.067067      8.587555      8.587555     17.175111
     -2.057057      6.392195      6.392195     12.784390
     -2.047047      4.437660      4.437660      8.875321
     -2.037037      2.860923      2.860923      5.721847
     -2.027027      1.708848      1.708848      3.417695
     -2.017017      0.945763      0.945763      1.891527
     -2.007007      0.489163      0.489163      0.978326
     -1.996997      0.249224      0.249224      0.498448
     -1.986987      0.157502      0.157502      0.315003
     -1.976977      0.182229      0.182229      0.364457
     -1.966967      0.334397      0.334397      0.668794
     -1.956957      0.668449      0.668449      1.336899
     -1.946947      1.276914      1.276914      2.553828
     -1.936937      2.274244      2.274244      4.548489
     -1.926927      3.765589      3.765589      7.531179
     -1.916917      5.802878      5.802878     11.605757
     -1.906907      8.340915      8.340915     16.681830
     -1.896897     11.213497     11.213497     22.426995
     -1.886887     14.147148     14.147148     28.294296
     -1.876877     16.816718     16.816718     33.633436
     -1.866867     18.929543     18.929543     37.859087
     -1.856857     20.312537     20.312537     40.625073
     -1.846847     20.973975     20.973975     41.947950
     -1.836837     21.116123     21.116123     42.232245
     -1.826827     21.083279     21.083279     42.166558
     -1.816817     21.245390     21.245390     42.490780
     -1.806807     21.844419     21.844419     43.688838
     -1.796797     22.861828     22.861828     45.723657
     -1.786787     23.977893     23.977893     47.955786
     -1.776777     24.664891     24.664891     49.329781
     -1.766767     24.390405     24.390405     48.780810
     -1.756757     22.841276     22.841276     45.682552
     -1.746747     20.059671     20.059671     40.119342
     -1.736737     16.428331     16.428331     32.856662
     -1.726727     12.524105     12.524105     25.048211
     -1.716717      8.923726      8.923726     17.847451
     -1.706707      6.054864      6.054864     12.109729
     -1.696697      4.141716      4.141716      8.283432
     -1.686687      3.233598      3.233598      6.467196
     -1.676677      3.266373      3.266373      6.532746
     -1.666667      4.106811      4.106811      8.213622
     -1.656657      5.560008      5.560008     11.120016
     -1.646647      7.356332      7.356332     14.712663
     -1.636637      9.154498      9.154498     18.308997
     -1.626627     10.590275     10.590275     21.180550
