# EIG2DOS: Utility for SIESTA to obtain the electronic density of states
#  E. Artacho, Apr 1999, A. Garcia, Apr 2012
#  Nick R. Papior, Feb 2017
# ------------------------------------------
# Eigenvalues calculated from a non-polarized calculation
# Eigenvalues read from siesta.EIG
# Kpoint weights read from siesta.KP
# Using smearing parameter:   0.0500
# Using 1000 points in the energy range
# Selected bands: 1 to: 2981
# Emin, Emax in file for selected band(s):    -27.2519516    218.3894660
# Nbands, Nspin, Nk   =   2981     1     1
# E_F                 =    -4.2078 eV --> (shifted to ZERO)
# Broadening          =     0.0500 eV
#
#        E            N(up)  (=)   N(down)         Ntot
     -5.000000     31.798779     31.798779     63.597557
     -4.989990     36.743723     36.743723     73.487446
     -4.979980     41.390123     41.390123     82.780246
     -4.969970     44.947460     44.947460     89.894920
     -4.959960     46.748454     46.748454     93.496909
     -4.949950     46.470545     46.470545     92.941090
     -4.939940     44.248490     44.248490     88.496980
     -4.929930     40.646772     40.646772     81.293544
     -4.919920     36.524802     36.524802     73.049604
     -4.909910     32.857595     32.857595     65.715190
     -4.899900     30.558470     30.558470     61.116940
     -4.889890     30.314922     30.314922     60.629844
     -4.879880     32.434316     32.434316     64.868632
     -4.869870     36.719392     36.719392     73.438785
     -4.859860     42.430676     42.430676     84.861352
     -4.849850     48.399045     48.399045     96.798089
     -4.839840     53.301768     53.301768    106.603535
     -4.829830     56.030149     56.030149    112.060299
     -4.819820     56.011499     56.011499    112.022999
     -4.809810     53.351465     53.351465    106.702931
     -4.799800     48.740566     48.740566     97.481131
     -4.789790     43.177616     43.177616     86.355231
     -4.779780     37.639501     37.639501     75.279001
     -4.769770     32.831130     32.831130     65.662261
     -4.759760     29.088680     29.088680     58.177360
     -4.749750     26.427614     26.427614     52.855228
     -4.739740     24.671272     24.671272     49.342543
     -4.729730     23.585390     23.585390     47.170780
     -4.719720     22.967939     22.967939     45.935877
     -4.709710     22.678771     22.678771     45.357541
     -4.699700     22.622797     22.622797     45.245595
     -4.689690     22.716715     22.716715     45.433431
     -4.679680     22.871223     22.871223     45.742446
     -4.669670     23.009150     23.009150     46.018299
     -4.659660     23.119167     23.119167     46.238334
     -4.649650     23.321830     23.321830     46.643660
     -4.639640     23.907368     23.907368     47.814737
     -4.629630     25.301352     25.301352     50.602704
     -4.619620     27.934229     27.934229     55.868457
     -4.609610     32.036736     32.036736     64.073472
     -4.599600     37.440070     37.440070     74.880140
     -4.589590     43.491960     43.491960     86.983920
     -4.579580     49.172291     49.172291     98.344583
     -4.569570     53.402025     53.402025    106.804050
     -4.559560     55.430808     55.430808    110.861616
     -4.549550     55.128885     55.128885    110.257770
     -4.539540     53.040863     53.040863    106.081726
     -4.529530     50.169245     50.169245    100.338490
     -4.519520     47.583156     47.583156     95.166312
     -4.509510     46.024024     46.024024     92.048048
     -4.499499     45.670502     45.670502     91.341003
     -4.489489     46.142642     46.142642     92.285284
     -4.479479     46.716479     46.716479     93.432959
     -4.469469     46.636708     46.636708     93.273417
     -4.459459     45.390885     45.390885     90.781769
     -4.449449     42.846674     42.846674     85.693348
     -4.439439     39.229124     39.229124     78.458249
     -4.429429     34.988019     34.988019     69.976038
     -4.419419     30.641085     30.641085     61.282170
     -4.409409     26.663841     26.663841     53.327683
     -4.399399     23.446455     23.446455     46.892910
     -4.389389     21.287868     21.287868     42.575736
     -4.379379     20.381424     20.381424     40.762849
     -4.369369     20.772440     20.772440     41.544880
     -4.359359     22.312471     22.312471     44.624943
     -4.349349     24.659513     24.659513     49.319025
     -4.339339     27.356184     27.356184     54.712368
     -4.329329     29.970596     29.970596     59.941192
     -4.319319     32.241051     32.241051     64.482102
     -4.309309     34.155653     34.155653     68.311306
     -4.299299     35.925552     35.925552     71.851103
     -4.289289     37.857043     37.857043     75.714087
     -4.279279     40.169277     40.169277     80.338554
     -4.269269     42.827641     42.827641     85.655282
     -4.259259     45.464896     45.464896     90.929792
     -4.249249     47.440544     47.440544     94.881088
     -4.239239     48.041202     48.041202     96.082404
     -4.229229     46.759547     46.759547     93.519094
     -4.219219     43.536177     43.536177     87.072354
     -4.209209     38.845591     38.845591     77.691183
     -4.199199     33.570720     33.570720     67.141440
     -4.189189     28.712673     28.712673     57.425346
     -4.179179     25.065064     25.065064     50.130129
     -4.169169     22.995977     22.995977     45.991954
     -4.159159     22.420061     22.420061     44.840121
     -4.149149     22.947786     22.947786     45.895572
     -4.139139     24.121404     24.121404     48.242808
     -4.129129     25.620724     25.620724     51.241447
     -4.119119     27.348176     27.348176     54.696352
     -4.109109     29.363410     29.363410     58.726820
     -4.099099     31.708851     31.708851     63.417702
     -4.089089     34.224313     34.224313     68.448625
     -4.079079     36.464520     36.464520     72.929040
     -4.069069     37.790503     37.790503     75.581006
     -4.059059     37.614287     37.614287     75.228573
     -4.049049     35.682824     35.682824     71.365648
     -4.039039     32.251842     32.251842     64.503684
     -4.029029     28.052578     28.052578     56.105156
     -4.019019     24.065082     24.065082     48.130164
     -4.009009     21.210847     21.210847     42.421695
     -3.998999     20.105358     20.105358     40.210717
     -3.988989     20.959447     20.959447     41.918894
     -3.978979     23.629982     23.629982     47.259963
     -3.968969     27.753236     27.753236     55.506472
     -3.958959     32.881460     32.881460     65.762921
     -3.948949     38.577161     38.577161     77.154322
     -3.938939     44.464382     44.464382     88.928764
     -3.928929     50.257102     50.257102    100.514203
     -3.918919     55.772956     55.772956    111.545911
     -3.908909     60.917490     60.917490    121.834980
     -3.898899     65.620729     65.620729    131.241459
     -3.888889     69.735470     69.735470    139.470941
     -3.878879     72.945981     72.945981    145.891962
     -3.868869     74.752501     74.752501    149.505001
     -3.858859     74.570975     74.570975    149.141950
     -3.848849     71.929452     71.929452    143.858905
     -3.838839     66.686189     66.686189    133.372378
     -3.828829     59.173180     59.173180    118.346360
     -3.818819     50.194944     50.194944    100.389887
     -3.808809     40.871695     40.871695     81.743390
     -3.798799     32.378277     32.378277     64.756554
     -3.788789     25.666724     25.666724     51.333448
     -3.778779     21.258936     21.258936     42.517871
     -3.768769     19.164043     19.164043     38.328085
     -3.758759     18.931418     18.931418     37.862837
     -3.748749     19.812915     19.812915     39.625829
     -3.738739     20.985441     20.985441     41.970881
     -3.728729     21.777387     21.777387     43.554775
     -3.718719     21.845624     21.845624     43.691247
     -3.708709     21.260641     21.260641     42.521282
     -3.698699     20.475116     20.475116     40.950232
     -3.688689     20.176048     20.176048     40.352096
     -3.678679     21.051902     21.051902     42.103804
     -3.668669     23.538199     23.538199     47.076397
     -3.658659     27.625420     27.625420     55.250840
     -3.648649     32.806053     32.806053     65.612105
     -3.638639     38.194052     38.194052     76.388105
     -3.628629     42.780846     42.780846     85.561692
     -3.618619     45.730020     45.730020     91.460041
     -3.608609     46.595638     46.595638     93.191276
     -3.598599     45.390620     45.390620     90.781240
     -3.588589     42.506606     42.506606     85.013213
     -3.578579     38.547498     38.547498     77.094996
     -3.568569     34.152502     34.152502     68.305004
     -3.558559     29.857345     29.857345     59.714691
     -3.548549     26.008283     26.008283     52.016566
     -3.538539     22.729223     22.729223     45.458446
     -3.528529     19.944654     19.944654     39.889309
     -3.518519     17.458289     17.458289     34.916578
     -3.508509     15.067911     15.067911     30.135822
     -3.498498     12.673912     12.673912     25.347824
     -3.488488     10.335596     10.335596     20.671192
     -3.478478      8.253618      8.253618     16.507236
     -3.468468      6.692727      6.692727     13.385453
     -3.458458      5.882043      5.882043     11.764085
     -3.448448      5.930062      5.930062     11.860123
     -3.438438      6.777770      6.777770     13.555541
     -3.428428      8.200916      8.200916     16.401832
     -3.418418      9.865815      9.865815     19.731630
     -3.408408     11.433864     11.433864     22.867728
     -3.398398     12.690874     12.690874     25.381748
     -3.388388     13.655284     13.655284     27.310567
     -3.378378     14.612565     14.612565     29.225130
     -3.368368     16.044917     16.044917     32.089833
     -3.358358     18.469082     18.469082     36.938165
     -3.348348     22.236839     22.236839     44.473677
     -3.338338     27.368638     27.368638     54.737277
     -3.328328     33.475614     33.475614     66.951229
     -3.318318     39.792845     39.792845     79.585690
     -3.308308     45.316835     45.316835     90.633670
     -3.298298     49.020120     49.020120     98.040241
     -3.288288     50.099495     50.099495    100.198989
     -3.278278     48.195915     48.195915     96.391830
     -3.268268     43.513535     43.513535     87.027070
     -3.258258     36.783119     36.783119     73.566239
     -3.248248     29.069521     29.069521     58.139042
     -3.238238     21.491325     21.491325     42.982649
     -3.228228     14.960700     14.960700     29.921400
     -3.218218     10.034329     10.034329     20.068657
     -3.208208      6.902764      6.902764     13.805527
     -3.198198      5.478199      5.478199     10.956398
     -3.188188      5.510329      5.510329     11.020658
     -3.178178      6.677262      6.677262     13.354524
     -3.168168      8.640751      8.640751     17.281501
     -3.158158     11.086934     11.086934     22.173868
     -3.148148     13.773297     13.773297     27.546594
     -3.138138     16.574671     16.574671     33.149342
     -3.128128     19.493679     19.493679     38.987357
     -3.118118     22.603419     22.603419     45.206839
     -3.108108     25.929368     25.929368     51.858737
     -3.098098     29.328286     29.328286     58.656571
     -3.088088     32.443392     32.443392     64.886784
     -3.078078     34.782332     34.782332     69.564665
     -3.068068     35.892212     35.892212     71.784424
     -3.058058     35.541621     35.541621     71.083243
     -3.048048     33.809519     33.809519     67.619039
     -3.038038     31.035160     31.035160     62.070320
     -3.028028     27.666600     27.666600     55.333201
     -3.018018     24.101664     24.101664     48.203329
     -3.008008     20.608706     20.608706     41.217413
     -2.997998     17.354365     17.354365     34.708730
     -2.987988     14.496729     14.496729     28.993458
     -2.977978     12.269777     12.269777     24.539553
     -2.967968     11.001657     11.001657     22.003315
     -2.957958     11.053618     11.053618     22.107237
     -2.947948     12.705964     12.705964     25.411929
     -2.937938     16.035145     16.035145     32.070290
     -2.927928     20.825383     20.825383     41.650766
     -2.917918     26.549368     26.549368     53.098736
     -2.907908     32.438356     32.438356     64.876711
     -2.897898     37.638456     37.638456     75.276911
     -2.887888     41.416920     41.416920     82.833840
     -2.877878     43.352185     43.352185     86.704370
     -2.867868     43.433730     43.433730     86.867459
     -2.857858     42.025182     42.025182     84.050364
     -2.847848     39.700183     39.700183     79.400366
     -2.837838     37.019460     37.019460     74.038920
     -2.827828     34.347226     34.347226     68.694451
     -2.817818     31.785956     31.785956     63.571912
     -2.807808     29.247909     29.247909     58.495818
     -2.797798     26.611321     26.611321     53.222641
     -2.787788     23.868159     23.868159     47.736318
     -2.777778     21.181660     21.181660     42.363320
     -2.767768     18.828472     18.828472     37.656944
     -2.757758     17.068753     17.068753     34.137507
     -2.747748     16.027963     16.027963     32.055927
     -2.737738     15.662672     15.662672     31.325344
     -2.727728     15.826520     15.826520     31.653039
     -2.717718     16.386161     16.386161     32.772322
     -2.707708     17.303525     17.303525     34.607050
     -2.697698     18.624072     18.624072     37.248145
     -2.687688     20.378061     20.378061     40.756122
     -2.677678     22.468284     22.468284     44.936567
     -2.667668     24.634882     24.634882     49.269764
     -2.657658     26.539126     26.539126     53.078253
     -2.647648     27.924235     27.924235     55.848469
     -2.637638     28.751938     28.751938     57.503875
     -2.627628     29.223550     29.223550     58.447101
     -2.617618     29.668665     29.668665     59.337331
     -2.607608     30.369723     30.369723     60.739446
     -2.597598     31.425269     31.425269     62.850538
     -2.587588     32.717537     32.717537     65.435073
     -2.577578     33.975675     33.975675     67.951350
     -2.567568     34.874037     34.874037     69.748075
     -2.557558     35.109942     35.109942     70.219883
     -2.547548     34.450339     34.450339     68.900678
     -2.537538     32.773596     32.773596     65.547192
     -2.527528     30.127150     30.127150     60.254301
     -2.517518     26.783559     26.783559     53.567117
     -2.507508     23.246792     23.246792     46.493585
     -2.497497     20.169811     20.169811     40.339621
     -2.487487     18.190148     18.190148     36.380295
     -2.477477     17.740238     17.740238     35.480477
     -2.467467     18.910766     18.910766     37.821531
     -2.457457     21.427377     21.427377     42.854754
     -2.447447     24.754820     24.754820     49.509640
     -2.437437     28.289288     28.289288     56.578576
     -2.427427     31.560919     31.560919     63.121838
     -2.417417     34.360430     34.360430     68.720860
     -2.407407     36.733563     36.733563     73.467126
     -2.397397     38.845814     38.845814     77.691627
     -2.387387     40.783656     40.783656     81.567313
     -2.377377     42.396073     42.396073     84.792145
     -2.367367     43.268750     43.268750     86.537500
     -2.357357     42.861796     42.861796     85.723593
     -2.347347     40.756742     40.756742     81.513484
     -2.337337     36.895204     36.895204     73.790408
     -2.327327     31.689284     31.689284     63.378568
     -2.317317     25.947740     25.947740     51.895481
     -2.307307     20.654800     20.654800     41.309600
     -2.297297     16.703851     16.703851     33.407702
     -2.287287     14.691652     14.691652     29.383304
     -2.277277     14.829630     14.829630     29.659261
     -2.267267     16.967219     16.967219     33.934438
     -2.257257     20.684073     20.684073     41.368147
     -2.247247     25.403169     25.403169     50.806337
     -2.237237     30.492154     30.492154     60.984309
     -2.227227     35.338895     35.338895     70.677791
     -2.217217     39.400711     39.400711     78.801421
     -2.207207     42.235751     42.235751     84.471503
     -2.197197     43.530186     43.530186     87.060371
     -2.187187     43.133163     43.133163     86.266326
     -2.177177     41.098775     41.098775     82.197551
     -2.167167     37.713476     37.713476     75.426952
     -2.157157     33.473396     33.473396     66.946792
     -2.147147     28.986639     28.986639     57.973279
     -2.137137     24.814562     24.814562     49.629125
     -2.127127     21.311694     21.311694     42.623388
     -2.117117     18.541183     18.541183     37.082365
     -2.107107     16.311481     16.311481     32.622963
     -2.097097     14.315882     14.315882     28.631764
     -2.087087     12.301594     12.301594     24.603187
     -2.077077     10.185817     10.185817     20.371634
     -2.067067      8.075353      8.075353     16.150705
     -2.057057      6.202902      6.202902     12.405804
     -2.047047      4.829058      4.829058      9.658116
     -2.037037      4.157091      4.157091      8.314183
     -2.027027      4.280683      4.280683      8.561367
     -2.017017      5.159856      5.159856     10.319712
     -2.007007      6.615611      6.615611     13.231223
     -1.996997      8.345976      8.345976     16.691953
     -1.986987      9.976552      9.976552     19.953103
     -1.976977     11.151042     11.151042     22.302084
     -1.966967     11.642407     11.642407     23.284814
     -1.956957     11.441429     11.441429     22.882858
     -1.946947     10.777498     10.777498     21.554995
     -1.936937     10.052371     10.052371     20.104743
     -1.926927      9.707479      9.707479     19.414958
     -1.916917     10.075585     10.075585     20.151171
     -1.906907     11.272543     11.272543     22.545086
     -1.896897     13.164979     13.164979     26.329957
     -1.886887     15.418080     15.418080     30.836159
     -1.876877     17.599714     17.599714     35.199427
     -1.866867     19.303076     19.303076     38.606151
     -1.856857     20.251653     20.251653     40.503305
     -1.846847     20.361622     20.361622     40.723244
     -1.836837     19.749424     19.749424     39.498849
     -1.826827     18.682511     18.682511     37.365021
     -1.816817     17.482747     17.482747     34.965494
     -1.806807     16.408894     16.408894     32.817789
     -1.796797     15.561368     15.561368     31.122737
     -1.786787     14.853717     14.853717     29.707433
     -1.776777     14.069690     14.069690     28.139381
     -1.766767     12.981135     12.981135     25.962269
     -1.756757     11.467406     11.467406     22.934812
     -1.746747      9.576887      9.576887     19.153774
     -1.736737      7.506782      7.506782     15.013564
     -1.726727      5.524130      5.524130     11.048260
     -1.716717      3.877843      3.877843      7.755687
     -1.706707      2.744461      2.744461      5.488922
     -1.696697      2.219716      2.219716      4.439433
     -1.686687      2.337320      2.337320      4.674639
     -1.676677      3.084368      3.084368      6.168735
     -1.666667      4.393565      4.393565      8.787130
     -1.656657      6.116690      6.116690     12.233380
     -1.646647      8.005629      8.005629     16.011259
     -1.636637      9.732468      9.732468     19.464937
     -1.626627     10.962991     10.962991     21.925981
