# EIG2DOS: Utility for SIESTA to obtain the electronic density of states
#  E. Artacho, Apr 1999, A. Garcia, Apr 2012
#  Nick R. Papior, Feb 2017
# ------------------------------------------
# Eigenvalues calculated from a non-polarized calculation
# Eigenvalues read from siesta.EIG
# Kpoint weights read from siesta.KP
# Using smearing parameter:   0.0500
# Using 1000 points in the energy range
# Selected bands: 1 to: 2981
# Emin, Emax in file for selected band(s):    -27.3974593    218.4173610
# Nbands, Nspin, Nk   =   2981     1     1
# E_F                 =    -4.1820 eV --> (shifted to ZERO)
# Broadening          =     0.0500 eV
#
#        E            N(up)  (=)   N(down)         Ntot
     -5.000000     31.373323     31.373323     62.746647
     -4.989990     36.831560     36.831560     73.663120
     -4.979980     42.043065     42.043065     84.086131
     -4.969970     46.071500     46.071500     92.142999
     -4.959960     48.129745     48.129745     96.259490
     -4.949950     47.845895     47.845895     95.691791
     -4.939940     45.392772     45.392772     90.785545
     -4.929930     41.444442     41.444442     82.888884
     -4.919920     37.002621     37.002621     74.005241
     -4.909910     33.173174     33.173174     66.346349
     -4.899900     30.955192     30.955192     61.910384
     -4.889890     31.063324     31.063324     62.126649
     -4.879880     33.782544     33.782544     67.565089
     -4.869870     38.869911     38.869911     77.739822
     -4.859860     45.546018     45.546018     91.092036
     -4.849850     52.619714     52.619714    105.239428
     -4.839840     58.746804     58.746804    117.493608
     -4.829830     62.758896     62.758896    125.517791
     -4.819820     63.954465     63.954465    127.908930
     -4.809810     62.250018     62.250018    124.500036
     -4.799800     58.142927     58.142927    116.285854
     -4.789790     52.511140     52.511140    105.022280
     -4.779780     46.333658     46.333658     92.667316
     -4.769770     40.435201     40.435201     80.870401
     -4.759760     35.334240     35.334240     70.668480
     -4.749750     31.220626     31.220626     62.441252
     -4.739740     28.033852     28.033852     56.067704
     -4.729730     25.580709     25.580709     51.161417
     -4.719720     23.633316     23.633316     47.266632
     -4.709710     21.979124     21.979124     43.958248
     -4.699700     20.433415     20.433415     40.866830
     -4.689690     18.848669     18.848669     37.697338
     -4.679680     17.150075     17.150075     34.300150
     -4.669670     15.397461     15.397461     30.794922
     -4.659660     13.841920     13.841920     27.683841
     -4.649650     12.932489     12.932489     25.864977
     -4.639640     13.241820     13.241820     26.483640
     -4.629630     15.310947     15.310947     30.621894
     -4.619620     19.447747     19.447747     38.895493
     -4.609610     25.542171     25.542171     51.084343
     -4.599600     32.975930     32.975930     65.951860
     -4.589590     40.692745     40.692745     81.385490
     -4.579580     47.446197     47.446197     94.892395
     -4.569570     52.163526     52.163526    104.327052
     -4.559560     54.292539     54.292539    108.585077
     -4.549550     53.982573     53.982573    107.965145
     -4.539540     52.011023     52.011023    104.022046
     -4.529530     49.478461     49.478461     98.956921
     -4.519520     47.398702     47.398702     94.797405
     -4.509510     46.351889     46.351889     92.703778
     -4.499499     46.332203     46.332203     92.664406
     -4.489489     46.831311     46.831311     93.662623
     -4.479479     47.099429     47.099429     94.198858
     -4.469469     46.461112     46.461112     92.922224
     -4.459459     44.556092     44.556092     89.112185
     -4.449449     41.424091     41.424091     82.848183
     -4.439439     37.430484     37.430484     74.860969
     -4.429429     33.098981     33.098981     66.197962
     -4.419419     28.945256     28.945256     57.890512
     -4.409409     25.380859     25.380859     50.761718
     -4.399399     22.698275     22.698275     45.396550
     -4.389389     21.094808     21.094808     42.189616
     -4.379379     20.680021     20.680021     41.360041
     -4.369369     21.444431     21.444431     42.888862
     -4.359359     23.217098     23.217098     46.434197
     -4.349349     25.665333     25.665333     51.330666
     -4.339339     28.369845     28.369845     56.739691
     -4.329329     30.958118     30.958118     61.916235
     -4.319319     33.234838     33.234838     66.469677
     -4.309309     35.240654     35.240654     70.481308
     -4.299299     37.202017     37.202017     74.404034
     -4.289289     39.385046     39.385046     78.770092
     -4.279279     41.910276     41.910276     83.820552
     -4.269269     44.607327     44.607327     89.214653
     -4.259259     46.982629     46.982629     93.965259
     -4.249249     48.337259     48.337259     96.674518
     -4.239239     48.010694     48.010694     96.021389
     -4.229229     45.660812     45.660812     91.321623
     -4.219219     41.455977     41.455977     82.911953
     -4.209209     36.080803     36.080803     72.161606
     -4.199199     30.539315     30.539315     61.078630
     -4.189189     25.835936     25.835936     51.671873
     -4.179179     22.671287     22.671287     45.342574
     -4.169169     21.276163     21.276163     42.552326
     -4.159159     21.436091     21.436091     42.872182
     -4.149149     22.672104     22.672104     45.344208
     -4.139139     24.482198     24.482198     48.964396
     -4.129129     26.532759     26.532759     53.065518
     -4.119119     28.719159     28.719159     57.438318
     -4.109109     31.076438     31.076438     62.152876
     -4.099099     33.593723     33.593723     67.187447
     -4.089089     36.040997     36.040997     72.081995
     -4.079079     37.922240     37.922240     75.844481
     -4.069069     38.609489     38.609489     77.218978
     -4.059059     37.610288     37.610288     75.220576
     -4.049049     34.834880     34.834880     69.669760
     -4.039039     30.717841     30.717841     61.435682
     -4.029029     26.124490     26.124490     52.248980
     -4.019019     22.087789     22.087789     44.175579
     -4.009009     19.503010     19.503010     39.006020
     -3.998999     18.909971     18.909971     37.819943
     -3.988989     20.427561     20.427561     40.855121
     -3.978979     23.823255     23.823255     47.646510
     -3.968969     28.650666     28.650666     57.301332
     -3.958959     34.387797     34.387797     68.775594
     -3.948949     40.540705     40.540705     81.081410
     -3.938939     46.709568     46.709568     93.419136
     -3.928929     52.624129     52.624129    105.248258
     -3.918919     58.144783     58.144783    116.289566
     -3.908909     63.215891     63.215891    126.431782
     -3.898899     67.770206     67.770206    135.540412
     -3.888889     71.616483     71.616483    143.232967
     -3.878879     74.371183     74.371183    148.742367
     -3.868869     75.491047     75.491047    150.982095
     -3.858859     74.419629     74.419629    148.839259
     -3.848849     70.800592     70.800592    141.601185
     -3.838839     64.669698     64.669698    129.339395
     -3.828829     56.539843     56.539843    113.079686
     -3.818819     47.336741     47.336741     94.673481
     -3.808809     38.202779     38.202779     76.405558
     -3.798799     30.234347     30.234347     60.468694
     -3.788789     24.235504     24.235504     48.471007
     -3.778779     20.557433     20.557433     41.114867
     -3.768769     19.060411     19.060411     38.120822
     -3.758759     19.198157     19.198157     38.396314
     -3.748749     20.194617     20.194617     40.389233
     -3.738739     21.265191     21.265191     42.530382
     -3.728729     21.828336     21.828336     43.656672
     -3.718719     21.657475     21.657475     43.314951
     -3.708709     20.935349     20.935349     41.870697
     -3.698699     20.192181     20.192181     40.384362
     -3.688689     20.135048     20.135048     40.270095
     -3.678679     21.406810     21.406810     42.813621
     -3.668669     24.342621     24.342621     48.685243
     -3.658659     28.807151     28.807151     57.614302
     -3.648649     34.181234     34.181234     68.362469
     -3.638639     39.517045     39.517045     79.034089
     -3.628629     43.811575     43.811575     87.623151
     -3.618619     46.294053     46.294053     92.588105
     -3.608609     46.617880     46.617880     93.235760
     -3.598599     44.897915     44.897915     89.795829
     -3.588589     41.608451     41.608451     83.216902
     -3.578579     37.409863     37.409863     74.819725
     -3.568569     32.976739     32.976739     65.953479
     -3.558559     28.869809     28.869809     57.739619
     -3.548549     25.461315     25.461315     50.922630
     -3.538539     22.910078     22.910078     45.820157
     -3.528529     21.182503     21.182503     42.365005
     -3.518519     20.111609     20.111609     40.223217
     -3.508509     19.473457     19.473457     38.946913
     -3.498498     19.052746     19.052746     38.105493
     -3.488488     18.680021     18.680021     37.360043
     -3.478478     18.244852     18.244852     36.489703
     -3.468468     17.701165     17.701165     35.402331
     -3.458458     17.070825     17.070825     34.141651
     -3.448448     16.432954     16.432954     32.865909
     -3.438438     15.884587     15.884587     31.769174
     -3.428428     15.481603     15.481603     30.963207
     -3.418418     15.197208     15.197208     30.394416
     -3.408408     14.937532     14.937532     29.875064
     -3.398398     14.620137     14.620137     29.240275
     -3.388388     14.274457     14.274457     28.548914
     -3.378378     14.100800     14.100800     28.201600
     -3.368368     14.445287     14.445287     28.890573
     -3.358358     15.696340     15.696340     31.392680
     -3.348348     18.148574     18.148574     36.297148
     -3.338338     21.887059     21.887059     43.774118
     -3.328328     26.723419     26.723419     53.446839
     -3.318318     32.190443     32.190443     64.380886
     -3.308308     37.593391     37.593391     75.186783
     -3.298298     42.119148     42.119148     84.238296
     -3.288288     44.997716     44.997716     89.995433
     -3.278278     45.684315     45.684315     91.368630
     -3.268268     44.001986     44.001986     88.003973
     -3.258258     40.184712     40.184712     80.369424
     -3.248248     34.800516     34.800516     69.601033
     -3.238238     28.589481     28.589481     57.178961
     -3.228228     22.284948     22.284948     44.569896
     -3.218218     16.479017     16.479017     32.958034
     -3.208208     11.559364     11.559364     23.118727
     -3.198198      7.711538      7.711538     15.423076
     -3.188188      4.965633      4.965633      9.931265
     -3.178178      3.265625      3.265625      6.531250
     -3.168168      2.542459      2.542459      5.084918
     -3.158158      2.771766      2.771766      5.543531
     -3.148148      3.996450      3.996450      7.992899
     -3.138138      6.299281      6.299281     12.598563
     -3.128128      9.725434      9.725434     19.450867
     -3.118118     14.178015     14.178015     28.356029
     -3.108108     19.332244     19.332244     38.664489
     -3.098098     24.621252     24.621252     49.242504
     -3.088088     29.325997     29.325997     58.651994
     -3.078078     32.754749     32.754749     65.509499
     -3.068068     34.445319     34.445319     68.890637
     -3.058058     34.298670     34.298670     68.597340
     -3.048048     32.578233     32.578233     65.156466
     -3.038038     29.776799     29.776799     59.553599
     -3.028028     26.423402     26.423402     52.846803
     -3.018018     22.930756     22.930756     45.861513
     -3.008008     19.551505     19.551505     39.103009
     -2.997998     16.441613     16.441613     32.883225
     -2.987988     13.769031     13.769031     27.538063
     -2.977978     11.790642     11.790642     23.581283
     -2.967968     10.850931     10.850931     21.701863
     -2.957958     11.303288     11.303288     22.606575
     -2.947948     13.389091     13.389091     26.778182
     -2.937938     17.120438     17.120438     34.240875
     -2.927928     22.207188     22.207188     44.414375
     -2.917918     28.058334     28.058334     56.116668
     -2.907908     33.872393     33.872393     67.744786
     -2.897898     38.807034     38.807034     77.614067
     -2.887888     42.185885     42.185885     84.371770
     -2.877878     43.673876     43.673876     87.347752
     -2.867868     43.350578     43.350578     86.701156
     -2.857858     41.644196     41.644196     83.288391
     -2.847848     39.147714     39.147714     78.295429
     -2.837838     36.395173     36.395173     72.790346
     -2.827828     33.697606     33.697606     67.395212
     -2.817818     31.108727     31.108727     62.217454
     -2.807808     28.522773     28.522773     57.045545
     -2.797798     25.838173     25.838173     51.676347
     -2.787788     23.090139     23.090139     46.180279
     -2.777778     20.480083     20.480083     40.960166
     -2.767768     18.294377     18.294377     36.588753
     -2.757758     16.770468     16.770468     33.540936
     -2.747748     15.996070     15.996070     31.992139
     -2.737738     15.901007     15.901007     31.802013
     -2.727728     16.338028     16.338028     32.676056
     -2.717718     17.189054     17.189054     34.378108
     -2.707708     18.417280     18.417280     36.834560
     -2.697698     20.026455     20.026455     40.052909
     -2.687688     21.960325     21.960325     43.920650
     -2.677678     24.026434     24.026434     48.052868
     -2.667668     25.918614     25.918614     51.837228
     -2.657658     27.343782     27.343782     54.687565
     -2.647648     28.178863     28.178863     56.357727
     -2.637638     28.552785     28.552785     57.105569
     -2.627628     28.792351     28.792351     57.584702
     -2.617618     29.258956     29.258956     58.517912
     -2.607608     30.171335     30.171335     60.342671
     -2.597598     31.510054     31.510054     63.020109
     -2.587588     33.037709     33.037709     66.075418
     -2.577578     34.396547     34.396547     68.793094
     -2.567568     35.215811     35.215811     70.431622
     -2.557558     35.186744     35.186744     70.373488
     -2.547548     34.109898     34.109898     68.219796
     -2.537538     31.941326     31.941326     63.882651
     -2.527528     28.845101     28.845101     57.690201
     -2.517518     25.223385     25.223385     50.446770
     -2.507508     21.680504     21.680504     43.361008
     -2.497497     18.901530     18.901530     37.803060
     -2.487487     17.472630     17.472630     34.945260
     -2.477477     17.707625     17.707625     35.415250
     -2.467467     19.550806     19.550806     39.101612
     -2.457457     22.599086     22.599086     45.198171
     -2.447447     26.240824     26.240824     52.481647
     -2.437437     29.861867     29.861867     59.723734
     -2.427427     33.038506     33.038506     66.077011
     -2.417417     35.636279     35.636279     71.272559
     -2.407407     37.768835     37.768835     75.537670
     -2.397397     39.633027     39.633027     79.266054
     -2.387387     41.299575     41.299575     82.599150
     -2.377377     42.570198     42.570198     85.140395
     -2.367367     42.989049     42.989049     85.978097
     -2.357357     42.021406     42.021406     84.042812
     -2.347347     39.321157     39.321157     78.642314
     -2.337337     34.953561     34.953561     69.907121
     -2.327327     29.458490     29.458490     58.916980
     -2.317317     23.723447     23.723447     47.446894
     -2.307307     18.732391     18.732391     37.464782
     -2.297297     15.306448     15.306448     30.612897
     -2.287287     13.933280     13.933280     27.866561
     -2.277277     14.719116     14.719116     29.438231
     -2.267267     17.438236     17.438236     34.876471
     -2.257257     21.629549     21.629549     43.259098
     -2.247247     26.697892     26.697892     53.395783
     -2.237237     31.999116     31.999116     63.998231
     -2.227227     36.905659     36.905659     73.811318
     -2.217217     40.858135     40.858135     81.716271
     -2.207207     43.411623     43.411623     86.823246
     -2.197197     44.284932     44.284932     88.569863
     -2.187187     43.414850     43.414850     86.829699
     -2.177177     41.002609     41.002609     82.005219
     -2.167167     37.521815     37.521815     75.043631
     -2.157157     33.651276     33.651276     67.302553
     -2.147147     30.118036     30.118036     60.236071
     -2.137137     27.483763     27.483763     54.967525
     -2.127127     25.955369     25.955369     51.910738
     -2.117117     25.311974     25.311974     50.623948
     -2.107107     24.997135     24.997135     49.994269
     -2.097097     24.346006     24.346006     48.692013
     -2.087087     22.847812     22.847812     45.695624
     -2.077077     20.327168     20.327168     40.654336
     -2.067067     16.973309     16.973309     33.946619
     -2.057057     13.225018     13.225018     26.450037
     -2.047047      9.584127      9.584127     19.168255
     -2.037037      6.448372      6.448372     12.896744
     -2.027027      4.024362      4.024362      8.048725
     -2.017017      2.330298      2.330298      4.660597
     -2.007007      1.257888      1.257888      2.515775
     -1.996997      0.650532      0.650532      1.301064
     -1.986987      0.366392      0.366392      0.732783
     -1.976977      0.315007      0.315007      0.630013
     -1.966967      0.470862      0.470862      0.941723
     -1.956957      0.871247      0.871247      1.742495
     -1.946947      1.602053      1.602053      3.204106
     -1.936937      2.770453      2.770453      5.540906
     -1.926927      4.463765      4.463765      8.927530
     -1.916917      6.700643      6.700643     13.401286
     -1.906907      9.390113      9.390113     18.780226
     -1.896897     12.318093     12.318093     24.636186
     -1.886887     15.174310     15.174310     30.348620
     -1.876877     17.616705     17.616705     35.233410
     -1.866867     19.354443     19.354443     38.708886
     -1.856857     20.223297     20.223297     40.446595
     -1.846847     20.230045     20.230045     40.460091
     -1.836837     19.550733     19.550733     39.101465
     -1.826827     18.477736     18.477736     36.955472
     -1.816817     17.324508     17.324508     34.649016
     -1.806807     16.316100     16.316100     32.632200
     -1.796797     15.509589     15.509589     31.019178
     -1.786787     14.785424     14.785424     29.570848
     -1.776777     13.920461     13.920461     27.840922
     -1.766767     12.709586     12.709586     25.419171
     -1.756757     11.074274     11.074274     22.148549
     -1.746747      9.104830      9.104830     18.209661
     -1.736737      7.023420      7.023420     14.046840
     -1.726727      5.099293      5.099293     10.198585
     -1.716717      3.566778      3.566778      7.133556
     -1.706707      2.582475      2.582475      5.164950
     -1.696697      2.225422      2.225422      4.450844
     -1.686687      2.516805      2.516805      5.033611
     -1.676677      3.429707      3.429707      6.859414
     -1.666667      4.874927      4.874927      9.749854
     -1.656657      6.674121      6.674121     13.348242
     -1.646647      8.549992      8.549992     17.099984
     -1.636637     10.162170     10.162170     20.324341
     -1.626627     11.194747     11.194747     22.389493
