# EIG2DOS: Utility for SIESTA to obtain the electronic density of states
#  E. Artacho, Apr 1999, A. Garcia, Apr 2012
#  Nick R. Papior, Feb 2017
# ------------------------------------------
# Eigenvalues calculated from a non-polarized calculation
# Eigenvalues read from siesta.EIG
# Kpoint weights read from siesta.KP
# Using smearing parameter:   0.0500
# Using 1000 points in the energy range
# Selected bands: 1 to: 2981
# Emin, Emax in file for selected band(s):    -27.0574741    218.3383720
# Nbands, Nspin, Nk   =   2981     1     1
# E_F                 =    -4.2677 eV --> (shifted to ZERO)
# Broadening          =     0.0500 eV
#
#        E            N(up)  (=)   N(down)         Ntot
     -5.000000     35.871795     35.871795     71.743591
     -4.989990     38.753973     38.753973     77.507946
     -4.979980     41.411547     41.411547     82.823094
     -4.969970     43.292618     43.292618     86.585235
     -4.959960     43.958755     43.958755     87.917510
     -4.949950     43.214792     43.214792     86.429583
     -4.939940     41.165729     41.165729     82.331457
     -4.929930     38.198724     38.198724     76.397449
     -4.919920     34.915708     34.915708     69.831415
     -4.909910     32.045394     32.045394     64.090789
     -4.899900     30.343195     30.343195     60.686390
     -4.889890     30.464044     30.464044     60.928089
     -4.879880     32.794944     32.794944     65.589888
     -4.869870     37.272917     37.272917     74.545835
     -4.859860     43.267526     43.267526     86.535053
     -4.849850     49.626953     49.626953     99.253907
     -4.839840     54.936432     54.936432    109.872864
     -4.829830     57.929999     57.929999    115.859998
     -4.819820     57.895127     57.895127    115.790254
     -4.809810     54.888425     54.888425    109.776851
     -4.799800     49.665171     49.665171     99.330342
     -4.789790     43.368365     43.368365     86.736730
     -4.779780     37.134808     37.134808     74.269616
     -4.769770     31.790425     31.790425     63.580851
     -4.759760     27.728998     27.728998     55.457996
     -4.749750     24.961167     24.961167     49.922333
     -4.739740     23.252432     23.252432     46.504865
     -4.729730     22.264805     22.264805     44.529609
     -4.719720     21.654413     21.654413     43.308826
     -4.709710     21.119543     21.119543     42.239086
     -4.699700     20.418584     20.418584     40.837169
     -4.689690     19.383441     19.383441     38.766882
     -4.679680     17.946325     17.946325     35.892650
     -4.669670     16.181141     16.181141     32.362281
     -4.659660     14.341612     14.341612     28.683224
     -4.649650     12.867329     12.867329     25.734658
     -4.639640     12.333104     12.333104     24.666207
     -4.629630     13.334168     13.334168     26.668337
     -4.619620     16.321719     16.321719     32.643437
     -4.609610     21.424812     21.424812     42.849624
     -4.599600     28.313913     28.313913     56.627826
     -4.589590     36.171448     36.171448     72.342896
     -4.579580     43.820153     43.820153     87.640307
     -4.569570     50.009342     50.009342    100.018683
     -4.559560     53.784573     53.784573    107.569145
     -4.549550     54.806295     54.806295    109.612591
     -4.539540     53.480376     53.480376    106.960752
     -4.529530     50.831327     50.831327    101.662653
     -4.519520     48.157241     48.157241     96.314483
     -4.509510     46.597858     46.597858     93.195717
     -4.499499     46.777439     46.777439     93.554879
     -4.489489     48.642649     48.642649     97.285299
     -4.479479     51.530255     51.530255    103.060509
     -4.469469     54.414419     54.414419    108.828837
     -4.459459     56.232790     56.232790    112.465581
     -4.449449     56.184557     56.184557    112.369114
     -4.439439     53.921988     53.921988    107.843975
     -4.429429     49.601903     49.601903     99.203807
     -4.419419     43.808605     43.808605     87.617210
     -4.409409     37.391905     37.391905     74.783811
     -4.399399     31.274417     31.274417     62.548834
     -4.389389     26.271967     26.271967     52.543934
     -4.379379     22.952358     22.952358     45.904716
     -4.369369     21.546091     21.546091     43.092182
     -4.359359     21.922407     21.922407     43.844813
     -4.349349     23.643981     23.643981     47.287963
     -4.339339     26.099361     26.099361     52.198722
     -4.329329     28.683130     28.683130     57.366260
     -4.319319     30.967127     30.967127     61.934255
     -4.309309     32.802497     32.802497     65.604995
     -4.299299     34.317660     34.317660     68.635320
     -4.289289     35.817004     35.817004     71.634009
     -4.279279     37.617971     37.617971     75.235942
     -4.269269     39.879755     39.879755     79.759510
     -4.259259     42.478917     42.478917     84.957834
     -4.249249     44.981342     44.981342     89.962684
     -4.239239     46.741035     46.741035     93.482071
     -4.229229     47.114354     47.114354     94.228709
     -4.219219     45.719295     45.719295     91.438591
     -4.209209     42.625849     42.625849     85.251697
     -4.199199     38.375147     38.375147     76.750293
     -4.189189     33.802183     33.802183     67.604366
     -4.179179     29.739924     29.739924     59.479848
     -4.169169     26.746387     26.746387     53.492774
     -4.159159     24.979002     24.979002     49.958004
     -4.149149     24.256051     24.256051     48.512103
     -4.139139     24.248603     24.248603     48.497206
     -4.129129     24.691538     24.691538     49.383077
     -4.119119     25.507903     25.507903     51.015806
     -4.109109     26.791875     26.791875     53.583749
     -4.099099     28.664980     28.664980     57.329959
     -4.089089     31.082989     31.082989     62.165978
     -4.079079     33.704029     33.704029     67.408059
     -4.069069     35.910663     35.910663     71.821326
     -4.059059     37.005453     37.005453     74.010906
     -4.049049     36.500892     36.500892     73.001784
     -4.039039     34.358818     34.358818     68.717636
     -4.029029     31.050264     31.050264     62.100529
     -4.019019     27.401851     27.401851     54.803701
     -4.009009     24.310784     24.310784     48.621568
     -3.998999     22.472920     22.472920     44.945840
     -3.988989     22.241192     22.241192     44.482383
     -3.978979     23.641536     23.641536     47.283073
     -3.968969     26.485685     26.485685     52.971370
     -3.958959     30.489705     30.489705     60.979411
     -3.948949     35.341684     35.341684     70.683367
     -3.938939     40.722538     40.722538     81.445076
     -3.928929     46.319685     46.319685     92.639370
     -3.918919     51.860793     51.860793    103.721587
     -3.908909     57.153245     57.153245    114.306490
     -3.898899     62.086245     62.086245    124.172490
     -3.888889     66.565702     66.565702    133.131403
     -3.878879     70.400511     70.400511    140.801022
     -3.868869     73.207572     73.207572    146.415144
     -3.858859     74.414276     74.414276    148.828552
     -3.848849     73.397240     73.397240    146.794480
     -3.838839     69.722694     69.722694    139.445388
     -3.828829     63.387999     63.387999    126.775998
     -3.818819     54.945752     54.945752    109.891504
     -3.808809     45.437049     45.437049     90.874098
     -3.798799     36.146425     36.146425     72.292849
     -3.788789     28.270262     28.270262     56.540524
     -3.778779     22.621277     22.621277     45.242555
     -3.768769     19.464382     19.464382     38.928763
     -3.758759     18.518206     18.518206     37.036413
     -3.748749     19.098029     19.098029     38.196057
     -3.738739     20.342532     20.342532     40.685065
     -3.728729     21.459794     21.459794     42.919589
     -3.718719     21.935586     21.935586     43.871171
     -3.708709     21.659469     21.659469     43.318937
     -3.698699     20.938982     20.938982     41.877964
     -3.688689     20.392609     20.392609     40.785218
     -3.678679     20.740723     20.740723     41.481446
     -3.668669     22.547275     22.547275     45.094549
     -3.658659     25.992465     25.992465     51.984931
     -3.648649     30.761218     30.761218     61.522436
     -3.638639     36.100488     36.100488     72.200975
     -3.628629     41.033905     41.033905     82.067810
     -3.618619     44.652490     44.652490     89.304980
     -3.608609     46.365310     46.365310     92.730619
     -3.598599     46.018464     46.018464     92.036928
     -3.588589     43.860692     43.860692     87.721384
     -3.578579     40.403523     40.403523     80.807046
     -3.568569     36.251459     36.251459     72.502918
     -3.558559     31.958158     31.958158     63.916316
     -3.548549     27.928800     27.928800     55.857600
     -3.538539     24.369581     24.369581     48.739161
     -3.528529     21.287413     21.287413     42.574826
     -3.518519     18.545168     18.545168     37.090337
     -3.508509     15.962423     15.962423     31.924846
     -3.498498     13.425820     13.425820     26.851641
     -3.488488     10.961316     10.961316     21.922632
     -3.478478      8.737358      8.737358     17.474716
     -3.468468      7.003049      7.003049     14.006098
     -3.458458      5.993576      5.993576     11.987151
     -3.448448      5.841096      5.841096     11.682192
     -3.438438      6.517833      6.517833     13.035666
     -3.428428      7.824685      7.824685     15.649370
     -3.418418      9.431020      9.431020     18.862040
     -3.408408     10.963578     10.963578     21.927156
     -3.398398     12.126262     12.126262     24.252524
     -3.388388     12.811707     12.811707     25.623414
     -3.378378     13.156469     13.156469     26.312938
     -3.368368     13.508860     13.508860     27.017719
     -3.358358     14.317218     14.317218     28.634437
     -3.348348     15.982883     15.982883     31.965766
     -3.338338     18.731535     18.731535     37.463071
     -3.328328     22.535480     22.535480     45.070960
     -3.318318     27.089356     27.089356     54.178711
     -3.308308     31.830037     31.830037     63.660073
     -3.298298     36.003823     36.003823     72.007647
     -3.288288     38.797021     38.797021     77.594042
     -3.278278     39.529767     39.529767     79.059534
     -3.268268     37.865817     37.865817     75.731633
     -3.258258     33.949582     33.949582     67.899164
     -3.248248     28.390946     28.390946     56.781892
     -3.238238     22.086688     22.086688     44.173375
     -3.228228     15.952664     15.952664     31.905328
     -3.218218     10.683980     10.683980     21.367961
     -3.208208      6.634483      6.634483     13.268967
     -3.198198      3.836311      3.836311      7.672622
     -3.188188      2.115179      2.115179      4.230357
     -3.178178      1.232496      1.232496      2.464992
     -3.168168      1.000966      1.000966      2.001932
     -3.158158      1.351565      1.351565      2.703130
     -3.148148      2.352476      2.352476      4.704952
     -3.138138      4.186353      4.186353      8.372707
     -3.128128      7.088603      7.088603     14.177206
     -3.118118     11.249194     11.249194     22.498388
     -3.108108     16.692027     16.692027     33.384054
     -3.098098     23.166213     23.166213     46.332427
     -3.088088     30.099450     30.099450     60.198901
     -3.078078     36.658136     36.658136     73.316271
     -3.068068     41.923479     41.923479     83.846958
     -3.058058     45.137804     45.137804     90.275609
     -3.048048     45.929433     45.929433     91.858866
     -3.038038     44.420137     44.420137     88.840274
     -3.028028     41.167395     41.167395     82.334791
     -3.018018     36.971073     36.971073     73.942146
     -3.008008     32.634649     32.634649     65.269299
     -2.997998     28.779441     28.779441     57.558882
     -2.987988     25.768105     25.768105     51.536210
     -2.977978     23.734841     23.734841     47.469682
     -2.967968     22.679079     22.679079     45.358158
     -2.957958     22.568072     22.568072     45.136144
     -2.947948     23.401664     23.401664     46.803327
     -2.937938     25.209862     25.209862     50.419723
     -2.927928     27.981185     27.981185     55.962370
     -2.917918     31.556557     31.556557     63.113113
     -2.907908     35.553868     35.553868     71.107737
     -2.897898     39.387032     39.387032     78.774063
     -2.887888     42.399595     42.399595     84.799190
     -2.877878     44.066933     44.066933     88.133867
     -2.867868     44.173518     44.173518     88.347036
     -2.857858     42.875454     42.875454     85.750908
     -2.847848     40.613967     40.613967     81.227933
     -2.837838     37.921349     37.921349     75.842697
     -2.827828     35.214282     35.214282     70.428563
     -2.817818     32.671904     32.671904     65.343808
     -2.807808     30.247908     30.247908     60.495816
     -2.797798     27.794624     27.794624     55.589247
     -2.787788     25.220829     25.220829     50.441658
     -2.777778     22.593181     22.593181     45.186363
     -2.767768     20.128710     20.128710     40.257421
     -2.757758     18.091067     18.091067     36.182135
     -2.747748     16.659125     16.659125     33.318249
     -2.737738     15.850791     15.850791     31.701582
     -2.727728     15.548478     15.548478     31.096956
     -2.717718     15.606707     15.606707     31.213414
     -2.707708     15.967633     15.967633     31.935265
     -2.697698     16.702900     16.702900     33.405800
     -2.687688     17.947808     17.947808     35.895615
     -2.677678     19.767437     19.767437     39.534874
     -2.667668     22.045510     22.045510     44.091019
     -2.657658     24.478371     24.478371     48.956741
     -2.647648     26.690380     26.690380     53.380761
     -2.637638     28.405566     28.405566     56.811133
     -2.627628     29.569976     29.569976     59.139951
     -2.617618     30.349888     30.349888     60.699776
     -2.607608     31.012418     31.012418     62.024837
     -2.597598     31.768603     31.768603     63.537206
     -2.587588     32.672298     32.672298     65.344596
     -2.577578     33.616325     33.616325     67.232650
     -2.567568     34.396544     34.396544     68.793088
     -2.557558     34.782309     34.782309     69.564618
     -2.547548     34.557289     34.557289     69.114578
     -2.537538     33.544660     33.544660     67.089320
     -2.527528     31.653060     31.653060     63.306119
     -2.517518     28.952668     28.952668     57.905336
     -2.507508     25.741637     25.741637     51.483273
     -2.497497     22.540486     22.540486     45.080971
     -2.487487     19.981023     19.981023     39.962047
     -2.477477     18.618077     18.618077     37.236154
     -2.467467     18.743430     18.743430     37.486860
     -2.457457     20.288882     20.288882     40.577764
     -2.447447     22.866347     22.866347     45.732695
     -2.437437     25.929634     25.929634     51.859268
     -2.427427     28.985936     28.985936     57.971872
     -2.417417     31.760852     31.760852     63.521704
     -2.407407     34.240914     34.240914     68.481828
     -2.397397     36.575072     36.575072     73.150144
     -2.387387     38.885808     38.885808     77.771615
     -2.377377     41.088061     41.088061     82.176122
     -2.367367     42.815167     42.815167     85.630335
     -2.357357     43.502653     43.502653     87.005305
     -2.347347     42.604189     42.604189     85.208379
     -2.337337     39.845943     39.845943     79.691885
     -2.327327     35.401478     35.401478     70.802957
     -2.317317     29.904448     29.904448     59.808895
     -2.307307     24.292891     24.292891     48.585782
     -2.297297     19.554664     19.554664     39.109328
     -2.287287     16.477262     16.477262     32.954524
     -2.277277     15.485492     15.485492     30.970985
     -2.267267     16.598845     16.598845     33.197690
     -2.257257     19.491473     19.491473     38.982945
     -2.247247     23.612339     23.612339     47.224678
     -2.237237     28.320376     28.320376     56.640752
     -2.227227     32.998368     32.998368     65.996736
     -2.217217     37.122965     37.122965     74.245930
     -2.207207     40.286835     40.286835     80.573670
     -2.197197     42.190726     42.190726     84.381452
     -2.187187     42.637894     42.637894     85.275788
     -2.177177     41.557439     41.557439     83.114878
     -2.167167     39.053690     39.053690     78.107379
     -2.157157     35.443094     35.443094     70.886189
     -2.147147     31.227185     31.227185     62.454370
     -2.137137     26.978327     26.978327     53.956654
     -2.127127     23.171508     23.171508     46.343017
     -2.117117     20.041001     20.041001     40.082002
     -2.107107     17.538373     17.538373     35.076745
     -2.097097     15.414472     15.414472     30.828945
     -2.087087     13.377887     13.377887     26.755775
     -2.077077     11.243361     11.243361     22.486721
     -2.067067      8.999316      8.999316     17.998633
     -2.057057      6.778132      6.778132     13.556263
     -2.047047      4.766571      4.766571      9.533141
     -2.037037      3.114811      3.114811      6.229621
     -2.027027      1.886436      1.886436      3.772871
     -2.017017      1.058406      1.058406      2.116812
     -2.007007      0.553627      0.553627      1.107255
     -1.996997      0.281307      0.281307      0.562614
     -1.986987      0.168205      0.168205      0.336411
     -1.976977      0.176281      0.176281      0.352561
     -1.966967      0.310142      0.310142      0.620284
     -1.956957      0.618479      0.618479      1.236958
     -1.946947      1.189538      1.189538      2.379076
     -1.936937      2.136367      2.136367      4.272734
     -1.926927      3.567220      3.567220      7.134440
     -1.916917      5.542435      5.542435     11.084870
     -1.906907      8.029122      8.029122     16.058243
     -1.896897     10.872972     10.872972     21.745944
     -1.886887     13.805239     13.805239     27.610479
     -1.876877     16.490568     16.490568     32.981136
     -1.866867     18.603974     18.603974     37.207948
     -1.856857     19.912941     19.912941     39.825881
     -1.846847     20.338893     20.338893     40.677786
     -1.836837     19.978812     19.978812     39.957624
     -1.826827     19.077177     19.077177     38.154354
     -1.816817     17.950252     17.950252     35.900503
     -1.806807     16.881810     16.881810     33.763619
     -1.796797     16.028552     16.028552     32.057103
     -1.786787     15.380718     15.380718     30.761436
     -1.776777     14.804326     14.804326     29.608651
     -1.766767     14.148602     14.148602     28.297205
     -1.756757     13.360431     13.360431     26.720861
     -1.746747     12.537613     12.537613     25.075226
     -1.736737     11.886168     11.886168     23.772335
     -1.726727     11.604751     11.604751     23.209503
     -1.716717     11.764878     11.764878     23.529756
     -1.706707     12.259624     12.259624     24.519248
     -1.696697     12.853131     12.853131     25.706263
     -1.686687     13.302784     13.302784     26.605568
     -1.676677     13.481788     13.481788     26.963576
     -1.666667     13.429024     13.429024     26.858048
     -1.656657     13.297034     13.297034     26.594067
     -1.646647     13.231675     13.231675     26.463350
     -1.636637     13.259586     13.259586     26.519171
     -1.626627     13.255040     13.255040     26.510081
