# EIG2DOS: Utility for SIESTA to obtain the electronic density of states
#  E. Artacho, Apr 1999, A. Garcia, Apr 2012
#  Nick R. Papior, Feb 2017
# ------------------------------------------
# Eigenvalues calculated from a non-polarized calculation
# Eigenvalues read from siesta.EIG
# Kpoint weights read from siesta.KP
# Using smearing parameter:   0.0500
# Using 1000 points in the energy range
# Selected bands: 1 to: 2981
# Emin, Emax in file for selected band(s):    -27.2484620    218.3731880
# Nbands, Nspin, Nk   =   2981     1     1
# E_F                 =    -4.2296 eV --> (shifted to ZERO)
# Broadening          =     0.0500 eV
#
#        E            N(up)  (=)   N(down)         Ntot
     -5.000000     32.871494     32.871494     65.742988
     -4.989990     37.492078     37.492078     74.984157
     -4.979980     41.642262     41.642262     83.284524
     -4.969970     44.632913     44.632913     89.265827
     -4.959960     45.925674     45.925674     91.851349
     -4.949950     45.309565     45.309565     90.619131
     -4.939940     42.975576     42.975576     85.951153
     -4.929930     39.475639     39.475639     78.951279
     -4.919920     35.603294     35.603294     71.206588
     -4.909910     32.248175     32.248175     64.496350
     -4.899900     30.252972     30.252972     60.505945
     -4.889890     30.268901     30.268901     60.537801
     -4.879880     32.600539     32.600539     65.201078
     -4.869870     37.064381     37.064381     74.128762
     -4.859860     42.929476     42.929476     85.858952
     -4.849850     49.016110     49.016110     98.032221
     -4.839840     53.973735     53.973735    107.947471
     -4.829830     56.664813     56.664813    113.329626
     -4.819820     56.506844     56.506844    113.013689
     -4.809810     53.625572     53.625572    107.251145
     -4.799800     48.756242     48.756242     97.512484
     -4.789790     42.949287     42.949287     85.898574
     -4.779780     37.220807     37.220807     74.441613
     -4.769770     32.291477     32.291477     64.582954
     -4.759760     28.489281     28.489281     56.978562
     -4.749750     25.802719     25.802719     51.605437
     -4.739740     24.013982     24.013982     48.027964
     -4.729730     22.835532     22.835532     45.671064
     -4.719720     22.003415     22.003415     44.006831
     -4.709710     21.318855     21.318855     42.637711
     -4.699700     20.656569     20.656569     41.313139
     -4.689690     19.966546     19.966546     39.933092
     -4.679680     19.286301     19.286301     38.572603
     -4.669670     18.760104     18.760104     37.520209
     -4.659660     18.644526     18.644526     37.289052
     -4.649650     19.279162     19.279162     38.558324
     -4.639640     21.017667     21.017667     42.035334
     -4.629630     24.132679     24.132679     48.265358
     -4.619620     28.714998     28.714998     57.429996
     -4.609610     34.585404     34.585404     69.170809
     -4.599600     41.241621     41.241621     82.483242
     -4.589590     47.876654     47.876654     95.753309
     -4.579580     53.507642     53.507642    107.015285
     -4.569570     57.220195     57.220195    114.440390
     -4.559560     58.464746     58.464746    116.929492
     -4.549550     57.281587     57.281587    114.563175
     -4.539540     54.332688     54.332688    108.665377
     -4.529530     50.696460     50.696460    101.392920
     -4.519520     47.496163     47.496163     94.992326
     -4.509510     45.515981     45.515981     91.031962
     -4.499499     44.963313     44.963313     89.926625
     -4.489489     45.463173     45.463173     90.926346
     -4.479479     46.263975     46.263975     92.527950
     -4.469469     46.548488     46.548488     93.096975
     -4.459459     45.716269     45.716269     91.432538
     -4.449449     43.538505     43.538505     87.077010
     -4.439439     40.157920     40.157920     80.315840
     -4.429429     35.976532     35.976532     71.953064
     -4.419419     31.509468     31.509468     63.018936
     -4.409409     27.271443     27.271443     54.542886
     -4.399399     23.718033     23.718033     47.436067
     -4.389389     21.218968     21.218968     42.437936
     -4.379379     20.026040     20.026040     40.052080
     -4.369369     20.221353     20.221353     40.442706
     -4.359359     21.670641     21.670641     43.341282
     -4.349349     24.026979     24.026979     48.053958
     -4.339339     26.812755     26.812755     53.625510
     -4.329329     29.563031     29.563031     59.126063
     -4.319319     31.973030     31.973030     63.946060
     -4.309309     33.983783     33.983783     67.967567
     -4.299299     35.766688     35.766688     71.533376
     -4.289289     37.611100     37.611100     75.222200
     -4.279279     39.756381     39.756381     79.512761
     -4.269269     42.229660     42.229660     84.459319
     -4.259259     44.753384     44.753384     89.506767
     -4.249249     46.772715     46.772715     93.545431
     -4.239239     47.617143     47.617143     95.234286
     -4.229229     46.753818     46.753818     93.507636
     -4.219219     44.033322     44.033322     88.066643
     -4.209209     39.809557     39.809557     79.619115
     -4.199199     34.860742     34.860742     69.721483
     -4.189189     30.133810     30.133810     60.267620
     -4.179179     26.426235     26.426235     52.852470
     -4.169169     24.150371     24.150371     48.300742
     -4.159159     23.277936     23.277936     46.555871
     -4.149149     23.467929     23.467929     46.935858
     -4.139139     24.295584     24.295584     48.591169
     -4.129129     25.463487     25.463487     50.926973
     -4.119119     26.896595     26.896595     53.793190
     -4.109109     28.683344     28.683344     57.366687
     -4.099099     30.899465     30.899465     61.798930
     -4.089089     33.412634     33.412634     66.825268
     -4.079079     35.786536     35.786536     71.573073
     -4.069069     37.362818     37.362818     74.725637
     -4.059059     37.506668     37.506668     75.013336
     -4.049049     35.902968     35.902968     71.805937
     -4.039039     32.748014     32.748014     65.496027
     -4.029029     28.730747     28.730747     57.461495
     -4.019019     24.810961     24.810961     49.621923
     -4.009009     21.907969     21.907969     43.815939
     -3.998999     20.646777     20.646777     41.293553
     -3.988989     21.256892     21.256892     42.513783
     -3.978979     23.624969     23.624969     47.249938
     -3.968969     27.429385     27.429385     54.858770
     -3.958959     32.271249     32.271249     64.542498
     -3.948949     37.755498     37.755498     75.510997
     -3.938939     43.527555     43.527555     87.055109
     -3.928929     49.294805     49.294805     98.589609
     -3.918919     54.846636     54.846636    109.693271
     -3.908909     60.055766     60.055766    120.111532
     -3.898899     64.833325     64.833325    129.666651
     -3.888889     69.036581     69.036581    138.073161
     -3.878879     72.372655     72.372655    144.745310
     -3.868869     74.366540     74.366540    148.733081
     -3.858859     74.442033     74.442033    148.884067
     -3.848849     72.107062     72.107062    144.214124
     -3.838839     67.173982     67.173982    134.347963
     -3.828829     59.917247     59.917247    119.834493
     -3.818819     51.091581     51.091581    102.183162
     -3.808809     41.791547     41.791547     83.583094
     -3.798799     33.197855     33.197855     66.395710
     -3.788789     26.296608     26.296608     52.593216
     -3.778779     21.660466     21.660466     43.320932
     -3.768769     19.351134     19.351134     38.702267
     -3.758759     18.959044     18.959044     37.918088
     -3.748749     19.757066     19.757066     39.514133
     -3.738739     20.920529     20.920529     41.841058
     -3.728729     21.756567     21.756567     43.513135
     -3.718719     21.888141     21.888141     43.776282
     -3.708709     21.348608     21.348608     42.697216
     -3.698699     20.560328     20.560328     41.120656
     -3.688689     20.195525     20.195525     40.391050
     -3.678679     20.948731     20.948731     41.897463
     -3.668669     23.282242     23.282242     46.564485
     -3.658659     27.227379     27.227379     54.454758
     -3.648649     32.319357     32.319357     64.638715
     -3.638639     37.702741     37.702741     75.405482
     -3.628629     42.377030     42.377030     84.754059
     -3.618619     45.489088     45.489088     90.978176
     -3.608609     46.558233     46.558233     93.116466
     -3.598599     45.556845     45.556845     91.113690
     -3.588589     42.842140     42.842140     85.684281
     -3.578579     38.996876     38.996876     77.993751
     -3.568569     34.653847     34.653847     69.307694
     -3.558559     30.354658     30.354658     60.709317
     -3.548549     26.459686     26.459686     52.919372
     -3.538539     23.110814     23.110814     46.221627
     -3.528529     20.250015     20.250015     40.500030
     -3.518519     17.694242     17.694242     35.388483
     -3.508509     15.248121     15.248121     30.496242
     -3.498498     12.812692     12.812692     25.625384
     -3.488488     10.443967     10.443967     20.887933
     -3.478478      8.338311      8.338311     16.676621
     -3.468468      6.757290      6.757290     13.514580
     -3.458458      5.928423      5.928423     11.856846
     -3.448448      5.959163      5.959163     11.918325
     -3.438438      6.788050      6.788050     13.576101
     -3.428428      8.184376      8.184376     16.368751
     -3.418418      9.800587      9.800587     19.601173
     -3.408408     11.272584     11.272584     22.545168
     -3.398398     12.345221     12.345221     24.690441
     -3.388388     12.980555     12.980555     25.961110
     -3.378378     13.401927     13.401927     26.803855
     -3.368368     14.048391     14.048391     28.096782
     -3.358358     15.452028     15.452028     30.904056
     -3.348348     18.080485     18.080485     36.160971
     -3.338338     22.190093     22.190093     44.380186
     -3.328328     27.716354     27.716354     55.432707
     -3.318318     34.213094     34.213094     68.426188
     -3.308308     40.857154     40.857154     81.714308
     -3.298298     46.550856     46.550856     93.101713
     -3.288288     50.145377     50.145377    100.290755
     -3.278278     50.753792     50.753792    101.507584
     -3.268268     48.048334     48.048334     96.096668
     -3.258258     42.403419     42.403419     84.806837
     -3.248248     34.798281     34.798281     69.596562
     -3.238238     26.510559     26.510559     53.021119
     -3.228228     18.738902     18.738902     37.477804
     -3.218218     12.317640     12.317640     24.635281
     -3.208208      7.619997      7.619997     15.239994
     -3.198198      4.641074      4.641074      9.282148
     -3.188188      3.175519      3.175519      6.351038
     -3.178178      2.990077      2.990077      5.980155
     -3.168168      3.925673      3.925673      7.851345
     -3.158158      5.913152      5.913152     11.826304
     -3.148148      8.924291      8.924291     17.848582
     -3.138138     12.895732     12.895732     25.791463
     -3.128128     17.661450     17.661450     35.322901
     -3.118118     22.916940     22.916940     45.833880
     -3.108108     28.223861     28.223861     56.447723
     -3.098098     33.054176     33.054176     66.108351
     -3.088088     36.868555     36.868555     73.737110
     -3.078078     39.219130     39.219130     78.438260
     -3.068068     39.854850     39.854850     79.709700
     -3.058058     38.792757     38.792757     77.585514
     -3.048048     36.316345     36.316345     72.632690
     -3.038038     32.887067     32.887067     65.774134
     -3.028028     29.000356     29.000356     58.000712
     -3.018018     25.053857     25.053857     50.107713
     -3.008008     21.292579     21.292579     42.585159
     -2.997998     17.850508     17.850508     35.701017
     -2.987988     14.850691     14.850691     29.701383
     -2.977978     12.495261     12.495261     24.990521
     -2.967968     11.089755     11.089755     22.179510
     -2.957958     10.986895     10.986895     21.973790
     -2.947948     12.473992     12.473992     24.947985
     -2.937938     15.647242     15.647242     31.294484
     -2.927928     20.316847     20.316847     40.633694
     -2.917918     25.978933     25.978933     51.957866
     -2.907908     31.876847     31.876847     63.753695
     -2.897898     37.151599     37.151599     74.303198
     -2.887888     41.048105     41.048105     82.096211
     -2.877878     43.112142     43.112142     86.224284
     -2.867868     43.302194     43.302194     86.604388
     -2.857858     41.964899     41.964899     83.929797
     -2.847848     39.677744     39.677744     79.355489
     -2.837838     37.023470     37.023470     74.046939
     -2.827828     34.394599     34.394599     68.789198
     -2.817818     31.912485     31.912485     63.824969
     -2.807808     29.487237     29.487237     58.974474
     -2.797798     26.972900     26.972900     53.945801
     -2.787788     24.325644     24.325644     48.651289
     -2.777778     21.677654     21.677654     43.355307
     -2.767768     19.292594     19.292594     38.585187
     -2.757758     17.438885     17.438885     34.877770
     -2.747748     16.263464     16.263464     32.526928
     -2.737738     15.744036     15.744036     31.488073
     -2.727728     15.745017     15.745017     31.490034
     -2.717718     16.133863     16.133863     32.267727
     -2.707708     16.874133     16.874133     33.748266
     -2.697698     18.027272     18.027272     36.054545
     -2.687688     19.659079     19.659079     39.318158
     -2.677678     21.717222     21.717222     43.434444
     -2.667668     23.973454     23.973454     47.946909
     -2.657658     26.085227     26.085227     52.170455
     -2.647648     27.749771     27.749771     55.499542
     -2.637638     28.855873     28.855873     57.711746
     -2.627628     29.534654     29.534654     59.069307
     -2.617618     30.075598     30.075598     60.151196
     -2.607608     30.761610     30.761610     61.523220
     -2.597598     31.723480     31.723480     63.446961
     -2.587588     32.888987     32.888987     65.777974
     -2.577578     34.030372     34.030372     68.060743
     -2.567568     34.855280     34.855280     69.710561
     -2.557558     35.082453     35.082453     70.164906
     -2.547548     34.485779     34.485779     68.971559
     -2.537538     32.931701     32.931701     65.863402
     -2.527528     30.435367     30.435367     60.870735
     -2.517518     27.223347     27.223347     54.446694
     -2.507508     23.754579     23.754579     47.509158
     -2.497497     20.654005     20.654005     41.308011
     -2.487487     18.557372     18.557372     37.114744
     -2.477477     17.919851     17.919851     35.839701
     -2.467467     18.868958     18.868958     37.737915
     -2.457457     21.168140     21.168140     42.336279
     -2.447447     24.310783     24.310783     48.621565
     -2.437437     27.708323     27.708323     55.416647
     -2.427427     30.894378     30.894378     61.788756
     -2.417417     33.657033     33.657033     67.314067
     -2.407407     36.040227     36.040227     72.080454
     -2.397397     38.213483     38.213483     76.426965
     -2.387387     40.273147     40.273147     80.546294
     -2.377377     42.077492     42.077492     84.154985
     -2.367367     43.209967     43.209967     86.419935
     -2.357357     43.107182     43.107182     86.214365
     -2.347347     41.304460     41.304460     82.608920
     -2.337337     37.685022     37.685022     75.370043
     -2.327327     32.609545     32.609545     65.219090
     -2.317317     26.860842     26.860842     53.721684
     -2.307307     21.430993     21.430993     42.861985
     -2.297297     17.249603     17.249603     34.499206
     -2.287287     14.962955     14.962955     29.925909
     -2.277277     14.828949     14.828949     29.657897
     -2.267267     16.729840     16.729840     33.459679
     -2.257257     20.262199     20.262199     40.524399
     -2.247247     24.854397     24.854397     49.708794
     -2.237237     29.875074     29.875074     59.750148
     -2.227227     34.714417     34.714417     69.428833
     -2.217217     38.834737     38.834737     77.669474
     -2.207207     41.797930     41.797930     83.595860
     -2.197197     43.285330     43.285330     86.570661
     -2.187187     43.126165     43.126165     86.252329
     -2.177177     41.338617     41.338617     82.677233
     -2.167167     38.164676     38.164676     76.329352
     -2.157157     34.061544     34.061544     68.123088
     -2.147147     29.618562     29.618562     59.237124
     -2.137137     25.405942     25.405942     50.811884
     -2.127127     21.810216     21.810216     43.620432
     -2.117117     18.934910     18.934910     37.869819
     -2.107107     16.619469     16.619469     33.238939
     -2.097097     14.566435     14.566435     29.132870
     -2.087087     12.507636     12.507636     25.015271
     -2.077077     10.324496     10.324496     20.648992
     -2.067067      8.072985      8.072985     16.145969
     -2.057057      5.922390      5.922390     11.844780
     -2.047047      4.059514      4.059514      8.119029
     -2.037037      2.614327      2.614327      5.228654
     -2.027027      1.636509      1.636509      3.273018
     -2.017017      1.118280      1.118280      2.236559
     -2.007007      1.037678      1.037678      2.075357
     -1.996997      1.393737      1.393737      2.787473
     -1.986987      2.214957      2.214957      4.429914
     -1.976977      3.537253      3.537253      7.074506
     -1.966967      5.362149      5.362149     10.724298
     -1.956957      7.617260      7.617260     15.234520
     -1.946947     10.143741     10.143741     20.287482
     -1.936937     12.724502     12.724502     25.449004
     -1.926927     15.144364     15.144364     30.288727
     -1.916917     17.251574     17.251574     34.503148
     -1.906907     18.985745     18.985745     37.971491
     -1.896897     20.356748     20.356748     40.713496
     -1.886887     21.390551     21.390551     42.781103
     -1.876877     22.079153     22.079153     44.158307
     -1.866867     22.367992     22.367992     44.735983
     -1.856857     22.189549     22.189549     44.379098
     -1.846847     21.523272     21.523272     43.046543
     -1.836837     20.445337     20.445337     40.890674
     -1.826827     19.134277     19.134277     38.268555
     -1.816817     17.818875     17.818875     35.637750
     -1.806807     16.685827     16.685827     33.371654
     -1.796797     15.792175     15.792175     31.584351
     -1.786787     15.033284     15.033284     30.066567
     -1.776777     14.191590     14.191590     28.383180
     -1.766767     13.045768     13.045768     26.091537
     -1.756757     11.483284     11.483284     22.966569
     -1.746747      9.557668      9.557668     19.115336
     -1.736737      7.466572      7.466572     14.933144
     -1.726727      5.473007      5.473007     10.946013
     -1.716717      3.818822      3.818822      7.637645
     -1.706707      2.672527      2.672527      5.345054
     -1.696697      2.123189      2.123189      4.246379
     -1.686687      2.201736      2.201736      4.403471
     -1.676677      2.898719      2.898719      5.797439
     -1.666667      4.157754      4.157754      8.315508
     -1.656657      5.847512      5.847512     11.695023
     -1.646647      7.737615      7.737615     15.475230
     -1.636637      9.510830      9.510830     19.021660
     -1.626627     10.829198     10.829198     21.658396
