# EIG2DOS: Utility for SIESTA to obtain the electronic density of states
#  E. Artacho, Apr 1999, A. Garcia, Apr 2012
#  Nick R. Papior, Feb 2017
# ------------------------------------------
# Eigenvalues calculated from a non-polarized calculation
# Eigenvalues read from siesta.EIG
# Kpoint weights read from siesta.KP
# Using smearing parameter:   0.0500
# Using 1000 points in the energy range
# Selected bands: 1 to: 2981
# Emin, Emax in file for selected band(s):    -27.1097324    218.3310200
# Nbands, Nspin, Nk   =   2981     1     1
# E_F                 =    -4.2793 eV --> (shifted to ZERO)
# Broadening          =     0.0500 eV
#
#        E            N(up)  (=)   N(down)         Ntot
     -5.000000     39.633190     39.633190     79.266381
     -4.989990     41.442826     41.442826     82.885653
     -4.979980     43.012113     43.012113     86.024227
     -4.969970     44.019861     44.019861     88.039722
     -4.959960     44.132321     44.132321     88.264643
     -4.949950     43.144617     43.144617     86.289234
     -4.939940     41.077802     41.077802     82.155604
     -4.929930     38.206882     38.206882     76.413765
     -4.919920     35.030261     35.030261     70.060522
     -4.909910     32.204104     32.204104     64.408207
     -4.899900     30.452049     30.452049     60.904098
     -4.889890     30.439352     30.439352     60.878703
     -4.879880     32.599782     32.599782     65.199564
     -4.869870     36.939262     36.939262     73.878525
     -4.859860     42.894610     42.894610     85.789220
     -4.849850     49.351875     49.351875     98.703750
     -4.839840     54.885131     54.885131    109.770262
     -4.829830     58.168562     58.168562    116.337124
     -4.819820     58.403804     58.403804    116.807609
     -4.809810     55.570144     55.570144    111.140287
     -4.799800     50.382775     50.382775    100.765550
     -4.789790     43.991643     43.991643     87.983287
     -4.779780     37.577142     37.577142     75.154284
     -4.769770     32.024229     32.024229     64.048457
     -4.759760     27.780866     27.780866     55.561732
     -4.749750     24.894473     24.894473     49.788947
     -4.739740     23.145464     23.145464     46.290927
     -4.729730     22.189924     22.189924     44.379849
     -4.719720     21.661832     21.661832     43.323664
     -4.709710     21.228522     21.228522     42.457044
     -4.699700     20.617488     20.617488     41.234976
     -4.689690     19.637038     19.637038     39.274075
     -4.679680     18.205681     18.205681     36.411362
     -4.669670     16.390935     16.390935     32.781871
     -4.659660     14.442690     14.442690     28.885379
     -4.649650     12.797058     12.797058     25.594115
     -4.639640     12.029586     12.029586     24.059172
     -4.629630     12.749902     12.749902     25.499804
     -4.619620     15.447166     15.447166     30.894333
     -4.609610     20.314125     20.314125     40.628251
     -4.599600     27.098076     27.098076     54.196153
     -4.589590     35.043981     35.043981     70.087962
     -4.579580     42.990628     42.990628     85.981257
     -4.569570     49.637362     49.637362     99.274724
     -4.559560     53.921734     53.921734    107.843468
     -4.549550     55.375199     55.375199    110.750397
     -4.539540     54.304352     54.304352    108.608704
     -4.529530     51.703748     51.703748    103.407495
     -4.519520     48.919340     48.919340     97.838681
     -4.509510     47.190123     47.190123     94.380247
     -4.499499     47.243342     47.243342     94.486685
     -4.489489     49.086702     49.086702     98.173404
     -4.479479     52.053250     52.053250    104.106501
     -4.469469     55.057629     55.057629    110.115258
     -4.459459     56.956269     56.956269    113.912537
     -4.449449     56.886273     56.886273    113.772547
     -4.439439     54.483897     54.483897    108.967794
     -4.429429     49.937191     49.937191     99.874382
     -4.419419     43.887370     43.887370     87.774740
     -4.409409     37.237516     37.237516     74.475032
     -4.399399     30.939627     30.939627     61.879254
     -4.389389     25.812432     25.812432     51.624865
     -4.379379     22.411786     22.411786     44.823573
     -4.369369     20.956300     20.956300     41.912600
     -4.359359     21.311359     21.311359     42.622717
     -4.349349     23.041427     23.041427     46.082853
     -4.339339     25.533735     25.533735     51.067469
     -4.329329     28.170791     28.170791     56.341582
     -4.319319     30.500736     30.500736     61.001473
     -4.309309     32.346383     32.346383     64.692766
     -4.299299     33.814968     33.814968     67.629935
     -4.289289     35.208757     35.208757     70.417515
     -4.279279     36.870003     36.870003     73.740005
     -4.269269     39.009958     39.009958     78.019917
     -4.259259     41.574306     41.574306     83.148612
     -4.249249     44.193614     44.193614     88.387228
     -4.239239     46.254080     46.254080     92.508159
     -4.229229     47.088813     47.088813     94.177625
     -4.219219     46.233351     46.233351     92.466703
     -4.209209     43.638499     43.638499     87.276998
     -4.199199     39.730996     39.730996     79.461992
     -4.189189     35.277421     35.277421     70.554843
     -4.179179     31.109016     31.109016     62.218032
     -4.169169     27.840592     27.840592     55.681185
     -4.159159     25.715148     25.715148     51.430296
     -4.149149     24.630644     24.630644     49.261289
     -4.139139     24.307916     24.307916     48.615832
     -4.129129     24.495904     24.495904     48.991808
     -4.119119     25.107263     25.107263     50.214525
     -4.109109     26.222201     26.222201     52.444401
     -4.099099     27.964463     27.964463     55.928926
     -4.089089     30.316124     30.316124     60.632248
     -4.079079     32.975744     32.975744     65.951489
     -4.069069     35.356079     35.356079     70.712159
     -4.059059     36.753993     36.753993     73.507985
     -4.049049     36.629637     36.629637     73.259274
     -4.039039     34.858640     34.858640     69.717280
     -4.029029     31.822689     31.822689     63.645377
     -4.019019     28.288055     28.288055     56.576110
     -4.009009     25.137646     25.137646     50.275292
     -3.998999     23.095122     23.095122     46.190244
     -3.988989     22.565165     22.565165     45.130330
     -3.978979     23.629591     23.629591     47.259183
     -3.968969     26.147677     26.147677     52.295353
     -3.958959     29.870541     29.870541     59.741082
     -3.948949     34.508380     34.508380     69.016759
     -3.938939     39.750411     39.750411     79.500823
     -3.928929     45.277607     45.277607     90.555213
     -3.918919     50.799211     50.799211    101.598421
     -3.908909     56.101437     56.101437    112.202874
     -3.898899     61.063006     61.063006    122.126013
     -3.888889     65.600441     65.600441    131.200883
     -3.878879     69.553920     69.553920    139.107839
     -3.868869     72.578132     72.578132    145.156263
     -3.858859     74.121918     74.121918    148.243835
     -3.848849     73.546543     73.546543    147.093086
     -3.838839     70.359455     70.359455    140.718910
     -3.828829     64.468399     64.468399    128.936798
     -3.818819     56.333362     56.333362    112.666725
     -3.808809     46.931271     46.931271     93.862542
     -3.798799     37.532577     37.532577     75.065153
     -3.788789     29.373192     29.373192     58.746384
     -3.778779     23.344571     23.344571     46.689143
     -3.768769     19.804539     19.804539     39.609078
     -3.758759     18.552886     18.552886     37.105772
     -3.748749     18.955098     18.955098     37.910196
     -3.738739     20.160265     20.160265     40.320530
     -3.728729     21.348773     21.348773     42.697547
     -3.718719     21.951083     21.951083     43.902167
     -3.708709     21.790265     21.790265     43.580530
     -3.698699     21.115028     21.115028     42.230056
     -3.688689     20.509706     20.509706     41.019412
     -3.678679     20.695889     20.695889     41.391777
     -3.668669     22.274652     22.274652     44.549303
     -3.658659     25.488158     25.488158     50.976316
     -3.648649     30.088005     30.088005     60.176010
     -3.638639     35.370327     35.370327     70.740653
     -3.628629     40.375162     40.375162     80.750325
     -3.618619     44.175250     44.175250     88.350501
     -3.608609     46.137762     46.137762     92.275523
     -3.598599     46.060246     46.060246     92.120491
     -3.588589     44.150069     44.150069     88.300137
     -3.578579     40.890483     40.890483     81.780966
     -3.568569     36.870486     36.870486     73.740972
     -3.558559     32.639306     32.639306     65.278612
     -3.548549     28.608387     28.608387     57.216773
     -3.538539     25.000289     25.000289     50.000579
     -3.528529     21.844501     21.844501     43.689002
     -3.518519     19.025114     19.025114     38.050229
     -3.508509     16.373883     16.373883     32.747767
     -3.498498     13.777386     13.777386     27.554773
     -3.488488     11.252362     11.252362     22.504724
     -3.478478      8.956044      8.956044     17.912087
     -3.468468      7.131408      7.131408     14.262815
     -3.458458      6.016626      6.016626     12.033252
     -3.448448      5.756214      5.756214     11.512428
     -3.438438      6.341225      6.341225     12.682450
     -3.428428      7.592440      7.592440     15.184881
     -3.418418      9.192925      9.192925     18.385849
     -3.408408     10.769780     10.769780     21.539560
     -3.398398     12.010209     12.010209     24.020418
     -3.388388     12.775763     12.775763     25.551526
     -3.378378     13.166736     13.166736     26.333473
     -3.368368     13.502046     13.502046     27.004091
     -3.358358     14.217106     14.217106     28.434211
     -3.348348     15.720660     15.720660     31.441319
     -3.338338     18.264850     18.264850     36.529699
     -3.328328     21.863836     21.863836     43.727673
     -3.318318     26.264601     26.264601     52.529202
     -3.308308     30.958478     30.958478     61.916955
     -3.298298     35.233798     35.233798     70.467596
     -3.288288     38.287831     38.287831     76.575662
     -3.278278     39.406912     39.406912     78.813824
     -3.268268     38.178612     38.178612     76.357224
     -3.258258     34.651306     34.651306     69.302612
     -3.248248     29.353238     29.353238     58.706476
     -3.238238     23.143084     23.143084     46.286167
     -3.228228     16.952127     16.952127     33.904253
     -3.218218     11.533451     11.533451     23.066903
     -3.208208      7.319913      7.319913     14.639827
     -3.198198      4.425799      4.425799      8.851598
     -3.188188      2.755689      2.755689      5.511378
     -3.178178      2.148317      2.148317      4.296634
     -3.168168      2.490285      2.490285      4.980570
     -3.158158      3.765066      3.765066      7.530132
     -3.148148      6.034082      6.034082     12.068164
     -3.138138      9.367973      9.367973     18.735946
     -3.128128     13.757635     13.757635     27.515271
     -3.118118     19.038746     19.038746     38.077492
     -3.108108     24.859896     24.859896     49.719793
     -3.098098     30.711950     30.711950     61.423899
     -3.088088     36.016707     36.016707     72.033413
     -3.078078     40.251557     40.251557     80.503113
     -3.068068     43.069950     43.069950     86.139899
     -3.058058     44.371761     44.371761     88.743522
     -3.048048     44.289950     44.289950     88.579901
     -3.038038     43.093347     43.093347     86.186694
     -3.028028     41.049848     41.049848     82.099695
     -3.018018     38.323815     38.323815     76.647629
     -3.008008     34.969372     34.969372     69.938744
     -2.997998     31.025796     31.025796     62.051593
     -2.987988     26.655733     26.655733     53.311466
     -2.977978     22.237703     22.237703     44.475405
     -2.967968     18.351927     18.351927     36.703854
     -2.957958     15.660184     15.660184     31.320368
     -2.947948     14.731667     14.731667     29.463334
     -2.937938     15.879842     15.879842     31.759685
     -2.927928     19.057007     19.057007     38.114014
     -2.917918     23.829116     23.829116     47.658231
     -2.907908     29.438749     29.438749     58.877498
     -2.897898     34.952981     34.952981     69.905962
     -2.887888     39.472459     39.472459     78.944918
     -2.877878     42.348739     42.348739     84.697479
     -2.867868     43.337113     43.337113     86.674226
     -2.857858     42.623068     42.623068     85.246136
     -2.847848     40.706486     40.706486     81.412973
     -2.837838     38.189197     38.189197     76.378394
     -2.827828     35.556152     35.556152     71.112304
     -2.817818     33.042725     33.042725     66.085450
     -2.807808     30.637406     30.637406     61.274812
     -2.797798     28.201880     28.201880     56.403760
     -2.787788     25.633874     25.633874     51.267748
     -2.777778     22.981709     22.981709     45.963419
     -2.767768     20.451738     20.451738     40.903476
     -2.757758     18.313070     18.313070     36.626141
     -2.747748     16.763098     16.763098     33.526196
     -2.737738     15.838518     15.838518     31.677035
     -2.727728     15.426798     15.426798     30.853595
     -2.717718     15.369020     15.369020     30.738039
     -2.707708     15.585430     15.585430     31.170860
     -2.697698     16.138051     16.138051     32.276101
     -2.687688     17.183504     17.183504     34.367009
     -2.677678     18.841346     18.841346     37.682692
     -2.667668     21.062603     21.062603     42.125206
     -2.657658     23.589220     23.589220     47.178440
     -2.647648     26.040273     26.040273     52.080547
     -2.637638     28.078843     28.078843     56.157686
     -2.627628     29.559088     29.559088     59.118177
     -2.617618     30.565122     30.565122     61.130244
     -2.607608     31.324632     31.324632     62.649264
     -2.597598     32.060115     32.060115     64.120229
     -2.587588     32.871500     32.871500     65.743000
     -2.577578     33.706955     33.706955     67.413911
     -2.567568     34.408902     34.408902     68.817805
     -2.557558     34.778655     34.778655     69.557310
     -2.547548     34.616723     34.616723     69.233446
     -2.537538     33.744329     33.744329     67.488658
     -2.527528     32.042668     32.042668     64.085335
     -2.517518     29.528026     29.528026     59.056052
     -2.507508     26.431062     26.431062     52.862124
     -2.497497     23.216130     23.216130     46.432259
     -2.487487     20.495318     20.495318     40.990635
     -2.477477     18.851614     18.851614     37.703228
     -2.467467     18.644006     18.644006     37.288012
     -2.457457     19.885565     19.885565     39.771130
     -2.447447     22.254026     22.254026     44.508052
     -2.437437     25.232245     25.232245     50.464491
     -2.427427     28.314886     28.314886     56.629773
     -2.417417     31.185997     31.185997     62.371995
     -2.407407     33.784771     33.784771     67.569543
     -2.397397     36.229730     36.229730     72.459460
     -2.387387     38.641536     38.641536     77.283072
     -2.377377     40.957778     40.957778     81.915557
     -2.367367     42.841733     42.841733     85.683466
     -2.357357     43.744724     43.744724     87.489447
     -2.347347     43.107006     43.107006     86.214013
     -2.337337     40.611131     40.611131     81.222262
     -2.327327     36.371005     36.371005     72.742011
     -2.317317     30.967299     30.967299     61.934598
     -2.307307     25.311885     25.311885     50.623770
     -2.297297     20.401242     20.401242     40.802485
     -2.287287     17.059574     17.059574     34.119149
     -2.277277     15.760443     15.760443     31.520887
     -2.267267     16.567924     16.567924     33.135848
     -2.257257     19.187377     19.187377     38.374754
     -2.247247     23.085336     23.085336     46.170672
     -2.237237     27.630503     27.630503     55.261006
     -2.227227     32.214553     32.214553     64.429106
     -2.217217     36.325620     36.325620     72.651240
     -2.207207     39.568033     39.568033     79.136067
     -2.197197     41.646556     41.646556     83.293112
     -2.187187     42.351208     42.351208     84.702416
     -2.177177     41.575043     41.575043     83.150086
     -2.167167     39.367535     39.367535     78.735070
     -2.157157     35.986518     35.986518     71.973036
     -2.147147     31.892239     31.892239     63.784478
     -2.137137     27.650000     27.650000     55.299999
     -2.127127     23.764726     23.764726     47.529452
     -2.117117     20.523416     20.523416     41.046832
     -2.107107     17.928858     17.928858     35.857715
     -2.097097     15.760208     15.760208     31.520417
     -2.087087     13.723810     13.723810     27.447621
     -2.077077     11.609905     11.609905     23.219810
     -2.067067      9.377384      9.377384     18.754768
     -2.057057      7.139513      7.139513     14.279025
     -2.047047      5.080653      5.080653     10.161307
     -2.037037      3.361842      3.361842      6.723683
     -2.027027      2.062334      2.062334      4.124669
     -2.017017      1.171889      1.171889      2.343778
     -2.007007      0.619637      0.619637      1.239274
     -1.996997      0.314669      0.314669      0.629337
     -1.986987      0.179493      0.179493      0.358986
     -1.976977      0.169924      0.169924      0.339848
     -1.966967      0.283961      0.283961      0.567923
     -1.956957      0.564081      0.564081      1.128162
     -1.946947      1.093767      1.093767      2.187534
     -1.936937      1.984494      1.984494      3.968989
     -1.926927      3.348236      3.348236      6.696471
     -1.916917      5.255558      5.255558     10.511115
     -1.906907      7.689141      7.689141     15.378281
     -1.896897     10.511360     10.511360     21.022720
     -1.886887     13.465093     13.465093     26.930186
     -1.876877     16.216090     16.216090     32.432179
     -1.866867     18.427976     18.427976     36.855951
     -1.856857     19.847051     19.847051     39.694102
     -1.846847     20.370281     20.370281     40.740563
     -1.836837     20.075181     20.075181     40.150362
     -1.826827     19.199699     19.199699     38.399398
     -1.816817     18.072346     18.072346     36.144691
     -1.806807     17.009777     17.009777     34.019555
     -1.796797     16.218145     16.218145     32.436291
     -1.786787     15.742574     15.742574     31.485147
     -1.776777     15.491840     15.491840     30.983679
     -1.766767     15.324524     15.324524     30.649048
     -1.756757     15.143388     15.143388     30.286776
     -1.746747     14.937772     14.937772     29.875545
     -1.736737     14.749964     14.749964     29.499928
     -1.726727     14.597212     14.597212     29.194425
     -1.716717     14.414955     14.414955     28.829910
     -1.706707     14.072013     14.072013     28.144026
     -1.696697     13.455111     13.455111     26.910222
     -1.686687     12.567258     12.567258     25.134516
     -1.676677     11.570110     11.570110     23.140220
     -1.666667     10.733455     10.733455     21.466910
     -1.656657     10.311757     10.311757     20.623514
     -1.646647     10.411911     10.411911     20.823822
     -1.636637     10.923224     10.923224     21.846448
     -1.626627     11.549398     11.549398     23.098796
