# EIG2DOS: Utility for SIESTA to obtain the electronic density of states
#  E. Artacho, Apr 1999, A. Garcia, Apr 2012
#  Nick R. Papior, Feb 2017
# ------------------------------------------
# Eigenvalues calculated from a non-polarized calculation
# Eigenvalues read from siesta.EIG
# Kpoint weights read from siesta.KP
# Using smearing parameter:   0.0500
# Using 1000 points in the energy range
# Selected bands: 1 to: 2981
# Emin, Emax in file for selected band(s):    -27.1519978    218.3769750
# Nbands, Nspin, Nk   =   2981     1     1
# E_F                 =    -4.2287 eV --> (shifted to ZERO)
# Broadening          =     0.0500 eV
#
#        E            N(up)  (=)   N(down)         Ntot
     -5.000000     32.535712     32.535712     65.071424
     -4.989990     36.953653     36.953653     73.907306
     -4.979980     40.974028     40.974028     81.948056
     -4.969970     43.955954     43.955954     87.911908
     -4.959960     45.368606     45.368606     90.737212
     -4.949950     44.965525     44.965525     89.931050
     -4.939940     42.875293     42.875293     85.750585
     -4.929930     39.584279     39.584279     79.168558
     -4.919920     35.836750     35.836750     71.673500
     -4.909910     32.499091     32.499091     64.998182
     -4.899900     30.419082     30.419082     60.838164
     -4.889890     30.280456     30.280456     60.560912
     -4.879880     32.443609     32.443609     64.887217
     -4.869870     36.792589     36.792589     73.585177
     -4.859860     42.654602     42.654602     85.309204
     -4.849850     48.873904     48.873904     97.747809
     -4.839840     54.074344     54.074344    108.148688
     -4.829830     57.048693     57.048693    114.097386
     -4.819820     57.127320     57.127320    114.254639
     -4.809810     54.366370     54.366370    108.732741
     -4.799800     49.474445     49.474445     98.948891
     -4.789790     43.522859     43.522859     87.045717
     -4.779780     37.581385     37.581385     75.162770
     -4.769770     32.433973     32.433973     64.867946
     -4.759760     28.461132     28.461132     56.922265
     -4.749750     25.680952     25.680952     51.361904
     -4.739740     23.877434     23.877434     47.754868
     -4.729730     22.736602     22.736602     45.473205
     -4.719720     21.941821     21.941821     43.883641
     -4.709710     21.219363     21.219363     42.438727
     -4.699700     20.352887     20.352887     40.705775
     -4.689690     19.194885     19.194885     38.389771
     -4.679680     17.695618     17.695618     35.391236
     -4.669670     15.950150     15.950150     31.900300
     -4.659660     14.242039     14.242039     28.484079
     -4.649650     13.050933     13.050933     26.101865
     -4.639640     12.997620     12.997620     25.995240
     -4.629630     14.719539     14.719539     29.439077
     -4.619620     18.692956     18.692956     37.385911
     -4.609610     25.040174     25.040174     50.080349
     -4.599600     33.380103     33.380103     66.760206
     -4.589590     42.791634     42.791634     85.583269
     -4.579580     51.945389     51.945389    103.890778
     -4.569570     59.407819     59.407819    118.815638
     -4.559560     64.042878     64.042878    128.085756
     -4.549550     65.368942     65.368942    130.737884
     -4.539540     63.718412     63.718412    127.436824
     -4.529530     60.114929     60.114929    120.229858
     -4.519520     55.903329     55.903329    111.806658
     -4.509510     52.279939     52.279939    104.559877
     -4.499499     49.914988     49.914988     99.829975
     -4.489489     48.810798     48.810798     97.621596
     -4.479479     48.426079     48.426079     96.852159
     -4.469469     47.979332     47.979332     95.958665
     -4.459459     46.781560     46.781560     93.563121
     -4.449449     44.463849     44.463849     88.927698
     -4.439439     41.039158     41.039158     82.078316
     -4.429429     36.823435     36.823435     73.646870
     -4.419419     32.293956     32.293956     64.587912
     -4.409409     27.962237     27.962237     55.924475
     -4.399399     24.296749     24.296749     48.593499
     -4.389389     21.681822     21.681822     43.363645
     -4.379379     20.378287     20.378287     40.756575
     -4.369369     20.469851     20.469851     40.939702
     -4.359359     21.817040     21.817040     43.634079
     -4.349349     24.062662     24.062662     48.125323
     -4.339339     26.717116     26.717116     53.434231
     -4.329329     29.307232     29.307232     58.614465
     -4.319319     31.530295     31.530295     63.060589
     -4.309309     33.344493     33.344493     66.688986
     -4.299299     34.953563     34.953563     69.907125
     -4.289289     36.688379     36.688379     73.376758
     -4.279279     38.827968     38.827968     77.655936
     -4.269269     41.424336     41.424336     82.848672
     -4.259259     44.199415     44.199415     88.398829
     -4.249249     46.568258     46.568258     93.136517
     -4.239239     47.805260     47.805260     95.610520
     -4.229229     47.310317     47.310317     94.620634
     -4.219219     44.871700     44.871700     89.743399
     -4.209209     40.801317     40.801317     81.602634
     -4.199199     35.864013     35.864013     71.728026
     -4.189189     31.021151     31.021151     62.042303
     -4.179179     27.104431     27.104431     54.208863
     -4.169169     24.569255     24.569255     49.138509
     -4.159159     23.428802     23.428802     46.857603
     -4.149149     23.373663     23.373663     46.747326
     -4.139139     23.995226     23.995226     47.990452
     -4.129129     24.995675     24.995675     49.991349
     -4.119119     26.288970     26.288970     52.577939
     -4.109109     27.955209     27.955209     55.910419
     -4.099099     30.079350     30.079350     60.158700
     -4.089089     32.561872     32.561872     65.123744
     -4.079079     35.011693     35.011693     70.023387
     -4.069069     36.801869     36.801869     73.603738
     -4.059059     37.288144     37.288144     74.576288
     -4.049049     36.095528     36.095528     72.191056
     -4.039039     33.326840     33.326840     66.653681
     -4.029029     29.579353     29.579353     59.158705
     -4.019019     25.757160     25.757160     51.514320
     -4.009009     22.774822     22.774822     45.549645
     -3.998999     21.294753     21.294753     42.589506
     -3.988989     21.603326     21.603326     43.206653
     -3.978979     23.641957     23.641957     47.283915
     -3.968969     27.130808     27.130808     54.261616
     -3.958959     31.699272     31.699272     63.398545
     -3.948949     36.970292     36.970292     73.940584
     -3.938939     42.598255     42.598255     85.196510
     -3.928929     48.289598     48.289598     96.579197
     -3.918919     53.824305     53.824305    107.648611
     -3.908909     59.064797     59.064797    118.129594
     -3.898899     63.922595     63.922595    127.845191
     -3.888889     68.273172     68.273172    136.546345
     -3.878879     71.853125     71.853125    143.706251
     -3.868869     74.206463     74.206463    148.412927
     -3.858859     74.739260     74.739260    149.478521
     -3.848849     72.892182     72.892182    145.784363
     -3.838839     68.374528     68.374528    136.749055
     -3.828829     61.359202     61.359202    122.718405
     -3.818819     52.542598     52.542598    105.085196
     -3.808809     43.027376     43.027376     86.054752
     -3.798799     34.062316     34.062316     68.124631
     -3.788789     26.732288     26.732288     53.464576
     -3.778779     21.705149     21.705149     43.410299
     -3.768769     19.110477     19.110477     38.220953
     -3.758759     18.570845     18.570845     37.141691
     -3.748749     19.358070     19.358070     38.716139
     -3.738739     20.620045     20.620045     41.240089
     -3.728729     21.617852     21.617852     43.235704
     -3.718719     21.918807     21.918807     43.837615
     -3.708709     21.502420     21.502420     43.004840
     -3.698699     20.751842     20.751842     41.503685
     -3.688689     20.325712     20.325712     40.651424
     -3.678679     20.935401     20.935401     41.870802
     -3.668669     23.086143     23.086143     46.172287
     -3.658659     26.865090     26.865090     53.730181
     -3.648649     31.858258     31.858258     63.716517
     -3.638639     37.240065     37.240065     74.480131
     -3.628629     42.011189     42.011189     84.022378
     -3.618619     45.293778     45.293778     90.587557
     -3.608609     46.567181     46.567181     93.134363
     -3.598599     45.761441     45.761441     91.522881
     -3.588589     43.199320     43.199320     86.398640
     -3.578579     39.442922     39.442922     78.885843
     -3.568569     35.120561     35.120561     70.241122
     -3.558559     30.785260     30.785260     61.570519
     -3.548549     26.821308     26.821308     53.642616
     -3.538539     23.399700     23.399700     46.799400
     -3.528529     20.486710     20.486710     40.973419
     -3.518519     17.909897     17.909897     35.819793
     -3.508509     15.467523     15.467523     30.935047
     -3.498498     13.041480     13.041480     26.082959
     -3.488488     10.665246     10.665246     21.330492
     -3.478478      8.519063      8.519063     17.038126
     -3.468468      6.860805      6.860805     13.721610
     -3.458458      5.927733      5.927733     11.855466
     -3.448448      5.847569      5.847569     11.695138
     -3.438438      6.584360      6.584360     13.168720
     -3.428428      7.931105      7.931105     15.862209
     -3.418418      9.553849      9.553849     19.107697
     -3.408408     11.084065     11.084065     22.168130
     -3.398398     12.239538     12.239538     24.479077
     -3.388388     12.933385     12.933385     25.866769
     -3.378378     13.323360     13.323360     26.646721
     -3.368368     13.772687     13.772687     27.545373
     -3.358358     14.732943     14.732943     29.465885
     -3.348348     16.594522     16.594522     33.189044
     -3.338338     19.557424     19.557424     39.114848
     -3.328328     23.553768     23.553768     47.107537
     -3.318318     28.226064     28.226064     56.452128
     -3.308308     32.956630     32.956630     65.913260
     -3.298298     36.954915     36.954915     73.909830
     -3.288288     39.415378     39.415378     78.830756
     -3.278278     39.733471     39.733471     79.466942
     -3.268268     37.717404     37.717404     75.434808
     -3.258258     33.699587     33.699587     67.399174
     -3.248248     28.474161     28.474161     56.948321
     -3.238238     23.064459     23.064459     46.128919
     -3.228228     18.409453     18.409453     36.818906
     -3.218218     15.096437     15.096437     30.192874
     -3.208208     13.239149     13.239149     26.478299
     -3.198198     12.530826     12.530826     25.061652
     -3.188188     12.432311     12.432311     24.864622
     -3.178178     12.414714     12.414714     24.829429
     -3.168168     12.170297     12.170297     24.340593
     -3.158158     11.726928     11.726928     23.453855
     -3.148148     11.438745     11.438745     22.877490
     -3.138138     11.864912     11.864912     23.729823
     -3.128128     13.577003     13.577003     27.154007
     -3.118118     16.948243     16.948243     33.896486
     -3.108108     21.979223     21.979223     43.958447
     -3.098098     28.211760     28.211760     56.423520
     -3.088088     34.772681     34.772681     69.545362
     -3.078078     40.560845     40.560845     81.121690
     -3.068068     44.538342     44.538342     89.076683
     -3.058058     46.029166     46.029166     92.058333
     -3.048048     44.904487     44.904487     89.808975
     -3.038038     41.572959     41.572959     83.145918
     -3.028028     36.787020     36.787020     73.574039
     -3.018018     31.368341     31.368341     62.736682
     -3.008008     25.987466     25.987466     51.974931
     -2.997998     21.084485     21.084485     42.168970
     -2.987988     16.926024     16.926024     33.852048
     -2.977978     13.721570     13.721570     27.443140
     -2.967968     11.709168     11.709168     23.418335
     -2.957958     11.159516     11.159516     22.319032
     -2.947948     12.301388     12.301388     24.602777
     -2.937938     15.207893     15.207893     30.415785
     -2.927928     19.694581     19.694581     39.389162
     -2.917918     25.275170     25.275170     50.550340
     -2.907908     31.205688     31.205688     62.411376
     -2.897898     36.622461     36.622461     73.244923
     -2.887888     40.743845     40.743845     81.487690
     -2.877878     43.071238     43.071238     86.142476
     -2.867868     43.511686     43.511686     87.023372
     -2.857858     42.366911     42.366911     84.733821
     -2.847848     40.187851     40.187851     80.375701
     -2.837838     37.555011     37.555011     75.110022
     -2.827828     34.880705     34.880705     69.761409
     -2.817818     32.318109     32.318109     64.636217
     -2.807808     29.807580     29.807580     59.615161
     -2.797798     27.220818     27.220818     54.441635
     -2.787788     24.515906     24.515906     49.031812
     -2.777778     21.816907     21.816907     43.633815
     -2.767768     19.379542     19.379542     38.759084
     -2.757758     17.472153     17.472153     34.944306
     -2.747748     16.249548     16.249548     32.499095
     -2.737738     15.698200     15.698200     31.396401
     -2.727728     15.683743     15.683743     31.367485
     -2.717718     16.064339     16.064339     32.128678
     -2.707708     16.789163     16.789163     33.578327
     -2.697698     17.910437     17.910437     35.820875
     -2.687688     19.497314     19.497314     38.994628
     -2.677678     21.511822     21.511822     43.023644
     -2.667668     23.740715     23.740715     47.481429
     -2.657658     25.844966     25.844966     51.689932
     -2.647648     27.509044     27.509044     55.018089
     -2.637638     28.599597     28.599597     57.199193
     -2.627628     29.230917     29.230917     58.461835
     -2.617618     29.693705     29.693705     59.387411
     -2.607608     30.292348     30.292348     60.584697
     -2.597598     31.190097     31.190097     62.380193
     -2.587588     32.344207     32.344207     64.688414
     -2.577578     33.543714     33.543714     67.087428
     -2.567568     34.498737     34.498737     68.997475
     -2.557558     34.919174     34.919174     69.838348
     -2.547548     34.560280     34.560280     69.120559
     -2.537538     33.258092     33.258092     66.516184
     -2.527528     30.984505     30.984505     61.969009
     -2.517518     27.916183     27.916183     55.832366
     -2.507508     24.470485     24.470485     48.940970
     -2.497497     21.256664     21.256664     42.513328
     -2.487487     18.930937     18.930937     37.861874
     -2.477477     18.001302     18.001302     36.002605
     -2.467467     18.663332     18.663332     37.326664
     -2.457457     20.740736     20.740736     41.481472
     -2.447447     23.760308     23.760308     47.520616
     -2.437437     27.132416     27.132416     54.264832
     -2.427427     30.361087     30.361087     60.722175
     -2.417417     33.192330     33.192330     66.384660
     -2.407407     35.634625     35.634625     71.269250
     -2.397397     37.843665     37.843665     75.687329
     -2.387387     39.929390     39.929390     79.858779
     -2.377377     41.785381     41.785381     83.570763
     -2.367367     43.035612     43.035612     86.071224
     -2.357357     43.140063     43.140063     86.280126
     -2.347347     41.621665     41.621665     83.243331
     -2.337337     38.311577     38.311577     76.623153
     -2.327327     33.494712     33.494712     66.989424
     -2.317317     27.884214     27.884214     55.768428
     -2.307307     22.436988     22.436988     44.873976
     -2.297297     18.094129     18.094129     36.188258
     -2.287287     15.551022     15.551022     31.102044
     -2.277277     15.129060     15.129060     30.258121
     -2.267267     16.764158     16.764158     33.528317
     -2.257257     20.082503     20.082503     40.165005
     -2.247247     24.517786     24.517786     49.035572
     -2.237237     29.430280     29.430280     58.860560
     -2.227227     34.202220     34.202220     68.404441
     -2.217217     38.298098     38.298098     76.596197
     -2.207207     41.292195     41.292195     82.584390
     -2.197197     42.878802     42.878802     85.757604
     -2.187187     42.886844     42.886844     85.773689
     -2.177177     41.311611     41.311611     82.623221
     -2.167167     38.351932     38.351932     76.703864
     -2.157157     34.416534     34.416534     68.833068
     -2.147147     30.061665     30.061665     60.123331
     -2.137137     25.854842     25.854842     51.709685
     -2.127127     22.210483     22.210483     44.420966
     -2.117117     19.275254     19.275254     38.550507
     -2.107107     16.924875     16.924875     33.849751
     -2.097097     14.875006     14.875006     29.750012
     -2.087087     12.845325     12.845325     25.690649
     -2.077077     10.690994     10.690994     21.381987
     -2.067067      8.443427      8.443427     16.886854
     -2.057057      6.259601      6.259601     12.519202
     -2.047047      4.326226      4.326226      8.652452
     -2.037037      2.775941      2.775941      5.551882
     -2.027027      1.650045      1.650045      3.300091
     -2.017017      0.908755      0.908755      1.817510
     -2.007007      0.467854      0.467854      0.935709
     -1.996997      0.237791      0.237791      0.475583
     -1.986987      0.151383      0.151383      0.302765
     -1.976977      0.178323      0.178323      0.356645
     -1.966967      0.331089      0.331089      0.662178
     -1.956957      0.666320      0.666320      1.332639
     -1.946947      1.281289      1.281289      2.562577
     -1.936937      2.301138      2.301138      4.602276
     -1.926927      3.852778      3.852778      7.705557
     -1.916917      6.027118      6.027118     12.054236
     -1.906907      8.839688      8.839688     17.679375
     -1.896897     12.204548     12.204548     24.409096
     -1.886887     15.932395     15.932395     31.864790
     -1.876877     19.752490     19.752490     39.504980
     -1.866867     23.348344     23.348344     46.696689
     -1.856857     26.397498     26.397498     52.794995
     -1.846847     28.614202     28.614202     57.228405
     -1.836837     29.797969     29.797969     59.595939
     -1.826827     29.881110     29.881110     59.762221
     -1.816817     28.952170     28.952170     57.904340
     -1.806807     27.229966     27.229966     54.459933
     -1.796797     24.986953     24.986953     49.973905
     -1.786787     22.456684     22.456684     44.913368
     -1.776777     19.777118     19.777118     39.554236
     -1.766767     17.000383     17.000383     34.000765
     -1.756757     14.154428     14.154428     28.308856
     -1.746747     11.308426     11.308426     22.616852
     -1.736737      8.597471      8.597471     17.194941
     -1.726727      6.196703      6.196703     12.393407
     -1.716717      4.270616      4.270616      8.541233
     -1.706707      2.933884      2.933884      5.867768
     -1.696697      2.242928      2.242928      4.485856
     -1.686687      2.210265      2.210265      4.420530
     -1.676677      2.817447      2.817447      5.634894
     -1.666667      4.006769      4.006769      8.013539
     -1.656657      5.652099      5.652099     11.304198
     -1.646647      7.531454      7.531454     15.062908
     -1.636637      9.333274      9.333274     18.666548
     -1.626627     10.716250     10.716250     21.432501
