# EIG2DOS: Utility for SIESTA to obtain the electronic density of states
#  E. Artacho, Apr 1999, A. Garcia, Apr 2012
#  Nick R. Papior, Feb 2017
# ------------------------------------------
# Eigenvalues calculated from a non-polarized calculation
# Eigenvalues read from siesta.EIG
# Kpoint weights read from siesta.KP
# Using smearing parameter:   0.0500
# Using 1000 points in the energy range
# Selected bands: 1 to: 2981
# Emin, Emax in file for selected band(s):    -27.0384844    218.3084920
# Nbands, Nspin, Nk   =   2981     1     1
# E_F                 =    -4.3004 eV --> (shifted to ZERO)
# Broadening          =     0.0500 eV
#
#        E            N(up)  (=)   N(down)         Ntot
     -5.000000     46.504460     46.504460     93.008921
     -4.989990     49.897058     49.897058     99.794116
     -4.979980     51.581936     51.581936    103.163872
     -4.969970     51.443629     51.443629    102.887259
     -4.959960     49.646851     49.646851     99.293703
     -4.949950     46.570103     46.570103     93.140205
     -4.939940     42.710322     42.710322     85.420644
     -4.929930     38.608319     38.608319     77.216637
     -4.919920     34.819619     34.819619     69.639239
     -4.909910     31.916353     31.916353     63.832707
     -4.899900     30.475051     30.475051     60.950101
     -4.889890     31.000509     31.000509     62.001018
     -4.879880     33.767296     33.767296     67.534592
     -4.869870     38.622209     38.622209     77.244418
     -4.859860     44.852047     44.852047     89.704093
     -4.849850     51.233361     51.233361    102.466721
     -4.839840     56.313637     56.313637    112.627275
     -4.829830     58.848651     58.848651    117.697302
     -4.819820     58.213444     58.213444    116.426888
     -4.809810     54.593520     54.593520    109.187041
     -4.799800     48.868024     48.868024     97.736048
     -4.789790     42.255216     42.255216     84.510431
     -4.779780     35.900685     35.900685     71.801370
     -4.769770     30.586180     30.586180     61.172361
     -4.759760     26.639928     26.639928     53.279855
     -4.749750     24.015190     24.015190     48.030379
     -4.739740     22.443075     22.443075     44.886150
     -4.729730     21.574124     21.574124     43.148249
     -4.719720     21.068285     21.068285     42.136569
     -4.709710     20.634411     20.634411     41.268821
     -4.699700     20.041174     20.041174     40.082349
     -4.689690     19.124888     19.124888     38.249776
     -4.679680     17.812785     17.812785     35.625570
     -4.669670     16.164826     16.164826     32.329651
     -4.659660     14.417276     14.417276     28.834552
     -4.649650     12.997554     12.997554     25.995108
     -4.639640     12.481573     12.481573     24.963146
     -4.629630     13.481626     13.481626     26.963252
     -4.619620     16.476808     16.476808     32.953617
     -4.609610     21.622800     21.622800     43.245601
     -4.599600     28.600453     28.600453     57.200906
     -4.589590     36.575150     36.575150     73.150301
     -4.579580     44.324223     44.324223     88.648446
     -4.569570     50.535029     50.535029    101.070058
     -4.559560     54.194584     54.194584    108.389169
     -4.549550     54.925773     54.925773    109.851546
     -4.539540     53.122810     53.122810    106.245621
     -4.529530     49.814499     49.814499     99.628997
     -4.519520     46.302928     46.302928     92.605855
     -4.509510     43.723850     43.723850     87.447701
     -4.499499     42.701647     42.701647     85.403294
     -4.489489     43.218416     43.218416     86.436831
     -4.479479     44.717734     44.717734     89.435469
     -4.469469     46.370935     46.370935     92.741871
     -4.459459     47.386363     47.386363     94.772726
     -4.449449     47.250096     47.250096     94.500191
     -4.439439     45.833751     45.833751     91.667503
     -4.429429     43.363965     43.363965     86.727930
     -4.419419     40.295185     40.295185     80.590370
     -4.409409     37.149423     37.149423     74.298847
     -4.399399     34.381059     34.381059     68.762118
     -4.389389     32.298869     32.298869     64.597738
     -4.379379     31.045541     31.045541     62.091083
     -4.369369     30.613554     30.613554     61.227109
     -4.359359     30.874931     30.874931     61.749861
     -4.349349     31.616463     31.616463     63.232925
     -4.339339     32.585792     32.585792     65.171584
     -4.329329     33.553005     33.553005     67.106011
     -4.319319     34.377319     34.377319     68.754638
     -4.309309     35.053591     35.053591     70.107182
     -4.299299     35.713827     35.713827     71.427655
     -4.289289     36.575590     36.575590     73.151180
     -4.279279     37.849745     37.849745     75.699490
     -4.269269     39.632946     39.632946     79.265892
     -4.259259     41.816265     41.816265     83.632529
     -4.249249     44.046237     44.046237     88.092473
     -4.239239     45.774020     45.774020     91.548040
     -4.229229     46.406566     46.406566     92.813132
     -4.219219     45.523996     45.523996     91.047992
     -4.209209     43.072911     43.072911     86.145822
     -4.199199     39.430894     39.430894     78.861787
     -4.189189     35.290330     35.290330     70.580660
     -4.179179     31.406927     31.406927     62.813855
     -4.169169     28.336656     28.336656     56.673311
     -4.159159     26.289865     26.289865     52.579730
     -4.149149     25.161122     25.161122     50.322244
     -4.139139     24.696445     24.696445     49.392890
     -4.129129     24.694127     24.694127     49.388253
     -4.119119     25.129543     25.129543     50.259085
     -4.109109     26.140237     26.140237     52.280474
     -4.099099     27.879366     27.879366     55.758732
     -4.089089     30.315032     30.315032     60.630064
     -4.079079     33.091924     33.091924     66.183847
     -4.069069     35.554608     35.554608     71.109217
     -4.059059     36.953770     36.953770     73.907541
     -4.049049     36.751101     36.751101     73.502201
     -4.039039     34.869243     34.869243     69.738486
     -4.029029     31.752243     31.752243     63.504486
     -4.019019     28.205135     28.205135     56.410269
     -4.009009     25.103717     25.103717     50.207433
     -3.998999     23.126899     23.126899     46.253799
     -3.988989     22.628366     22.628366     45.256732
     -3.978979     23.664915     23.664915     47.329831
     -3.968969     26.109175     26.109175     52.218351
     -3.958959     29.751570     29.751570     59.503140
     -3.948949     34.342308     34.342308     68.684616
     -3.938939     39.591180     39.591180     79.182361
     -3.928929     45.175700     45.175700     90.351400
     -3.918919     50.786347     50.786347    101.572694
     -3.908909     56.187290     56.187290    112.374581
     -3.898899     61.238707     61.238707    122.477413
     -3.888889     65.841877     65.841877    131.683754
     -3.878879     69.821917     69.821917    139.643834
     -3.868869     72.817810     72.817810    145.635620
     -3.858859     74.266214     74.266214    148.532428
     -3.848849     73.527771     73.527771    147.055542
     -3.838839     70.128483     70.128483    140.256967
     -3.828829     64.015535     64.015535    128.031071
     -3.818819     55.701389     55.701389    111.402778
     -3.808809     46.212153     46.212153     92.424306
     -3.798799     36.845740     36.845740     73.691481
     -3.788789     28.831844     28.831844     57.663688
     -3.778779     23.022436     23.022436     46.044872
     -3.768769     19.715404     19.715404     39.430808
     -3.758759     18.649925     18.649925     37.299850
     -3.748749     19.149328     19.149328     38.298656
     -3.738739     20.351190     20.351190     40.702379
     -3.728729     21.457076     21.457076     42.914151
     -3.718719     21.943397     21.943397     43.886793
     -3.708709     21.688759     21.688759     43.377518
     -3.698699     20.988884     20.988884     41.977767
     -3.688689     20.450617     20.450617     40.901234
     -3.678679     20.784734     20.784734     41.569468
     -3.668669     22.550242     22.550242     45.100485
     -3.658659     25.929746     25.929746     51.859493
     -3.648649     30.619364     30.619364     61.238727
     -3.638639     35.884765     35.884765     71.769530
     -3.628629     40.771207     40.771207     81.542414
     -3.618619     44.387371     44.387371     88.774743
     -3.608609     46.149540     46.149540     92.299081
     -3.598599     45.897411     45.897411     91.794822
     -3.588589     43.861328     43.861328     87.722657
     -3.578579     40.528109     40.528109     81.056217
     -3.568569     36.478439     36.478439     72.956878
     -3.558559     32.249080     32.249080     64.498160
     -3.548549     28.238325     28.238325     56.476650
     -3.538539     24.655466     24.655466     49.310932
     -3.528529     21.518233     21.518233     43.036467
     -3.518519     18.704741     18.704741     37.409482
     -3.508509     16.050796     16.050796     32.101591
     -3.498498     13.457244     13.457244     26.914488
     -3.488488     10.959954     10.959954     21.919908
     -3.478478      8.731711      8.731711     17.463422
     -3.468468      7.020027      7.020027     14.040054
     -3.458458      6.052843      6.052843     12.105685
     -3.448448      5.950133      5.950133     11.900265
     -3.438438      6.668458      6.668458     13.336916
     -3.428428      7.992435      7.992435     15.984871
     -3.418418      9.578950      9.578950     19.157901
     -3.408408     11.050913     11.050913     22.101825
     -3.398398     12.120119     12.120119     24.240239
     -3.388388     12.698174     12.698174     25.396348
     -3.378378     12.947108     12.947108     25.894215
     -3.368368     13.240419     13.240419     26.480838
     -3.358358     14.044610     14.044610     28.089221
     -3.348348     15.766930     15.766930     31.533861
     -3.338338     18.623647     18.623647     37.247294
     -3.328328     22.562328     22.562328     45.124656
     -3.318318     27.242244     27.242244     54.484489
     -3.308308     32.064379     32.064379     64.128758
     -3.298298     36.251625     36.251625     72.503251
     -3.288288     38.989340     38.989340     77.978679
     -3.278278     39.620047     39.620047     79.240094
     -3.268268     37.843488     37.843488     75.686977
     -3.258258     33.838180     33.838180     67.676359
     -3.248248     28.233329     28.233329     56.466658
     -3.238238     21.926137     21.926137     43.852275
     -3.228228     15.818925     15.818925     31.637850
     -3.218218     10.588576     10.588576     21.177152
     -3.208208      6.573744      6.573744     13.147487
     -3.198198      3.797214      3.797214      7.594428
     -3.188188      2.079233      2.079233      4.158467
     -3.178178      1.175037      1.175037      2.350075
     -3.168168      0.885547      0.885547      1.771094
     -3.158158      1.120751      1.120751      2.241501
     -3.148148      1.917587      1.917587      3.835174
     -3.138138      3.420187      3.420187      6.840374
     -3.128128      5.826990      5.826990     11.653980
     -3.118118      9.308653      9.308653     18.617306
     -3.108108     13.909949     13.909949     27.819899
     -3.098098     19.464545     19.464545     38.929090
     -3.088088     25.561107     25.561107     51.122214
     -3.078078     31.589388     31.589388     63.178775
     -3.068068     36.863401     36.863401     73.726803
     -3.058058     40.780093     40.780093     81.560187
     -3.048048     42.951005     42.951005     85.902010
     -3.038038     43.258779     43.258779     86.517557
     -3.028028     41.833383     41.833383     83.666767
     -3.018018     38.985538     38.985538     77.971075
     -3.008008     35.146443     35.146443     70.292885
     -2.997998     30.837088     30.837088     61.674175
     -2.987988     26.650639     26.650639     53.301277
     -2.977978     23.211625     23.211625     46.423250
     -2.967968     21.091310     21.091310     42.182619
     -2.957958     20.695070     20.695070     41.390141
     -2.947948     22.164513     22.164513     44.329027
     -2.937938     25.334542     25.334542     50.669083
     -2.927928     29.758992     29.758992     59.517984
     -2.917918     34.790397     34.790397     69.580795
     -2.907908     39.688920     39.688920     79.377840
     -2.897898     43.742497     43.742497     87.484994
     -2.887888     46.388602     46.388602     92.777204
     -2.877878     47.323270     47.323270     94.646541
     -2.867868     46.567892     46.567892     93.135784
     -2.857858     44.457630     44.457630     88.915260
     -2.847848     41.534412     41.534412     83.068824
     -2.837838     38.369811     38.369811     76.739622
     -2.827828     35.384549     35.384549     70.769099
     -2.817818     32.742631     32.742631     65.485262
     -2.807808     30.366607     30.366607     60.733214
     -2.797798     28.060488     28.060488     56.120975
     -2.787788     25.671624     25.671624     51.343247
     -2.777778     23.204392     23.204392     46.408784
     -2.767768     20.828322     20.828322     41.656644
     -2.757758     18.785115     18.785115     37.570231
     -2.747748     17.257561     17.257561     34.515121
     -2.737738     16.283907     16.283907     32.567814
     -2.727728     15.770494     15.770494     31.540988
     -2.717718     15.590971     15.590971     31.181943
     -2.707708     15.702369     15.702369     31.404738
     -2.697698     16.194746     16.194746     32.389493
     -2.687688     17.233421     17.233421     34.466841
     -2.677678     18.925226     18.925226     37.850452
     -2.667668     21.195671     21.195671     42.391341
     -2.657658     23.763457     23.763457     47.526913
     -2.647648     26.239458     26.239458     52.478916
     -2.637638     28.296131     28.296131     56.592262
     -2.627628     29.805237     29.805237     59.610474
     -2.617618     30.861650     30.861650     61.723300
     -2.607608     31.686335     31.686335     63.372671
     -2.597598     32.478503     32.478503     64.957005
     -2.587588     33.309758     33.309758     66.619516
     -2.577578     34.108859     34.108859     68.217717
     -2.567568     34.715183     34.715183     69.430365
     -2.557558     34.941491     34.941491     69.882981
     -2.547548     34.607735     34.607735     69.215470
     -2.537538     33.558440     33.558440     67.116880
     -2.527528     31.702485     31.702485     63.404970
     -2.517518     29.088989     29.088989     58.177979
     -2.507508     25.981164     25.981164     51.962328
     -2.497497     22.862450     22.862450     45.724901
     -2.487487     20.335656     20.335656     40.671312
     -2.477477     18.939417     18.939417     37.878834
     -2.467467     18.961671     18.961671     37.923343
     -2.457457     20.340151     20.340151     40.680303
     -2.447447     22.700459     22.700459     45.400917
     -2.437437     25.516817     25.516817     51.033634
     -2.427427     28.322601     28.322601     56.645203
     -2.417417     30.873936     30.873936     61.747872
     -2.407407     33.190570     33.190570     66.381141
     -2.397397     35.455166     35.455166     70.910333
     -2.387387     37.819901     37.819901     75.639802
     -2.377377     40.216769     40.216769     80.433538
     -2.367367     42.272019     42.272019     84.544037
     -2.357357     43.381291     43.381291     86.762581
     -2.347347     42.927363     42.927363     85.854726
     -2.337337     40.550401     40.550401     81.100803
     -2.327327     36.348403     36.348403     72.696806
     -2.317317     30.913767     30.913767     61.827533
     -2.307307     25.188582     25.188582     50.377163
     -2.297297     20.203932     20.203932     40.407863
     -2.287287     16.811260     16.811260     33.622520
     -2.277277     15.498871     15.498871     30.997742
     -2.267267     16.333826     16.333826     32.667652
     -2.257257     19.015929     19.015929     38.031858
     -2.247247     23.000802     23.000802     46.001604
     -2.237237     27.643712     27.643712     55.287424
     -2.227227     32.323226     32.323226     64.646453
     -2.217217     36.516935     36.516935     73.033871
     -2.207207     39.821683     39.821683     79.643366
     -2.197197     41.936748     41.936748     83.873496
     -2.187187     42.648075     42.648075     85.296149
     -2.177177     41.847720     41.847720     83.695439
     -2.167167     39.590263     39.590263     79.180526
     -2.157157     36.145707     36.145707     72.291415
     -2.147147     31.989781     31.989781     63.979562
     -2.137137     27.699395     27.699395     55.398790
     -2.127127     23.781443     23.781443     47.562887
     -2.117117     20.515373     20.515373     41.030745
     -2.107107     17.893154     17.893154     35.786307
     -2.097097     15.687903     15.687903     31.375806
     -2.087087     13.609026     13.609026     27.218052
     -2.077077     11.457019     11.457019     22.914037
     -2.067067      9.201982      9.201982     18.403964
     -2.057057      6.963225      6.963225     13.926449
     -2.047047      4.923531      4.923531      9.847061
     -2.037037      3.236556      3.236556      6.473112
     -2.027027      1.972469      1.972469      3.944939
     -2.017017      1.113963      1.113963      2.227925
     -2.007007      0.586972      0.586972      1.173943
     -1.996997      0.301284      0.301284      0.602568
     -1.986987      0.183167      0.183167      0.366335
     -1.976977      0.194431      0.194431      0.388863
     -1.966967      0.340612      0.340612      0.681224
     -1.956957      0.672058      0.672058      1.344117
     -1.946947      1.277869      1.277869      2.555738
     -1.936937      2.268691      2.268691      4.537381
     -1.926927      3.744815      3.744815      7.489629
     -1.916917      5.752615      5.752615     11.505230
     -1.906907      8.242367      8.242367     16.484735
     -1.896897     11.046919     11.046919     22.093839
     -1.886887     13.896849     13.896849     27.793698
     -1.876877     16.473284     16.473284     32.946567
     -1.866867     18.482612     18.482612     36.965224
     -1.856857     19.728354     19.728354     39.456708
     -1.846847     20.158323     20.158323     40.316646
     -1.836837     19.874283     19.874283     39.748565
     -1.826827     19.099615     19.099615     38.199229
     -1.816817     18.108293     18.108293     36.216585
     -1.806807     17.131235     17.131235     34.262469
     -1.796797     16.272867     16.272867     32.545733
     -1.786787     15.478138     15.478138     30.956276
     -1.776777     14.573721     14.573721     29.147441
     -1.766767     13.369113     13.369113     26.738226
     -1.756757     11.767595     11.767595     23.535191
     -1.746747      9.830585      9.830585     19.661170
     -1.736737      7.768268      7.768268     15.536536
     -1.726727      5.873257      5.873257     11.746515
     -1.716717      4.441174      4.441174      8.882349
     -1.706707      3.716262      3.716262      7.432524
     -1.696697      3.870655      3.870655      7.741310
     -1.686687      4.997566      4.997566      9.995132
     -1.676677      7.091979      7.091979     14.183959
     -1.666667     10.010903     10.010903     20.021806
     -1.656657     13.434602     13.434602     26.869205
     -1.646647     16.868787     16.868787     33.737575
     -1.636637     19.719329     19.719329     39.438659
     -1.626627     21.436304     21.436304     42.872609
