# EIG2DOS: Utility for SIESTA to obtain the electronic density of states
#  E. Artacho, Apr 1999, A. Garcia, Apr 2012
#  Nick R. Papior, Feb 2017
# ------------------------------------------
# Eigenvalues calculated from a non-polarized calculation
# Eigenvalues read from siesta.EIG
# Kpoint weights read from siesta.KP
# Using smearing parameter:   0.0500
# Using 1000 points in the energy range
# Selected bands: 1 to: 2981
# Emin, Emax in file for selected band(s):    -27.0564907    218.3190100
# Nbands, Nspin, Nk   =   2981     1     1
# E_F                 =    -4.2917 eV --> (shifted to ZERO)
# Broadening          =     0.0500 eV
#
#        E            N(up)  (=)   N(down)         Ntot
     -5.000000     43.925538     43.925538     87.851076
     -4.989990     45.566914     45.566914     91.133827
     -4.979980     46.384477     46.384477     92.768955
     -4.969970     46.318152     46.318152     92.636305
     -4.959960     45.316223     45.316223     90.632445
     -4.949950     43.393817     43.393817     86.787635
     -4.939940     40.691032     40.691032     81.382065
     -4.929930     37.506398     37.506398     75.012797
     -4.919920     34.298513     34.298513     68.597026
     -4.909910     31.656604     31.656604     63.313208
     -4.899900     30.233539     30.233539     60.467078
     -4.889890     30.625132     30.625132     61.250264
     -4.879880     33.190682     33.190682     66.381365
     -4.869870     37.852335     37.852335     75.704669
     -4.859860     43.963458     43.963458     87.926916
     -4.849850     50.351960     50.351960    100.703920
     -4.839840     55.587559     55.587559    111.175118
     -4.829830     58.407072     58.407072    116.814145
     -4.819820     58.126750     58.126750    116.253500
     -4.809810     54.852542     54.852542    109.705084
     -4.799800     49.392534     49.392534     98.785068
     -4.789790     42.926900     42.926900     85.853801
     -4.779780     36.603738     36.603738     73.207476
     -4.769770     31.237365     31.237365     62.474731
     -4.759760     27.198911     27.198911     54.397822
     -4.749750     24.477546     24.477546     48.955093
     -4.739740     22.824996     22.824996     45.649992
     -4.729730     21.897400     21.897400     43.794801
     -4.719720     21.349983     21.349983     42.699966
     -4.709710     20.881979     20.881979     41.763958
     -4.699700     20.252191     20.252191     40.504382
     -4.689690     19.290274     19.290274     38.580548
     -4.679680     17.921754     17.921754     35.843508
     -4.669670     16.209227     16.209227     32.418453
     -4.659660     14.393231     14.393231     28.786462
     -4.649650     12.903942     12.903942     25.807884
     -4.639640     12.317144     12.317144     24.634288
     -4.629630     13.243885     13.243885     26.487770
     -4.619620     16.165141     16.165141     32.330282
     -4.609610     21.245654     21.245654     42.491308
     -4.599600     28.183213     28.183213     56.366425
     -4.589590     36.163609     36.163609     72.327217
     -4.579580     43.979789     43.979789     87.959578
     -4.569570     50.321873     50.321873    100.643745
     -4.559560     54.163666     54.163666    108.327332
     -4.549550     55.103115     55.103115    110.206230
     -4.539540     53.507687     53.507687    107.015373
     -4.529530     50.388449     50.388449    100.776899
     -4.519520     47.046056     47.046056     94.092112
     -4.509510     44.633681     44.633681     89.267362
     -4.499499     43.811749     43.811749     87.623499
     -4.489489     44.615230     44.615230     89.230460
     -4.479479     46.550471     46.550471     93.100941
     -4.469469     48.841472     48.841472     97.682943
     -4.459459     50.701207     50.701207    101.402413
     -4.449449     51.525441     51.525441    103.050883
     -4.439439     50.971899     50.971899    101.943799
     -4.429429     48.953917     48.953917     97.907834
     -4.419419     45.607013     45.607013     91.214027
     -4.409409     41.267728     41.267728     82.535457
     -4.399399     36.457927     36.457927     72.915853
     -4.389389     31.834168     31.834168     63.668337
     -4.379379     28.070235     28.070235     56.140469
     -4.369369     25.688020     25.688020     51.376041
     -4.359359     24.902478     24.902478     49.804956
     -4.349349     25.559591     25.559591     51.119183
     -4.339339     27.208193     27.208193     54.416387
     -4.329329     29.279453     29.279453     58.558906
     -4.319319     31.294418     31.294418     62.588837
     -4.309309     33.011323     33.011323     66.022645
     -4.299299     34.460470     34.460470     68.920939
     -4.289289     35.868210     35.868210     71.736421
     -4.279279     37.511398     37.511398     75.022796
     -4.269269     39.556949     39.556949     79.113897
     -4.259259     41.936948     41.936948     83.873895
     -4.249249     44.302145     44.302145     88.604291
     -4.239239     46.085244     46.085244     92.170488
     -4.229229     46.676042     46.676042     93.352084
     -4.219219     45.658613     45.658613     91.317226
     -4.209209     43.010595     43.010595     86.021190
     -4.199199     39.158827     39.158827     78.317655
     -4.189189     34.846323     34.846323     69.692646
     -4.179179     30.865429     30.865429     61.730859
     -4.169169     27.787208     27.787208     55.574415
     -4.159159     25.816455     25.816455     51.632911
     -4.149149     24.827446     24.827446     49.654893
     -4.139139     24.537898     24.537898     49.075795
     -4.129129     24.715117     24.715117     49.430234
     -4.119119     25.304908     25.304908     50.609816
     -4.109109     26.420799     26.420799     52.841598
     -4.099099     28.202037     28.202037     56.404075
     -4.089089     30.616377     30.616377     61.232753
     -4.079079     33.321507     33.321507     66.643014
     -4.069069     35.683216     35.683216     71.366432
     -4.059059     36.973388     36.973388     73.946776
     -4.049049     36.668073     36.668073     73.336146
     -4.039039     34.696244     34.696244     69.392489
     -4.029029     31.505198     31.505198     63.010397
     -4.019019     27.907029     27.907029     55.814057
     -4.009009     24.791048     24.791048     49.582095
     -3.998999     22.851143     22.851143     45.702286
     -3.988989     22.447322     22.447322     44.894644
     -3.978979     23.625829     23.625829     47.251659
     -3.968969     26.231971     26.231971     52.463943
     -3.958959     30.021445     30.021445     60.042889
     -3.948949     34.715654     34.715654     69.431309
     -3.938939     40.011234     40.011234     80.022467
     -3.928929     45.589675     45.589675     91.179350
     -3.918919     51.156574     51.156574    102.313147
     -3.908909     56.493364     56.493364    112.986727
     -3.898899     61.472524     61.472524    122.945048
     -3.888889     66.000239     66.000239    132.000479
     -3.878879     69.901558     69.901558    139.803117
     -3.868869     72.815798     72.815798    145.631597
     -3.858859     74.185319     74.185319    148.370637
     -3.848849     73.382924     73.382924    146.765848
     -3.838839     69.948932     69.948932    139.897863
     -3.828829     63.839318     63.839318    127.678636
     -3.818819     55.563614     55.563614    111.127229
     -3.808809     46.132996     46.132996     92.265993
     -3.798799     36.824733     36.824733     73.649467
     -3.788789     28.851325     28.851325     57.702650
     -3.778779     23.057690     23.057690     46.115380
     -3.768769     19.745727     19.745727     39.491454
     -3.758759     18.665352     18.665352     37.330705
     -3.748749     19.150958     19.150958     38.301917
     -3.738739     20.346462     20.346462     40.692924
     -3.728729     21.453191     21.453191     42.906382
     -3.718719     21.942017     21.942017     43.884034
     -3.708709     21.683970     21.683970     43.367939
     -3.698699     20.969003     20.969003     41.938006
     -3.688689     20.403206     20.403206     40.806412
     -3.678679     20.703095     20.703095     41.406189
     -3.668669     22.438843     22.438843     44.877685
     -3.658659     25.805828     25.805828     51.611655
     -3.648649     30.509044     30.509044     61.018088
     -3.638639     35.814366     35.814366     71.628731
     -3.628629     40.757266     40.757266     81.514533
     -3.618619     44.430110     44.430110     88.860220
     -3.608609     46.233154     46.233154     92.466308
     -3.598599     45.996994     45.996994     91.993988
     -3.588589     43.952722     43.952722     87.905444
     -3.578579     40.595790     40.595790     81.191579
     -3.568569     36.518391     36.518391     73.036782
     -3.558559     32.266818     32.266818     64.533636
     -3.548549     28.244515     28.244515     56.489031
     -3.538539     24.661715     24.661715     49.323429
     -3.528529     21.534167     21.534167     43.068335
     -3.518519     18.736168     18.736168     37.472335
     -3.508509     16.098453     16.098453     32.196905
     -3.498498     13.516202     13.516202     27.032404
     -3.488488     11.020175     11.020175     22.040350
     -3.478478      8.780054      8.780054     17.560108
     -3.468468      7.043405      7.043405     14.086810
     -3.458458      6.041813      6.041813     12.083626
     -3.448448      5.902132      5.902132     11.804264
     -3.438438      6.589888      6.589888     13.179777
     -3.428428      7.898751      7.898751     15.797501
     -3.418418      9.491986      9.491986     18.983973
     -3.408408     10.993437     10.993437     21.986874
     -3.398398     12.108846     12.108846     24.217692
     -3.388388     12.737569     12.737569     25.475138
     -3.378378     13.026324     13.026324     26.052649
     -3.368368     13.334539     13.334539     26.669077
     -3.358358     14.119858     14.119858     28.239715
     -3.348348     15.788638     15.788638     31.577276
     -3.338338     18.565562     18.565562     37.131125
     -3.328328     22.415643     22.415643     44.831286
     -3.318318     27.021896     27.021896     54.043792
     -3.308308     31.809376     31.809376     63.618752
     -3.298298     36.017028     36.017028     72.034055
     -3.288288     38.830780     38.830780     77.661560
     -3.278278     39.576026     39.576026     79.152052
     -3.268268     37.923007     37.923007     75.846014
     -3.258258     34.019386     34.019386     68.038773
     -3.248248     28.473454     28.473454     56.946909
     -3.238238     22.177442     22.177442     44.354884
     -3.228228     16.043204     16.043204     32.086407
     -3.218218     10.764861     10.764861     21.529721
     -3.208208      6.698277      6.698277     13.396553
     -3.198198      3.878483      3.878483      7.756966
     -3.188188      2.132082      2.132082      4.264165
     -3.178178      1.216784      1.216784      2.433568
     -3.168168      0.934950      0.934950      1.869900
     -3.158158      1.198851      1.198851      2.397701
     -3.148148      2.048394      2.048394      4.096788
     -3.138138      3.629041      3.629041      7.258082
     -3.128128      6.135217      6.135217     12.270434
     -3.118118      9.724935      9.724935     19.449869
     -3.108108     14.421212     14.421212     28.842423
     -3.098098     20.030977     20.030977     40.061954
     -3.088088     26.119600     26.119600     52.239201
     -3.078078     32.066570     32.066570     64.133139
     -3.068068     37.194723     37.194723     74.389447
     -3.058058     40.927985     40.927985     81.855970
     -3.048048     42.915522     42.915522     85.831044
     -3.038038     43.078390     43.078390     86.156780
     -3.028028     41.578551     41.578551     83.157101
     -3.018018     38.749545     38.749545     77.499090
     -3.008008     35.035121     35.035121     70.070241
     -2.997998     30.954355     30.954355     61.908711
     -2.987988     27.075320     27.075320     54.150639
     -2.977978     23.966152     23.966152     47.932304
     -2.967968     22.112800     22.112800     44.225600
     -2.957958     21.826629     21.826629     43.653259
     -2.947948     23.181529     23.181529     46.363058
     -2.937938     26.005233     26.005233     52.010466
     -2.927928     29.918221     29.918221     59.836442
     -2.917918     34.394386     34.394386     68.788772
     -2.907908     38.825481     38.825481     77.650962
     -2.897898     42.593737     42.593737     85.187475
     -2.887888     45.166515     45.166515     90.333029
     -2.877878     46.208500     46.208500     92.417000
     -2.867868     45.674047     45.674047     91.348093
     -2.857858     43.826003     43.826003     87.652005
     -2.847848     41.149397     41.149397     82.298795
     -2.837838     38.180949     38.180949     76.361897
     -2.827828     35.325607     35.325607     70.651213
     -2.817818     32.745198     32.745198     65.490396
     -2.807808     30.369904     30.369904     60.739807
     -2.797798     28.019217     28.019217     56.038434
     -2.787788     25.561668     25.561668     51.123335
     -2.777778     23.024690     23.024690     46.049379
     -2.767768     20.597728     20.597728     41.195456
     -2.757758     18.534954     18.534954     37.069909
     -2.747748     17.022399     17.022399     34.044797
     -2.737738     16.093536     16.093536     32.187072
     -2.727728     15.645087     15.645087     31.290174
     -2.717718     15.539660     15.539660     31.079321
     -2.707708     15.724138     15.724138     31.448275
     -2.697698     16.280137     16.280137     32.560275
     -2.687688     17.366041     17.366041     34.732082
     -2.677678     19.082992     19.082992     38.165984
     -2.667668     21.352515     21.352515     42.705030
     -2.657658     23.892293     23.892293     47.784586
     -2.647648     26.316485     26.316485     52.632970
     -2.637638     28.305468     28.305468     56.610936
     -2.627628     29.742330     29.742330     59.484660
     -2.617618     30.734245     30.734245     61.468490
     -2.607608     31.512839     31.512839     63.025678
     -2.597598     32.284363     32.284363     64.568726
     -2.587588     33.122668     33.122668     66.245336
     -2.577578     33.953477     33.953477     67.906954
     -2.567568     34.608194     34.608194     69.216387
     -2.557558     34.888219     34.888219     69.776438
     -2.547548     34.601518     34.601518     69.203037
     -2.537538     33.583073     33.583073     67.166147
     -2.527528     31.736748     31.736748     63.473496
     -2.517518     29.111555     29.111555     58.223110
     -2.507508     25.974633     25.974633     51.949266
     -2.497497     22.816381     22.816381     45.632762
     -2.487487     20.249139     20.249139     40.498277
     -2.477477     18.823289     18.823289     37.646578
     -2.467467     18.839366     18.839366     37.678733
     -2.457457     20.245538     20.245538     40.491077
     -2.447447     22.671800     22.671800     45.343601
     -2.437437     25.587865     25.587865     51.175730
     -2.427427     28.513559     28.513559     57.027119
     -2.417417     31.185236     31.185236     62.370471
     -2.407407     33.601021     33.601021     67.202041
     -2.397397     35.924225     35.924225     71.848451
     -2.387387     38.293035     38.293035     76.586069
     -2.377377     40.633326     40.633326     81.266652
     -2.367367     42.575561     42.575561     85.151121
     -2.357357     43.531543     43.531543     87.063086
     -2.347347     42.910938     42.910938     85.821877
     -2.337337     40.386013     40.386013     80.772026
     -2.327327     36.083306     36.083306     72.166612
     -2.317317     30.611692     30.611692     61.223385
     -2.307307     24.913370     24.913370     49.826740
     -2.297297     20.004821     20.004821     40.009642
     -2.287287     16.714447     16.714447     33.428893
     -2.277277     15.506733     15.506733     31.013466
     -2.267267     16.430209     16.430209     32.860417
     -2.257257     19.174314     19.174314     38.348627
     -2.247247     23.192042     23.192042     46.384084
     -2.237237     27.840916     27.840916     55.681832
     -2.227227     32.503007     32.503007     65.006015
     -2.217217     36.658288     36.658288     73.316577
     -2.207207     39.905164     39.905164     79.810328
     -2.197197     41.946285     41.946285     83.892569
     -2.187187     42.575499     42.575499     85.150998
     -2.177177     41.697517     41.697517     83.395034
     -2.167167     39.381082     39.381082     78.762165
     -2.157157     35.906730     35.906730     71.813459
     -2.147147     31.752973     31.752973     63.505945
     -2.137137     27.490947     27.490947     54.981894
     -2.127127     23.615935     23.615935     47.231870
     -2.117117     20.394590     20.394590     40.789180
     -2.107107     17.809207     17.809207     35.618415
     -2.097097     15.628607     15.628607     31.257214
     -2.087087     13.563046     13.563046     27.126092
     -2.077077     11.416987     11.416987     22.833974
     -2.067067      9.165068      9.165068     18.330136
     -2.057057      6.929809      6.929809     13.859619
     -2.047047      4.895206      4.895206      9.790413
     -2.037037      3.214519      3.214519      6.429039
     -2.027027      1.956795      1.956795      3.913591
     -2.017017      1.103647      1.103647      2.207294
     -2.007007      0.580303      0.580303      1.160606
     -1.996997      0.296106      0.296106      0.592211
     -1.986987      0.176766      0.176766      0.353531
     -1.976977      0.183037      0.183037      0.366074
     -1.966967      0.318753      0.318753      0.637505
     -1.956957      0.632255      0.632255      1.264509
     -1.946947      1.211372      1.211372      2.422743
     -1.936937      2.167854      2.167854      4.335709
     -1.926927      3.607072      3.607072      7.214145
     -1.916917      5.584845      5.584845     11.169690
     -1.906907      8.063304      8.063304     16.126607
     -1.896897     10.885115     10.885115     21.770230
     -1.886887     13.783253     13.783253     27.566506
     -1.876877     16.430362     16.430362     32.860723
     -1.866867     18.514490     18.514490     37.028981
     -1.856857     19.816862     19.816862     39.633724
     -1.846847     20.267466     20.267466     40.534933
     -1.836837     19.961871     19.961871     39.923742
     -1.826827     19.131659     19.131659     38.263318
     -1.816817     18.070887     18.070887     36.141774
     -1.806807     17.035970     17.035970     34.071939
     -1.796797     16.154479     16.154479     32.308958
     -1.786787     15.386262     15.386262     30.772523
     -1.776777     14.563626     14.563626     29.127253
     -1.766767     13.498111     13.498111     26.996222
     -1.756757     12.102615     12.102615     24.205231
     -1.746747     10.466928     10.466928     20.933856
     -1.736737      8.850232      8.850232     17.700464
     -1.726727      7.598041      7.598041     15.196081
     -1.716717      7.024730      7.024730     14.049459
     -1.706707      7.310258      7.310258     14.620516
     -1.696697      8.445182      8.445182     16.890364
     -1.686687     10.235940     10.235940     20.471879
     -1.676677     12.362419     12.362419     24.724838
     -1.666667     14.464213     14.464213     28.928427
     -1.656657     16.223006     16.223006     32.446012
     -1.646647     17.412433     17.412433     34.824866
     -1.636637     17.906546     17.906546     35.813093
     -1.626627     17.663820     17.663820     35.327639
