# EIG2DOS: Utility for SIESTA to obtain the electronic density of states
#  E. Artacho, Apr 1999, A. Garcia, Apr 2012
#  Nick R. Papior, Feb 2017
# ------------------------------------------
# Eigenvalues calculated from a non-polarized calculation
# Eigenvalues read from siesta.EIG
# Kpoint weights read from siesta.KP
# Using smearing parameter:   0.0500
# Using 1000 points in the energy range
# Selected bands: 1 to: 2981
# Emin, Emax in file for selected band(s):    -27.3256402    218.3928170
# Nbands, Nspin, Nk   =   2981     1     1
# E_F                 =    -4.2038 eV --> (shifted to ZERO)
# Broadening          =     0.0500 eV
#
#        E            N(up)  (=)   N(down)         Ntot
     -5.000000     31.455802     31.455802     62.911604
     -4.989990     36.486845     36.486845     72.973691
     -4.979980     41.277924     41.277924     82.555847
     -4.969970     45.010603     45.010603     90.021206
     -4.959960     46.977777     46.977777     93.955555
     -4.949950     46.818798     46.818798     93.637596
     -4.939940     44.645818     44.645818     89.291636
     -4.929930     41.023426     41.023426     82.046853
     -4.919920     36.831355     36.831355     73.662710
     -4.909910     33.074793     33.074793     66.149586
     -4.899900     30.694363     30.694363     61.388726
     -4.889890     30.392703     30.392703     60.785407
     -4.879880     32.477779     32.477779     64.955559
     -4.869870     36.742983     36.742983     73.485965
     -4.859860     42.438304     42.438304     84.876608
     -4.849850     48.391459     48.391459     96.782918
     -4.839840     53.288449     53.288449    106.576898
     -4.829830     56.040580     56.040580    112.081161
     -4.819820     56.103302     56.103302    112.206604
     -4.809810     53.617656     53.617656    107.235312
     -4.799800     49.320839     49.320839     98.641679
     -4.789790     44.274960     44.274960     88.549920
     -4.779780     39.533202     39.533202     79.066405
     -4.769770     35.866242     35.866242     71.732484
     -4.759760     33.620095     33.620095     67.240190
     -4.749750     32.711541     32.711541     65.423081
     -4.739740     32.725574     32.725574     65.451148
     -4.729730     33.068616     33.068616     66.137231
     -4.719720     33.135733     33.135733     66.271466
     -4.709710     32.455491     32.455491     64.910982
     -4.699700     30.783433     30.783433     61.566866
     -4.689690     28.131891     28.131891     56.263782
     -4.679680     24.746970     24.746970     49.493940
     -4.669670     21.058614     21.058614     42.117227
     -4.659660     17.625741     17.625741     35.251482
     -4.649650     15.079917     15.079917     30.159834
     -4.639640     14.053419     14.053419     28.106838
     -4.629630     15.074473     15.074473     30.148947
     -4.619620     18.428183     18.428183     36.856367
     -4.609610     24.011635     24.011635     48.023270
     -4.599600     31.242764     31.242764     62.485529
     -4.589590     39.093727     39.093727     78.187453
     -4.579580     46.290176     46.290176     92.580352
     -4.569570     51.647146     51.647146    103.294292
     -4.559560     54.431332     54.431332    108.862665
     -4.549550     54.599369     54.599369    109.198739
     -4.539540     52.797288     52.797288    105.594576
     -4.529530     50.107506     50.107506    100.215012
     -4.519520     47.643945     47.643945     95.287891
     -4.509510     46.162207     46.162207     92.324413
     -4.499499     45.838163     45.838163     91.676325
     -4.489489     46.286741     46.286741     92.573483
     -4.479479     46.786769     46.786769     93.573538
     -4.469469     46.597554     46.597554     93.195107
     -4.459459     45.231057     45.231057     90.462115
     -4.449449     42.583120     42.583120     85.166239
     -4.439439     38.903234     38.903234     77.806467
     -4.429429     34.655482     34.655482     69.310964
     -4.419419     30.358426     30.358426     60.716852
     -4.409409     26.475680     26.475680     52.951360
     -4.399399     23.377033     23.377033     46.754065
     -4.389389     21.338559     21.338559     42.677118
     -4.379379     20.533699     20.533699     41.067398
     -4.369369     20.994194     20.994194     41.988388
     -4.359359     22.565487     22.565487     45.130975
     -4.349349     24.906698     24.906698     49.813396
     -4.339339     27.568168     27.568168     55.136337
     -4.329329     30.131436     30.131436     60.262872
     -4.319319     32.352155     32.352155     64.704311
     -4.309309     34.236283     34.236283     68.472565
     -4.299299     36.008146     36.008146     72.016292
     -4.289289     37.976729     37.976729     75.953458
     -4.279279     40.349292     40.349292     80.698585
     -4.269269     43.065378     43.065378     86.130755
     -4.259259     45.725176     45.725176     91.450353
     -4.249249     47.661563     47.661563     95.323127
     -4.239239     48.153427     48.153427     96.306854
     -4.229229     46.710880     46.710880     93.421760
     -4.219219     43.312194     43.312194     86.624387
     -4.209209     38.475314     38.475314     76.950628
     -4.199199     33.115735     33.115735     66.231470
     -4.189189     28.245902     28.245902     56.491804
     -4.179179     24.649728     24.649728     49.299456
     -4.169169     22.673210     22.673210     45.346420
     -4.159159     22.207619     22.207619     44.415238
     -4.149149     22.846594     22.846594     45.693189
     -4.139139     24.124224     24.124224     48.248447
     -4.129129     25.718042     25.718042     51.436085
     -4.119119     27.529017     27.529017     55.058035
     -4.109109     29.611631     29.611631     59.223262
     -4.099099     31.997886     31.997886     63.995771
     -4.089089     34.514536     34.514536     69.029071
     -4.079079     36.706709     36.706709     73.413418
     -4.069069     37.935952     37.935952     75.871903
     -4.059059     37.628194     37.628194     75.256389
     -4.049049     35.555086     35.555086     71.110173
     -4.039039     32.000281     32.000281     64.000561
     -4.029029     27.717653     27.717653     55.435307
     -4.019019     23.699452     23.699452     47.398904
     -4.009009     20.868769     20.868769     41.737538
     -3.998999     19.835075     19.835075     39.670151
     -3.988989     20.798451     20.798451     41.596903
     -3.978979     23.601339     23.601339     47.202679
     -3.968969     27.862193     27.862193     55.724386
     -3.958959     33.113884     33.113884     66.227768
     -3.948949     38.902369     38.902369     77.804737
     -3.938939     44.843234     44.843234     89.686467
     -3.928929     50.652877     50.652877    101.305754
     -3.918919     56.160080     56.160080    112.320160
     -3.908909     61.283597     61.283597    122.567195
     -3.898899     65.960967     65.960967    131.921935
     -3.888889     70.042409     70.042409    140.084818
     -3.878879     73.201305     73.201305    146.402610
     -3.868869     74.926055     74.926055    149.852109
     -3.858859     74.628852     74.628852    149.257705
     -3.848849     71.847780     71.847780    143.695560
     -3.838839     66.463936     66.463936    132.927872
     -3.828829     58.837571     58.837571    117.675142
     -3.818819     49.796643     49.796643     99.593286
     -3.808809     40.471728     40.471728     80.943456
     -3.798799     32.032021     32.032021     64.064043
     -3.788789     25.410816     25.410816     50.821632
     -3.778779     21.104945     21.104945     42.209891
     -3.768769     19.099748     19.099748     38.199495
     -3.758759     18.928050     18.928050     37.856099
     -3.748749     19.835468     19.835468     39.670937
     -3.738739     21.003013     21.003013     42.006026
     -3.728729     21.771081     21.771081     43.542163
     -3.718719     21.812516     21.812516     43.625032
     -3.708709     21.213344     21.213344     42.426687
     -3.698699     20.437379     20.437379     40.874759
     -3.688689     20.175517     20.175517     40.351033
     -3.678679     21.111590     21.111590     42.223180
     -3.668669     23.668626     23.668626     47.337252
     -3.658659     27.819589     27.819589     55.639178
     -3.648649     33.039131     33.039131     66.078261
     -3.638639     38.428449     38.428449     76.856898
     -3.628629     42.975450     42.975450     85.950900
     -3.618619     45.850587     45.850587     91.701175
     -3.608609     46.622798     46.622798     93.245597
     -3.598599     45.323105     45.323105     90.646209
     -3.588589     42.359377     42.359377     84.718754
     -3.578579     38.346272     38.346272     76.692545
     -3.568569     33.926853     33.926853     67.853705
     -3.558559     29.634272     29.634272     59.268543
     -3.548549     25.807527     25.807527     51.615054
     -3.538539     22.561086     22.561086     45.122173
     -3.528529     19.810565     19.810565     39.621130
     -3.518519     17.353700     17.353700     34.707400
     -3.508509     14.986449     14.986449     29.972897
     -3.498498     12.611516     12.611516     25.223031
     -3.488488     10.294099     10.294099     20.588199
     -3.478478      8.244608      8.244608     16.489216
     -3.468468      6.743908      6.743908     13.487816
     -3.458458      6.048788      6.048788     12.097575
     -3.448448      6.313352      6.313352     12.626704
     -3.438438      7.545512      7.545512     15.091024
     -3.428428      9.602677      9.602677     19.205355
     -3.418418     12.223754     12.223754     24.447508
     -3.408408     15.090383     15.090383     30.180765
     -3.398398     17.903249     17.903249     35.806499
     -3.388388     20.451915     20.451915     40.903831
     -3.378378     22.657324     22.657324     45.314647
     -3.368368     24.577349     24.577349     49.154698
     -3.358358     26.379112     26.379112     52.758224
     -3.348348     28.286356     28.286356     56.572711
     -3.338338     30.505444     30.505444     61.010888
     -3.328328     33.131846     33.131846     66.263692
     -3.318318     36.052859     36.052859     72.105718
     -3.308308     38.887867     38.887867     77.775733
     -3.298298     41.020877     41.020877     82.041754
     -3.288288     41.755783     41.755783     83.511566
     -3.278278     40.561790     40.561790     81.123579
     -3.268268     37.310180     37.310180     74.620359
     -3.258258     32.384345     32.384345     64.768689
     -3.248248     26.596716     26.596716     53.193432
     -3.238238     20.941478     20.941478     41.882955
     -3.228228     16.290414     16.290414     32.580829
     -3.218218     13.155153     13.155153     26.310305
     -3.208208     11.593737     11.593737     23.187475
     -3.198198     11.271437     11.271437     22.542875
     -3.188188     11.633365     11.633365     23.266730
     -3.178178     12.123084     12.123084     24.246169
     -3.168168     12.379282     12.379282     24.758563
     -3.158158     12.353029     12.353029     24.706059
     -3.148148     12.310334     12.310334     24.620668
     -3.138138     12.718583     12.718583     25.437167
     -3.128128     14.053560     14.053560     28.107120
     -3.118118     16.592088     16.592088     33.184176
     -3.108108     20.263226     20.263226     40.526453
     -3.098098     24.614998     24.614998     49.229996
     -3.088088     28.917084     28.917084     57.834168
     -3.078078     32.370871     32.370871     64.741741
     -3.068068     34.352066     34.352066     68.704131
     -3.058058     34.590045     34.590045     69.180090
     -3.048048     33.210433     33.210433     66.420866
     -3.038038     30.630216     30.630216     61.260432
     -3.028028     27.367313     27.367313     54.734625
     -3.018018     23.865730     23.865730     47.731460
     -3.008008     20.418002     20.418002     40.836005
     -2.997998     17.201869     17.201869     34.403738
     -2.987988     14.381436     14.381436     28.762872
     -2.977978     12.195304     12.195304     24.390609
     -2.967968     10.974814     10.974814     21.949628
     -2.957958     11.081486     11.081486     22.162972
     -2.947948     12.791971     12.791971     25.583942
     -2.937938     16.175483     16.175483     32.350965
     -2.927928     21.007132     21.007132     42.014264
     -2.917918     26.751236     26.751236     53.502472
     -2.907908     32.634229     32.634229     65.268458
     -2.897898     37.803029     37.803029     75.606058
     -2.887888     41.531788     41.531788     83.063575
     -2.877878     43.410268     43.410268     86.820537
     -2.867868     43.440199     43.440199     86.880398
     -2.857858     41.994215     41.994215     83.988430
     -2.847848     39.648613     39.648613     79.297226
     -2.837838     36.959926     36.959926     73.919852
     -2.827828     34.283922     34.283922     68.567845
     -2.817818     31.715004     31.715004     63.430007
     -2.807808     29.162073     29.162073     58.324147
     -2.797798     26.506485     26.506485     53.012970
     -2.787788     23.748006     23.748006     47.496012
     -2.777778     21.058143     21.058143     42.116286
     -2.767768     18.718201     18.718201     37.436401
     -2.757758     16.987846     16.987846     33.975692
     -2.747748     15.988609     15.988609     31.977219
     -2.737738     15.673135     15.673135     31.346270
     -2.727728     15.893501     15.893501     31.787001
     -2.717718     16.516287     16.516287     33.032575
     -2.707708     17.500943     17.500943     35.001885
     -2.697698     18.883967     18.883967     37.767935
     -2.687688     20.679818     20.679818     41.359635
     -2.677678     22.774018     22.774018     45.548037
     -2.667668     24.897206     24.897206     49.794413
     -2.657658     26.716609     26.716609     53.433218
     -2.647648     27.997494     27.997494     55.994988
     -2.637638     28.731698     28.731698     57.463396
     -2.627628     29.145981     29.145981     58.291961
     -2.617618     29.580485     29.580485     59.160971
     -2.607608     30.310917     30.310917     60.621834
     -2.597598     31.417277     31.417277     62.834554
     -2.587588     32.760143     32.760143     65.520287
     -2.577578     34.050583     34.050583     68.101166
     -2.567568     34.951142     34.951142     69.902283
     -2.557558     35.154034     35.154034     70.308067
     -2.547548     34.428481     34.428481     68.856962
     -2.537538     32.663719     32.663719     65.327439
     -2.527528     29.926272     29.926272     59.852543
     -2.517518     26.511917     26.511917     53.023833
     -2.507508     22.944770     22.944770     45.889541
     -2.497497     19.887836     19.887836     39.775672
     -2.487487     17.975428     17.975428     35.950856
     -2.477477     17.625558     17.625558     35.251116
     -2.467467     18.908967     18.908967     37.817934
     -2.457457     21.532090     21.532090     43.064181
     -2.447447     24.945535     24.945535     49.891070
     -2.437437     28.538041     28.538041     57.076083
     -2.427427     31.838372     31.838372     63.676744
     -2.417417     34.640023     34.640023     69.280045
     -2.407407     36.993153     36.993153     73.986305
     -2.397397     39.066824     39.066824     78.133648
     -2.387387     40.948631     40.948631     81.897261
     -2.377377     42.486616     42.486616     84.973232
     -2.367367     43.266317     43.266317     86.532635
     -2.357357     42.752631     42.752631     85.505262
     -2.347347     40.539516     40.539516     81.079033
     -2.337337     36.587242     36.587242     73.174484
     -2.327327     31.326932     31.326932     62.653865
     -2.317317     25.579289     25.579289     51.158579
     -2.307307     20.328557     20.328557     40.657114
     -2.297297     16.456649     16.456649     32.913298
     -2.287287     14.542460     14.542460     29.084920
     -2.277277     14.779813     14.779813     29.559626
     -2.267267     17.005632     17.005632     34.011264
     -2.257257     20.793515     20.793515     41.587030
     -2.247247     25.565075     25.565075     51.130149
     -2.237237     30.688112     30.688112     61.376223
     -2.227227     35.549497     35.549497     71.098995
     -2.217217     39.603682     39.603682     79.207363
     -2.207207     42.405677     42.405677     84.811355
     -2.197197     43.641404     43.641404     87.282808
     -2.187187     43.165629     43.165629     86.331259
     -2.177177     41.044725     41.044725     82.089449
     -2.167167     37.581543     37.581543     75.163086
     -2.157157     33.287414     33.287414     66.574828
     -2.147147     28.778689     28.778689     57.557378
     -2.137137     24.614871     24.614871     49.229741
     -2.127127     21.139826     21.139826     42.279651
     -2.117117     18.402370     18.402370     36.804739
     -2.107107     16.199094     16.199094     32.398187
     -2.097097     14.217729     14.217729     28.435459
     -2.087087     12.206035     12.206035     24.412071
     -2.077077     10.084400     10.084400     20.168800
     -2.067067      7.961251      7.961251     15.922501
     -2.057057      6.067116      6.067116     12.134231
     -2.047047      4.657792      4.657792      9.315584
     -2.037037      3.933387      3.933387      7.866775
     -2.027027      3.991424      3.991424      7.982848
     -2.017017      4.806270      4.806270      9.612540
     -2.007007      6.222485      6.222485     12.444969
     -1.996997      7.963556      7.963556     15.927113
     -1.986987      9.671197      9.671197     19.342393
     -1.976977     10.985986     10.985986     21.971971
     -1.966967     11.656036     11.656036     23.312071
     -1.956957     11.633171     11.633171     23.266342
     -1.946947     11.108306     11.108306     22.216611
     -1.936937     10.459296     10.459296     20.918591
     -1.926927     10.124736     10.124736     20.249473
     -1.916917     10.452295     10.452295     20.904590
     -1.906907     11.580770     11.580770     23.161541
     -1.896897     13.397805     13.397805     26.795609
     -1.886887     15.582012     15.582012     31.164023
     -1.876877     17.706682     17.706682     35.413364
     -1.866867     19.365288     19.365288     38.730575
     -1.856857     20.279832     20.279832     40.559664
     -1.846847     20.365351     20.365351     40.730703
     -1.836837     19.737869     19.737869     39.475738
     -1.826827     18.664330     18.664330     37.328660
     -1.816817     17.464938     17.464938     34.929875
     -1.806807     16.395188     16.395188     32.790376
     -1.796797     15.551295     15.551295     31.102589
     -1.786787     14.843216     14.843216     29.686433
     -1.776777     14.053312     14.053312     28.106623
     -1.766767     12.954857     12.954857     25.909714
     -1.756757     11.430701     11.430701     22.861402
     -1.746747      9.533066      9.533066     19.066132
     -1.736737      7.461685      7.461685     14.923369
     -1.726727      5.484101      5.484101     10.968203
     -1.716717      3.848113      3.848113      7.696227
     -1.706707      2.728539      2.728539      5.457077
     -1.696697      2.219613      2.219613      4.439226
     -1.686687      2.353918      2.353918      4.707835
     -1.676677      3.117276      3.117276      6.234551
     -1.666667      4.440330      4.440330      8.880660
     -1.656657      6.171908      6.171908     12.343816
     -1.646647      8.060885      8.060885     16.121771
     -1.636637      9.777852      9.777852     19.555704
     -1.626627     10.990147     10.990147     21.980293
