# EIG2DOS: Utility for SIESTA to obtain the electronic density of states
#  E. Artacho, Apr 1999, A. Garcia, Apr 2012
#  Nick R. Papior, Feb 2017
# ------------------------------------------
# Eigenvalues calculated from a non-polarized calculation
# Eigenvalues read from siesta.EIG
# Kpoint weights read from siesta.KP
# Using smearing parameter:   0.0500
# Using 1000 points in the energy range
# Selected bands: 1 to: 2981
# Emin, Emax in file for selected band(s):    -27.1041173    218.3306130
# Nbands, Nspin, Nk   =   2981     1     1
# E_F                 =    -4.2769 eV --> (shifted to ZERO)
# Broadening          =     0.0500 eV
#
#        E            N(up)  (=)   N(down)         Ntot
     -5.000000     38.771549     38.771549     77.543097
     -4.989990     40.755471     40.755471     81.510942
     -4.979980     42.442806     42.442806     84.885611
     -4.969970     43.447900     43.447900     86.895799
     -4.959960     43.450177     43.450177     86.900355
     -4.949950     42.310830     42.310830     84.621659
     -4.939940     40.129670     40.129670     80.259339
     -4.929930     37.241030     37.241030     74.482061
     -4.919920     34.170335     34.170335     68.340669
     -4.909910     31.571402     31.571402     63.142804
     -4.899900     30.143908     30.143908     60.287816
     -4.889890     30.511380     30.511380     61.022761
     -4.879880     33.047865     33.047865     66.095729
     -4.869870     37.684683     37.684683     75.369366
     -4.859860     43.783546     43.783546     87.567092
     -4.849850     50.180416     50.180416    100.360832
     -4.839840     55.449970     55.449970    110.899939
     -4.829830     58.327349     58.327349    116.654698
     -4.819820     58.119303     58.119303    116.238605
     -4.809810     54.917188     54.917188    109.834376
     -4.799800     49.514954     49.514954     99.029907
     -4.789790     43.084367     43.084367     86.168734
     -4.779780     36.772940     36.772940     73.545880
     -4.769770     31.400422     31.400422     62.800843
     -4.759760     27.345407     27.345407     54.690813
     -4.749750     24.603040     24.603040     49.206079
     -4.739740     22.928126     22.928126     45.856253
     -4.729730     21.977650     21.977650     43.955300
     -4.719720     21.406909     21.406909     42.813819
     -4.709710     20.915633     20.915633     41.831267
     -4.699700     20.264188     20.264188     40.528375
     -4.689690     19.285354     19.285354     38.570709
     -4.679680     17.909907     17.909907     35.819815
     -4.669670     16.207857     16.207857     32.415714
     -4.659660     14.427740     14.427740     28.855481
     -4.649650     13.004231     13.004231     26.008463
     -4.639640     12.508077     12.508077     25.016155
     -4.629630     13.530386     13.530386     27.060771
     -4.619620     16.516952     16.516952     33.033905
     -4.609610     21.590797     21.590797     43.181594
     -4.599600     28.419256     28.419256     56.838513
     -4.589590     36.189414     36.189414     72.378827
     -4.579580     43.738963     43.738963     87.477925
     -4.569570     49.839634     49.839634     99.679268
     -4.559560     53.559281     53.559281    107.118561
     -4.549550     54.572749     54.572749    109.145498
     -4.539540     53.289745     53.289745    106.579489
     -4.529530     50.732033     50.732033    101.464065
     -4.519520     48.194808     48.194808     96.389615
     -4.509510     46.816581     46.816581     93.633162
     -4.499499     47.215291     47.215291     94.430582
     -4.489489     49.314433     49.314433     98.628866
     -4.479479     52.404096     52.404096    104.808193
     -4.469469     55.396208     55.396208    110.792415
     -4.459459     57.173862     57.173862    114.347724
     -4.449449     56.916961     56.916961    113.833921
     -4.439439     54.309155     54.309155    108.618310
     -4.429429     49.581750     49.581750     99.163499
     -4.419419     43.409037     43.409037     86.818074
     -4.409409     36.713513     36.713513     73.427026
     -4.399399     30.451654     30.451654     60.903308
     -4.389389     25.432136     25.432136     50.864271
     -4.379379     22.188166     22.188166     44.376332
     -4.369369     20.907302     20.907302     41.814604
     -4.359359     21.422610     21.422610     42.845220
     -4.349349     23.274196     23.274196     46.548391
     -4.339339     25.840984     25.840984     51.681968
     -4.329329     28.515930     28.515930     57.031860
     -4.319319     30.871150     30.871150     61.742300
     -4.309309     32.755144     32.755144     65.510289
     -4.299299     34.289097     34.289097     68.578193
     -4.289289     35.768469     35.768469     71.536939
     -4.279279     37.507437     37.507437     75.014873
     -4.269269     39.676278     39.676278     79.352556
     -4.259259     42.181219     42.181219     84.362438
     -4.249249     44.630792     44.630792     89.261584
     -4.239239     46.418877     46.418877     92.837754
     -4.229229     46.919803     46.919803     93.839606
     -4.219219     45.735831     45.735831     91.471661
     -4.209209     42.890664     42.890664     85.781329
     -4.199199     38.865695     38.865695     77.731391
     -4.189189     34.444616     34.444616     68.889232
     -4.179179     30.433233     30.433233     60.866467
     -4.169169     27.390055     27.390055     54.780110
     -4.159159     25.493507     25.493507     50.987013
     -4.149149     24.591916     24.591916     49.183832
     -4.139139     24.385984     24.385984     48.771967
     -4.129129     24.635372     24.635372     49.270744
     -4.119119     25.282981     25.282981     50.565962
     -4.109109     26.439485     26.439485     52.878970
     -4.099099     28.240093     28.240093     56.480186
     -4.089089     30.649803     30.649803     61.299606
     -4.079079     33.328506     33.328506     66.657012
     -4.069069     35.650752     35.650752     71.301504
     -4.059059     36.901550     36.901550     73.803099
     -4.049049     36.569412     36.569412     73.138825
     -4.039039     34.590308     34.590308     69.180616
     -4.029029     31.411388     31.411388     62.822776
     -4.019019     27.839603     27.839603     55.679206
     -4.009009     24.758127     24.758127     49.516254
     -3.998999     22.856660     22.856660     45.713319
     -3.988989     22.493193     22.493193     44.986385
     -3.978979     23.712306     23.712306     47.424612
     -3.968969     26.356283     26.356283     52.712565
     -3.958959     30.176651     30.176651     60.353302
     -3.948949     34.891711     34.891711     69.783422
     -3.938939     40.198593     40.198593     80.397185
     -3.928929     45.783610     45.783610     91.567221
     -3.918919     51.359307     51.359307    102.718613
     -3.908909     56.711904     56.711904    113.423809
     -3.898899     61.712533     61.712533    123.425066
     -3.888889     66.258719     66.258719    132.517438
     -3.878879     70.162184     70.162184    140.324368
     -3.868869     73.049540     73.049540    146.099080
     -3.858859     74.356457     74.356457    148.712915
     -3.848849     73.458263     73.458263    146.916526
     -3.838839     69.907086     69.907086    139.814173
     -3.828829     63.677343     63.677343    127.354686
     -3.818819     55.299159     55.299159    110.598319
     -3.808809     45.801209     45.801209     91.602417
     -3.798799     36.470424     36.470424     72.940848
     -3.788789     28.518524     28.518524     57.037047
     -3.778779     22.779918     22.779918     45.559837
     -3.768769     19.540162     19.540162     39.080324
     -3.758759     18.532338     18.532338     37.064675
     -3.748749     19.078089     19.078089     38.156178
     -3.738739     20.314995     20.314995     40.629991
     -3.728729     21.444446     21.444446     42.888891
     -3.718719     21.942245     21.942245     43.884490
     -3.708709     21.687079     21.687079     43.374159
     -3.698699     20.976983     20.976983     41.953966
     -3.688689     20.424304     20.424304     40.848608
     -3.678679     20.748067     20.748067     41.496134
     -3.668669     22.516163     22.516163     45.032327
     -3.658659     25.917367     25.917367     51.834734
     -3.648649     30.647907     30.647907     61.295814
     -3.638639     35.965886     35.965886     71.931772
     -3.628629     40.902717     40.902717     81.805434
     -3.618619     44.551309     44.551309     89.102618
     -3.608609     46.315840     46.315840     92.631680
     -3.598599     46.031945     46.031945     92.063890
     -3.588589     43.935301     43.935301     87.870603
     -3.578579     40.525545     40.525545     81.051090
     -3.568569     36.399698     36.399698     72.799397
     -3.558559     32.110002     32.110002     64.220005
     -3.548549     28.065834     28.065834     56.131668
     -3.538539     24.481015     24.481015     48.962031
     -3.528529     21.370585     21.370585     42.741170
     -3.518519     18.603601     18.603601     37.207202
     -3.508509     16.002768     16.002768     32.005537
     -3.498498     13.455110     13.455110     26.910221
     -3.488488     10.985387     10.985387     21.970774
     -3.478478      8.760498      8.760498     17.520996
     -3.468468      7.028290      7.028290     14.056581
     -3.458458      6.022903      6.022903     12.045805
     -3.448448      5.875131      5.875131     11.750262
     -3.438438      6.555077      6.555077     13.110154
     -3.428428      7.860842      7.860842     15.721685
     -3.418418      9.459042      9.459042     18.918084
     -3.408408     10.974788     10.974788     21.949576
     -3.398398     12.112405     12.112405     24.224810
     -3.388388     12.767314     12.767314     25.534629
     -3.378378     13.080807     13.080807     26.161613
     -3.368368     13.406885     13.406885     26.813770
     -3.358358     14.199242     14.199242     28.398484
     -3.348348     15.862813     15.862813     31.725626
     -3.338338     18.623884     18.623884     37.247769
     -3.328328     22.451847     22.451847     44.903694
     -3.318318     27.035690     27.035690     54.071381
     -3.308308     31.806022     31.806022     63.612043
     -3.298298     36.004776     36.004776     72.009553
     -3.288288     38.817207     38.817207     77.634413
     -3.278278     39.565079     39.565079     79.130159
     -3.268268     37.914294     37.914294     75.828589
     -3.258258     34.009869     34.009869     68.019738
     -3.248248     28.460336     28.460336     56.920673
     -3.238238     22.160662     22.160662     44.321323
     -3.228228     16.026910     16.026910     32.053820
     -3.218218     10.758907     10.758907     21.517814
     -3.208208      6.722177      6.722177     13.444355
     -3.198198      3.970763      3.970763      7.941527
     -3.188188      2.367055      2.367055      4.734111
     -3.178178      1.727981      1.727981      3.455962
     -3.168168      1.939102      1.939102      3.878204
     -3.158158      3.007129      3.007129      6.014258
     -3.148148      5.046051      5.046051     10.092101
     -3.138138      8.206719      8.206719     16.413439
     -3.128128     12.570435     12.570435     25.140869
     -3.118118     18.039133     18.039133     36.078266
     -3.108108     24.264772     24.264772     48.529545
     -3.098098     30.657788     30.657788     61.315576
     -3.088088     36.491481     36.491481     72.982963
     -3.078078     41.079698     41.079698     82.159396
     -3.068068     43.965756     43.965756     87.931513
     -3.058058     45.043039     45.043039     90.086079
     -3.048048     44.547534     44.547534     89.095068
     -3.038038     42.918473     42.918473     85.836947
     -3.028028     40.591499     40.591499     81.182997
     -3.018018     37.830687     37.830687     75.661375
     -3.008008     34.689658     34.689658     69.379315
     -2.997998     31.119347     31.119347     62.238694
     -2.987988     27.153260     27.153260     54.306520
     -2.977978     23.056560     23.056560     46.113120
     -2.967968     19.351307     19.351307     38.702614
     -2.957958     16.703836     16.703836     33.407672
     -2.947948     15.729535     15.729535     31.459071
     -2.937938     16.796469     16.796469     33.592937
     -2.927928     19.893003     19.893003     39.786006
     -2.917918     24.592667     24.592667     49.185334
     -2.907908     30.123886     30.123886     60.247772
     -2.897898     35.533535     35.533535     71.067070
     -2.887888     39.911088     39.911088     79.822176
     -2.877878     42.613643     42.613643     85.227286
     -2.867868     43.417057     43.417057     86.834114
     -2.857858     42.533681     42.533681     85.067362
     -2.847848     40.485766     40.485766     80.971532
     -2.837838     37.885445     37.885445     75.770890
     -2.827828     35.214802     35.214802     70.429605
     -2.817818     32.698304     32.698304     65.396609
     -2.807808     30.313341     30.313341     60.626681
     -2.797798     27.916031     27.916031     55.832062
     -2.787788     25.404359     25.404359     50.808719
     -2.777778     22.827828     22.827828     45.655656
     -2.767768     20.388607     20.388607     40.777215
     -2.757758     18.343645     18.343645     36.687291
     -2.747748     16.874319     16.874319     33.748638
     -2.737738     16.006938     16.006938     32.013876
     -2.727728     15.633225     15.633225     31.266450
     -2.717718     15.614514     15.614514     31.229029
     -2.707708     15.897273     15.897273     31.794546
     -2.697698     16.557761     16.557761     33.115522
     -2.687688     17.739156     17.739156     35.478313
     -2.677678     19.517887     19.517887     39.035774
     -2.667668     21.788739     21.788739     43.577478
     -2.657658     24.252833     24.252833     48.505666
     -2.647648     26.528532     26.528532     53.057064
     -2.637638     28.323558     28.323558     56.647115
     -2.627628     29.563225     29.563225     59.126450
     -2.617618     30.396794     30.396794     60.793588
     -2.607608     31.083825     31.083825     62.167650
     -2.597598     31.837872     31.837872     63.675744
     -2.587588     32.721796     32.721796     65.443592
     -2.577578     33.639521     33.639521     67.279041
     -2.567568     34.397573     34.397573     68.795145
     -2.557558     34.774759     34.774759     69.549519
     -2.547548     34.561977     34.561977     69.123954
     -2.537538     33.584950     33.584950     67.169899
     -2.527528     31.747510     31.747510     63.495019
     -2.517518     29.107402     29.107402     58.214803
     -2.507508     25.946207     25.946207     51.892414
     -2.497497     22.769588     22.769588     45.539176
     -2.487487     20.201166     20.201166     40.402331
     -2.477477     18.795746     18.795746     37.591492
     -2.467467     18.851193     18.851193     37.702386
     -2.457457     20.307879     20.307879     40.615759
     -2.447447     22.786010     22.786010     45.572020
     -2.437437     25.746630     25.746630     51.493261
     -2.427427     28.704000     28.704000     57.408000
     -2.417417     31.392013     31.392013     62.784027
     -2.407407     33.807568     33.807568     67.615137
     -2.397397     36.111662     36.111662     72.223324
     -2.387387     38.438586     38.438586     76.877173
     -2.377377     40.711424     40.711424     81.422849
     -2.367367     42.563656     42.563656     85.127312
     -2.357357     43.419249     43.419249     86.838497
     -2.347347     42.707772     42.707772     85.415543
     -2.337337     40.122577     40.122577     80.245154
     -2.327327     35.804068     35.804068     71.608135
     -2.317317     30.362444     30.362444     60.724888
     -2.307307     24.729428     24.729428     49.458855
     -2.297297     19.905040     19.905040     39.810080
     -2.287287     16.702237     16.702237     33.404474
     -2.277277     15.575391     15.575391     31.150783
     -2.267267     16.568450     16.568450     33.136900
     -2.257257     19.369117     19.369117     38.738233
     -2.247247     23.428341     23.428341     46.856681
     -2.237237     28.099603     28.099603     56.199206
     -2.227227     32.759437     32.759437     65.518874
     -2.217217     36.883078     36.883078     73.766155
     -2.207207     40.068029     40.068029     80.136059
     -2.197197     42.022311     42.022311     84.044623
     -2.187187     42.551950     42.551950     85.103901
     -2.177177     41.578565     41.578565     83.157129
     -2.167167     39.188144     39.188144     78.376287
     -2.157157     35.673534     35.673534     71.347069
     -2.147147     31.516599     31.516599     63.033197
     -2.137137     27.281902     27.281902     54.563804
     -2.127127     23.450961     23.450961     46.901922
     -2.117117     20.274774     20.274774     40.549548
     -2.107107     17.723662     17.723662     35.447324
     -2.097097     15.561577     15.561577     31.123154
     -2.087087     13.501055     13.501055     27.002110
     -2.077077     11.353146     11.353146     22.706292
     -2.067067      9.099476      9.099476     18.198953
     -2.057057      6.866968      6.866968     13.733937
     -2.047047      4.840473      4.840473      9.680945
     -2.037037      3.171432      3.171432      6.342865
     -2.027027      1.926103      1.926103      3.852207
     -2.017017      1.083781      1.083781      2.167561
     -2.007007      0.568499      0.568499      1.136998
     -1.996997      0.289426      0.289426      0.578853
     -1.986987      0.172633      0.172633      0.345267
     -1.976977      0.179282      0.179282      0.358564
     -1.966967      0.313387      0.313387      0.626773
     -1.956957      0.623256      0.623256      1.246513
     -1.946947      1.196755      1.196755      2.393511
     -1.936937      2.146200      2.146200      4.292401
     -1.926927      3.578488      3.578488      7.156976
     -1.916917      5.551999      5.551999     11.103997
     -1.906907      8.031858      8.031858     16.063716
     -1.896897     10.862854     10.862854     21.725707
     -1.886887     13.777644     13.777644     27.555288
     -1.876877     16.445190     16.445190     32.890379
     -1.866867     18.547011     18.547011     37.094022
     -1.856857     19.857153     19.857153     39.714306
     -1.846847     20.301000     20.301000     40.602000
     -1.836837     19.975199     19.975199     39.950399
     -1.826827     19.120293     19.120293     38.240585
     -1.816817     18.048543     18.048543     36.097087
     -1.806807     17.045234     17.045234     34.090467
     -1.796797     16.279535     16.279535     32.559071
     -1.786787     15.767181     15.767181     31.534361
     -1.776777     15.407472     15.407472     30.814944
     -1.766767     15.075457     15.075457     30.150913
     -1.756757     14.712638     14.712638     29.425276
     -1.746747     14.357131     14.357131     28.714263
     -1.736737     14.094259     14.094259     28.188518
     -1.726727     13.965428     13.965428     27.930855
     -1.716717     13.905073     13.905073     27.810146
     -1.706707     13.757620     13.757620     27.515241
     -1.696697     13.370418     13.370418     26.740837
     -1.686687     12.703951     12.703951     25.407902
     -1.676677     11.885215     11.885215     23.770431
     -1.666667     11.163560     11.163560     22.327120
     -1.656657     10.787476     10.787476     21.574952
     -1.646647     10.868417     10.868417     21.736834
     -1.636637     11.306552     11.306552     22.613103
     -1.626627     11.820999     11.820999     23.641998
