# EIG2DOS: Utility for SIESTA to obtain the electronic density of states
#  E. Artacho, Apr 1999, A. Garcia, Apr 2012
#  Nick R. Papior, Feb 2017
# ------------------------------------------
# Eigenvalues calculated from a non-polarized calculation
# Eigenvalues read from siesta.EIG
# Kpoint weights read from siesta.KP
# Using smearing parameter:   0.0500
# Using 1000 points in the energy range
# Selected bands: 1 to: 2981
# Emin, Emax in file for selected band(s):    -27.2361602    218.3699790
# Nbands, Nspin, Nk   =   2981     1     1
# E_F                 =    -4.2325 eV --> (shifted to ZERO)
# Broadening          =     0.0500 eV
#
#        E            N(up)  (=)   N(down)         Ntot
     -5.000000     30.795198     30.795198     61.590395
     -4.989990     35.213821     35.213821     70.427641
     -4.979980     39.517003     39.517003     79.034005
     -4.969970     43.055676     43.055676     86.111352
     -4.959960     45.202496     45.202496     90.404992
     -4.949950     45.552673     45.552673     91.105346
     -4.939940     44.068266     44.068266     88.136532
     -4.929930     41.114772     41.114772     82.229545
     -4.919920     37.390316     37.390316     74.780631
     -4.909910     33.786669     33.786669     67.573337
     -4.899900     31.225095     31.225095     62.450191
     -4.889890     30.486734     30.486734     60.973469
     -4.879880     32.039650     32.039650     64.079301
     -4.869870     35.879110     35.879110     71.758220
     -4.859860     41.435537     41.435537     82.871074
     -4.849850     47.625304     47.625304     95.250608
     -4.839840     53.085397     53.085397    106.170793
     -4.829830     56.547161     56.547161    113.094322
     -4.819820     57.216584     57.216584    114.433169
     -4.809810     55.001741     55.001741    110.003482
     -4.799800     50.489976     50.489976    100.979952
     -4.789790     44.696200     44.696200     89.392401
     -4.779780     38.707849     38.707849     77.415699
     -4.769770     33.380976     33.380976     66.761952
     -4.759760     29.187959     29.187959     58.375918
     -4.749750     26.225911     26.225911     52.451821
     -4.739740     24.325597     24.325597     48.651195
     -4.729730     23.184229     23.184229     46.368458
     -4.719720     22.471327     22.471327     44.942654
     -4.709710     21.894514     21.894514     43.789028
     -4.699700     21.237643     21.237643     42.475287
     -4.689690     20.390017     20.390017     40.780033
     -4.679680     19.375984     19.375984     38.751968
     -4.669670     18.377143     18.377143     36.754287
     -4.659660     17.726304     17.726304     35.452608
     -4.649650     17.854667     17.854667     35.709335
     -4.639640     19.192911     19.192911     38.385823
     -4.629630     22.050354     22.050354     44.100708
     -4.619620     26.507126     26.507126     53.014252
     -4.609610     32.347198     32.347198     64.694395
     -4.599600     39.046594     39.046594     78.093187
     -4.589590     45.824956     45.824956     91.649913
     -4.579580     51.768595     51.768595    103.537189
     -4.569570     56.023188     56.023188    112.046376
     -4.559560     58.023162     58.023162    116.046325
     -4.549550     57.684738     57.684738    115.369475
     -4.539540     55.472782     55.472782    110.945564
     -4.529530     52.283716     52.283716    104.567432
     -4.519520     49.162595     49.162595     98.325191
     -4.509510     46.954215     46.954215     93.908431
     -4.499499     46.028220     46.028220     92.056441
     -4.489489     46.190624     46.190624     92.381249
     -4.479479     46.810783     46.810783     93.621566
     -4.469469     47.097099     47.097099     94.194198
     -4.459459     46.395907     46.395907     92.791814
     -4.449449     44.393356     44.393356     88.786713
     -4.439439     41.161109     41.161109     82.322217
     -4.429429     37.066103     37.066103     74.132205
     -4.419419     32.619332     32.619332     65.238664
     -4.409409     28.343186     28.343186     56.686372
     -4.399399     24.697086     24.697086     49.394172
     -4.389389     22.048889     22.048889     44.097778
     -4.379379     20.652128     20.652128     41.304256
     -4.369369     20.603414     20.603414     41.206827
     -4.359359     21.794355     21.794355     43.588710
     -4.349349     23.902274     23.902274     47.804547
     -4.339339     26.456632     26.456632     52.913263
     -4.329329     28.976650     28.976650     57.953300
     -4.319319     31.129568     31.129568     62.259136
     -4.309309     32.839917     32.839917     65.679835
     -4.299299     34.298333     34.298333     68.596666
     -4.289289     35.859831     35.859831     71.719662
     -4.279279     37.864033     37.864033     75.728065
     -4.269269     40.439671     40.439671     80.879342
     -4.259259     43.369011     43.369011     86.738021
     -4.249249     46.080232     46.080232     92.160465
     -4.239239     47.799052     47.799052     95.598104
     -4.229229     47.824746     47.824746     95.649492
     -4.219219     45.824841     45.824841     91.649682
     -4.209209     42.011369     42.011369     84.022737
     -4.199199     37.103031     37.103031     74.206062
     -4.189189     32.080228     32.080228     64.160457
     -4.179179     27.845982     27.845982     55.691965
     -4.169169     24.950021     24.950021     49.900042
     -4.159159     23.490572     23.490572     46.981144
     -4.149149     23.210290     23.210290     46.420580
     -4.139139     23.710231     23.710231     47.420462
     -4.129129     24.665133     24.665133     49.330265
     -4.119119     25.941882     25.941882     51.883764
     -4.109109     27.578727     27.578727     55.157455
     -4.099099     29.647682     29.647682     59.295364
     -4.089089     32.076004     32.076004     64.152008
     -4.079079     34.527885     34.527885     69.055769
     -4.069069     36.428569     36.428569     72.857138
     -4.059059     37.146694     37.146694     74.293388
     -4.049049     36.262332     36.262332     72.524663
     -4.039039     33.788712     33.788712     67.577425
     -4.029029     30.228395     30.228395     60.456790
     -4.019019     26.429100     26.429100     52.858201
     -4.009009     23.310044     23.310044     46.620087
     -3.998999     21.590451     21.590451     43.180902
     -3.988989     21.633949     21.633949     43.267899
     -3.978979     23.445365     23.445365     46.890729
     -3.968969     26.775112     26.775112     53.550224
     -3.958959     31.250166     31.250166     62.500332
     -3.948949     36.471195     36.471195     72.942390
     -3.938939     42.064332     42.064332     84.128663
     -3.928929     47.710510     47.710510     95.421020
     -3.918919     53.172021     53.172021    106.344041
     -3.908909     58.307293     58.307293    116.614586
     -3.898899     63.045133     63.045133    126.090267
     -3.888889     67.303692     67.303692    134.607383
     -3.878879     70.881006     70.881006    141.762011
     -3.868869     73.381235     73.381235    146.762470
     -3.858859     74.241682     74.241682    148.483365
     -3.848849     72.882622     72.882622    145.765244
     -3.838839     68.936196     68.936196    137.872391
     -3.828829     62.459281     62.459281    124.918562
     -3.818819     54.028967     54.028967    108.057934
     -3.808809     44.664486     44.664486     89.328971
     -3.798799     35.593767     35.593767     71.187534
     -3.788789     27.947668     27.947668     55.895335
     -3.778779     22.488878     22.488878     44.977757
     -3.768769     19.459325     19.459325     38.918650
     -3.758759     18.578838     18.578838     37.157675
     -3.748749     19.177240     19.177240     38.354479
     -3.738739     20.410339     20.410339     40.820679
     -3.728729     21.499874     21.499874     42.999749
     -3.718719     21.940762     21.940762     43.881525
     -3.708709     21.628937     21.628937     43.257875
     -3.698699     20.877755     20.877755     41.755510
     -3.688689     20.312285     20.312285     40.624570
     -3.678679     20.660145     20.660145     41.320290
     -3.668669     22.491418     22.491418     44.982837
     -3.658659     25.988131     25.988131     51.976261
     -3.648649     30.829226     30.829226     61.658451
     -3.638639     36.246239     36.246239     72.492478
     -3.628629     41.240374     41.240374     82.480748
     -3.618619     44.880207     44.880207     89.760415
     -3.608609     46.561499     46.561499     93.122997
     -3.598599     46.132943     46.132943     92.265886
     -3.588589     43.862154     43.862154     87.724308
     -3.578579     40.289106     40.289106     80.578211
     -3.568569     36.045820     36.045820     72.091641
     -3.558559     31.703541     31.703541     63.407082
     -3.548549     27.671399     27.671399     55.342798
     -3.538539     24.147897     24.147897     48.295794
     -3.528529     21.125661     21.125661     42.251322
     -3.518519     18.451634     18.451634     36.903268
     -3.508509     15.930950     15.930950     31.861900
     -3.498498     13.438753     13.438753     26.877506
     -3.488488     10.993135     10.993135     21.986270
     -3.478478      8.758942      8.758942     17.517883
     -3.468468      6.986644      6.986644     13.973287
     -3.458458      5.918445      5.918445     11.836890
     -3.448448      5.699457      5.699457     11.398915
     -3.438438      6.319890      6.319890     12.639781
     -3.428428      7.600579      7.600579     15.201157
     -3.418418      9.227295      9.227295     18.454591
     -3.408408     10.833410     10.833410     21.666820
     -3.398398     12.115999     12.115999     24.231997
     -3.388388     12.949573     12.949573     25.899147
     -3.378378     13.450318     13.450318     26.900636
     -3.368368     13.957806     13.957806     27.915611
     -3.358358     14.937823     14.937823     29.875645
     -3.348348     16.845615     16.845615     33.691231
     -3.338338     19.997822     19.997822     39.995645
     -3.328328     24.479674     24.479674     48.959347
     -3.318318     30.085717     30.085717     60.171434
     -3.308308     36.288211     36.288211     72.576422
     -3.298298     42.252952     42.252952     84.505905
     -3.288288     46.946592     46.946592     93.893184
     -3.278278     49.360816     49.360816     98.721631
     -3.268268     48.809635     48.809635     97.619271
     -3.258258     45.182078     45.182078     90.364156
     -3.248248     39.019689     39.019689     78.039378
     -3.238238     31.362951     31.362951     62.725902
     -3.228228     23.430082     23.430082     46.860164
     -3.218218     16.275407     16.275407     32.550815
     -3.208208     10.569671     10.569671     21.139342
     -3.198198      6.564081      6.564081     13.128162
     -3.188188      4.203643      4.203643      8.407286
     -3.178178      3.299656      3.299656      6.599312
     -3.168168      3.673100      3.673100      7.346199
     -3.158158      5.219983      5.219983     10.439966
     -3.148148      7.895500      7.895500     15.791000
     -3.138138     11.645453     11.645453     23.290906
     -3.128128     16.325415     16.325415     32.650830
     -3.118118     21.643922     21.643922     43.287844
     -3.108108     27.152283     27.152283     54.304567
     -3.098098     32.287374     32.287374     64.574749
     -3.088088     36.460060     36.460060     72.920120
     -3.078078     39.171119     39.171119     78.342237
     -3.068068     40.126114     40.126114     80.252227
     -3.058058     39.311675     39.311675     78.623349
     -3.048048     36.997307     36.997307     73.994613
     -3.038038     33.649580     33.649580     67.299159
     -3.028028     29.786359     29.786359     59.572718
     -3.018018     25.834912     25.834912     51.669824
     -3.008008     22.060883     22.060883     44.121767
     -2.997998     18.596671     18.596671     37.193343
     -2.987988     15.540493     15.540493     31.080987
     -2.977978     13.059369     13.059369     26.118739
     -2.967968     11.433297     11.433297     22.866593
     -2.957958     11.015276     11.015276     22.030553
     -2.947948     12.124422     12.124422     24.248845
     -2.937938     14.914653     14.914653     29.829307
     -2.927928     19.266289     19.266289     38.532577
     -2.917918     24.740820     24.740820     49.481640
     -2.907908     30.625438     30.625438     61.250876
     -2.897898     36.070956     36.070956     72.141912
     -2.887888     40.293500     40.293500     80.587000
     -2.877878     42.777111     42.777111     85.554223
     -2.867868     43.400869     43.400869     86.801738
     -2.857858     42.435308     42.435308     84.870616
     -2.847848     40.405305     40.405305     80.810609
     -2.837838     37.876595     37.876595     75.753191
     -2.827828     35.259218     35.259218     70.518436
     -2.817818     32.712347     32.712347     65.424694
     -2.807808     30.183673     30.183673     60.367346
     -2.797798     27.548512     27.548512     55.097023
     -2.787788     24.765150     24.765150     49.530299
     -2.777778     21.959777     21.959777     43.919554
     -2.767768     19.398212     19.398212     38.796423
     -2.757758     17.367901     17.367901     34.735802
     -2.747748     16.044875     16.044875     32.089751
     -2.737738     15.426907     15.426907     30.853815
     -2.727728     15.371676     15.371676     30.743352
     -2.717718     15.711851     15.711851     31.423703
     -2.707708     16.368743     16.368743     32.737486
     -2.697698     17.385840     17.385840     34.771680
     -2.687688     18.856547     18.856547     37.713093
     -2.677678     20.794314     20.794314     41.588628
     -2.667668     23.038423     23.038423     46.076846
     -2.657658     25.270901     25.270901     50.541802
     -2.647648     27.147289     27.147289     54.294577
     -2.637638     28.464502     28.464502     56.929004
     -2.627628     29.259414     29.259414     58.518828
     -2.617618     29.775147     29.775147     59.550294
     -2.607608     30.318277     30.318277     60.636554
     -2.597598     31.096982     31.096982     62.193963
     -2.587588     32.130783     32.130783     64.261567
     -2.577578     33.262590     33.262590     66.525181
     -2.567568     34.234935     34.234935     68.469871
     -2.557558     34.768032     34.768032     69.536064
     -2.547548     34.607939     34.607939     69.215878
     -2.537538     33.560901     33.560901     67.121803
     -2.527528     31.546355     31.546355     63.092710
     -2.517518     28.671585     28.671585     57.343171
     -2.507508     25.286295     25.286295     50.572589
     -2.497497     21.960038     21.960038     43.920077
     -2.487487     19.357995     19.357995     38.715991
     -2.477477     18.048892     18.048892     36.097785
     -2.467467     18.323017     18.323017     36.646033
     -2.457457     20.101075     20.101075     40.202150
     -2.447447     22.976618     22.976618     45.953237
     -2.437437     26.376217     26.376217     52.752434
     -2.427427     29.768955     29.768955     59.537910
     -2.417417     32.832939     32.832939     65.665879
     -2.407407     35.504113     35.504113     71.008226
     -2.397397     37.887458     37.887458     75.774917
     -2.387387     40.078883     40.078883     80.157766
     -2.377377     41.993713     41.993713     83.987426
     -2.367367     43.298514     43.298514     86.597029
     -2.357357     43.493868     43.493868     86.987735
     -2.347347     42.119645     42.119645     84.239290
     -2.337337     38.989530     38.989530     77.979061
     -2.327327     34.342586     34.342586     68.685172
     -2.317317     28.838095     28.838095     57.676190
     -2.307307     23.394978     23.394978     46.789956
     -2.297297     18.946690     18.946690     37.893380
     -2.287287     16.209838     16.209838     32.419675
     -2.277277     15.542047     15.542047     31.084093
     -2.267267     16.914391     16.914391     33.828781
     -2.257257     19.977990     19.977990     39.955981
     -2.247247     24.181870     24.181870     48.363739
     -2.237237     28.898779     28.898779     57.797559
     -2.227227     33.527074     33.527074     67.054149
     -2.217217     37.552170     37.552170     75.104339
     -2.207207     40.568438     40.568438     81.136877
     -2.197197     42.279224     42.279224     84.558448
     -2.187187     42.501544     42.501544     85.003088
     -2.177177     41.193998     41.193998     82.387995
     -2.167167     38.500474     38.500474     77.000948
     -2.157157     34.773251     34.773251     69.546502
     -2.147147     30.531460     30.531460     61.062921
     -2.137137     26.339541     26.339541     52.679082
     -2.127127     22.642762     22.642762     45.285523
     -2.117117     19.636523     19.636523     39.273045
     -2.107107     17.239428     17.239428     34.478857
     -2.097097     15.185649     15.185649     30.371297
     -2.087087     13.185105     13.185105     26.370210
     -2.077077     11.065845     11.065845     22.131690
     -2.067067      8.832335      8.832335     17.664669
     -2.057057      6.628594      6.628594     13.257188
     -2.047047      4.646793      4.646793      9.293586
     -2.037037      3.039926      3.039926      6.079852
     -2.027027      1.879146      1.879146      3.758292
     -2.017017      1.162494      1.162494      2.324988
     -2.007007      0.855450      0.855450      1.710900
     -1.996997      0.935340      0.935340      1.870680
     -1.986987      1.417668      1.417668      2.835335
     -1.976977      2.353925      2.353925      4.707850
     -1.966967      3.802058      3.802058      7.604116
     -1.956957      5.781339      5.781339     11.562678
     -1.946947      8.231822      8.231822     16.463644
     -1.936937     11.000211     11.000211     22.000422
     -1.926927     13.863948     13.863948     27.727897
     -1.916917     16.585349     16.585349     33.170698
     -1.906907     18.969129     18.969129     37.938257
     -1.896897     20.893672     20.893672     41.787344
     -1.886887     22.303335     22.303335     44.606670
     -1.876877     23.175053     23.175053     46.350107
     -1.866867     23.489001     23.489001     46.978002
     -1.856857     23.228500     23.228500     46.457001
     -1.846847     22.412237     22.412237     44.824473
     -1.836837     21.136576     21.136576     42.273152
     -1.826827     19.592986     19.592986     39.185971
     -1.816817     18.034251     18.034251     36.068501
     -1.806807     16.691462     16.691462     33.382923
     -1.796797     15.677625     15.677625     31.355251
     -1.786787     14.931519     14.931519     29.863038
     -1.776777     14.240911     14.240911     28.481822
     -1.766767     13.341535     13.341535     26.683070
     -1.756757     12.043233     12.043233     24.086466
     -1.746747     10.318292     10.318292     20.636584
     -1.736737      8.310875      8.310875     16.621751
     -1.726727      6.273458      6.273458     12.546917
     -1.716717      4.474026      4.474026      8.948052
     -1.706707      3.123776      3.123776      6.247551
     -1.696697      2.350850      2.350850      4.701700
     -1.686687      2.211913      2.211913      4.423826
     -1.676677      2.712583      2.712583      5.425166
     -1.666667      3.810075      3.810075      7.620150
     -1.656657      5.392108      5.392108     10.784216
     -1.646647      7.251020      7.251020     14.502041
     -1.636637      9.085183      9.085183     18.170367
     -1.626627     10.551440     10.551440     21.102880
