# EIG2DOS: Utility for SIESTA to obtain the electronic density of states
#  E. Artacho, Apr 1999, A. Garcia, Apr 2012
#  Nick R. Papior, Feb 2017
# ------------------------------------------
# Eigenvalues calculated from a non-polarized calculation
# Eigenvalues read from siesta.EIG
# Kpoint weights read from siesta.KP
# Using smearing parameter:   0.0500
# Using 1000 points in the energy range
# Selected bands: 1 to: 2981
# Emin, Emax in file for selected band(s):    -27.2489523    218.3608830
# Nbands, Nspin, Nk   =   2981     1     1
# E_F                 =    -4.2425 eV --> (shifted to ZERO)
# Broadening          =     0.0500 eV
#
#        E            N(up)  (=)   N(down)         Ntot
     -5.000000     32.376201     32.376201     64.752403
     -4.989990     36.863640     36.863640     73.727279
     -4.979980     40.964309     40.964309     81.928618
     -4.969970     44.023401     44.023401     88.046803
     -4.959960     45.498882     45.498882     90.997764
     -4.949950     45.137753     45.137753     90.275506
     -4.939940     43.065931     43.065931     86.131862
     -4.929930     39.768992     39.768992     79.537985
     -4.919920     35.991083     35.991083     71.982167
     -4.909910     32.599560     32.599560     65.199120
     -4.899900     30.445707     30.445707     60.891414
     -4.889890     30.220571     30.220571     60.441142
     -4.879880     32.295860     32.295860     64.591721
     -4.869870     36.569666     36.569666     73.139331
     -4.859860     42.383314     42.383314     84.766628
     -4.849850     48.591760     48.591760     97.183519
     -4.839840     53.822737     53.822737    107.645474
     -4.829830     56.864096     56.864096    113.728193
     -4.819820     57.033051     57.033051    114.066101
     -4.809810     54.367824     54.367824    108.735648
     -4.799800     49.559647     49.559647     99.119294
     -4.789790     43.668002     43.668002     87.336005
     -4.779780     37.758840     37.758840     75.517679
     -4.769770     32.619461     32.619461     65.238923
     -4.759760     28.637951     28.637951     57.275902
     -4.749750     25.841317     25.841317     51.682634
     -4.739740     24.022921     24.022921     48.045842
     -4.729730     22.880429     22.880429     45.760857
     -4.719720     22.115503     22.115503     44.231005
     -4.709710     21.485389     21.485389     42.970777
     -4.699700     20.822976     20.822976     41.645952
     -4.689690     20.049335     20.049335     40.098669
     -4.679680     19.193257     19.193257     38.386513
     -4.669670     18.413120     18.413120     36.826239
     -4.659660     18.000177     18.000177     36.000353
     -4.649650     18.342061     18.342061     36.684123
     -4.639640     19.842441     19.842441     39.684882
     -4.629630     22.813771     22.813771     45.627542
     -4.619620     27.369129     27.369129     54.738258
     -4.609610     33.335214     33.335214     66.670429
     -4.599600     40.206118     40.206118     80.412236
     -4.589590     47.165355     47.165355     94.330710
     -4.579580     53.208524     53.208524    106.417049
     -4.569570     57.375139     57.375139    114.750278
     -4.559560     59.039600     59.039600    118.079201
     -4.549550     58.150504     58.150504    116.301007
     -4.539540     55.295566     55.295566    110.591132
     -4.529530     51.531993     51.531993    103.063986
     -4.519520     48.031723     48.031723     96.063445
     -4.509510     45.684082     45.684082     91.368165
     -4.499499     44.820046     44.820046     89.640091
     -4.489489     45.162254     45.162254     90.324507
     -4.479479     45.999635     45.999635     91.999270
     -4.469469     46.491395     46.491395     92.982789
     -4.459459     45.965679     45.965679     91.931359
     -4.449449     44.103913     44.103913     88.207826
     -4.439439     40.970433     40.970433     81.940867
     -4.429429     36.919755     36.919755     73.839509
     -4.419419     32.455265     32.455265     64.910531
     -4.409409     28.108353     28.108353     56.216707
     -4.399399     24.366906     24.366906     48.733812
     -4.389389     21.637376     21.637376     43.274752
     -4.379379     20.206236     20.206236     40.412472
     -4.369369     20.185182     20.185182     40.370365
     -4.359359     21.461577     21.461577     42.923155
     -4.349349     23.698087     23.698087     47.396174
     -4.339339     26.411402     26.411402     52.822805
     -4.329329     29.116665     29.116665     58.233330
     -4.319319     31.481979     31.481979     62.963958
     -4.309309     33.425245     33.425245     66.850490
     -4.299299     35.109928     35.109928     70.219856
     -4.289289     36.839896     36.839896     73.679793
     -4.279279     38.892049     38.892049     77.784098
     -4.269269     41.346443     41.346443     82.692885
     -4.259259     43.977636     43.977636     87.955273
     -4.249249     46.260098     46.260098     92.520195
     -4.239239     47.509723     47.509723     95.019447
     -4.229229     47.130029     47.130029     94.260059
     -4.219219     44.871631     44.871631     89.743261
     -4.209209     40.984437     40.984437     81.968875
     -4.199199     36.175784     36.175784     72.351568
     -4.189189     31.378828     31.378828     62.757656
     -4.179179     27.434091     27.434091     54.868182
     -4.169169     24.831427     24.831427     49.662853
     -4.159159     23.622759     23.622759     47.245519
     -4.149149     23.523614     23.523614     47.047227
     -4.139139     24.130270     24.130270     48.260539
     -4.129129     25.135434     25.135434     50.270868
     -4.119119     26.440229     26.440229     52.880458
     -4.109109     28.117090     28.117090     56.234179
     -4.099099     30.250237     30.250237     60.500475
     -4.089089     32.742191     32.742191     65.484382
     -4.079079     35.201024     35.201024     70.402049
     -4.069069     36.993564     36.993564     73.987127
     -4.059059     37.466431     37.466431     74.932861
     -4.049049     36.238168     36.238168     72.476335
     -4.039039     33.412344     33.412344     66.824689
     -4.029029     29.594603     29.594603     59.189206
     -4.019019     25.701213     25.701213     51.402427
     -4.009009     22.657407     22.657407     45.314814
     -3.998999     21.131268     21.131268     42.262537
     -3.988989     21.409691     21.409691     42.819382
     -3.978979     23.431762     23.431762     46.863524
     -3.968969     26.915007     26.915007     53.830014
     -3.958959     31.486803     31.486803     62.973606
     -3.948949     36.767739     36.767739     73.535479
     -3.938939     42.408001     42.408001     84.816002
     -3.928929     48.107756     48.107756     96.215513
     -3.918919     53.640622     53.640622    107.281244
     -3.908909     58.865762     58.865762    117.731525
     -3.898899     63.696847     63.696847    127.393694
     -3.888889     68.016807     68.016807    136.033615
     -3.878879     71.573094     71.573094    143.146188
     -3.868869     73.922026     73.922026    147.844053
     -3.858859     74.482263     74.482263    148.964526
     -3.848849     72.705402     72.705402    145.410804
     -3.838839     68.305409     68.305409    136.610819
     -3.828829     61.447254     61.447254    122.894507
     -3.818819     52.803416     52.803416    105.606832
     -3.808809     43.441141     43.441141     86.882282
     -3.798799     34.574602     34.574602     69.149204
     -3.788789     27.268890     27.268890     54.537780
     -3.778779     22.194504     22.194504     44.389008
     -3.768769     19.503201     19.503201     39.006403
     -3.758759     18.848508     18.848508     37.697015
     -3.748749     19.529812     19.529812     39.059625
     -3.738739     20.711339     20.711339     41.422679
     -3.728729     21.657456     21.657456     43.314913
     -3.718719     21.928485     21.928485     43.856970
     -3.708709     21.491439     21.491439     42.982878
     -3.698699     20.716469     20.716469     41.432938
     -3.688689     20.253130     20.253130     40.506259
     -3.678679     20.810932     20.810932     41.621863
     -3.668669     22.901756     22.901756     45.803512
     -3.658659     26.626192     26.626192     53.252383
     -3.648649     31.585668     31.585668     63.171336
     -3.638639     36.965753     36.965753     73.931506
     -3.628629     41.769421     41.769421     83.538842
     -3.618619     45.111987     45.111987     90.223974
     -3.608609     46.461022     46.461022     92.922043
     -3.598599     45.735603     45.735603     91.471206
     -3.588589     43.251754     43.251754     86.503508
     -3.578579     39.568253     39.568253     79.136505
     -3.568569     35.310131     35.310131     70.620263
     -3.558559     31.024822     31.024822     62.049644
     -3.548549     27.089743     27.089743     54.179486
     -3.538539     23.671343     23.671343     47.342686
     -3.528529     20.736865     20.736865     41.473730
     -3.518519     18.120644     18.120644     36.241288
     -3.508509     15.630783     15.630783     31.261567
     -3.498498     13.158273     13.158273     26.316545
     -3.488488     10.742295     10.742295     21.484591
     -3.478478      8.564897      8.564897     17.129793
     -3.468468      6.883056      6.883056     13.766113
     -3.458458      5.932199      5.932199     11.864397
     -3.448448      5.838623      5.838623     11.677246
     -3.438438      6.565893      6.565893     13.131785
     -3.428428      7.907182      7.907182     15.814364
     -3.418418      9.528610      9.528610     19.057221
     -3.408408     11.060868     11.060868     22.121736
     -3.398398     12.219937     12.219937     24.439875
     -3.388388     12.916963     12.916963     25.833926
     -3.378378     13.309531     13.309531     26.619062
     -3.368368     13.765318     13.765318     27.530636
     -3.358358     14.748381     14.748381     29.496761
     -3.348348     16.673527     16.673527     33.347053
     -3.338338     19.781483     19.781483     39.562966
     -3.328328     24.064964     24.064964     48.129929
     -3.318318     29.245680     29.245680     58.491360
     -3.308308     34.790962     34.790962     69.581925
     -3.298298     39.970709     39.970709     79.941419
     -3.288288     43.968577     43.968577     87.937154
     -3.278278     46.049443     46.049443     92.098886
     -3.268268     45.747373     45.747373     91.494746
     -3.258258     43.004832     43.004832     86.009664
     -3.248248     38.198932     38.198932     76.397865
     -3.238238     32.038514     32.038514     64.077029
     -3.228228     25.376009     25.376009     50.752018
     -3.218218     19.011193     19.011193     38.022386
     -3.208208     13.554193     13.554193     27.108386
     -3.198198      9.376569      9.376569     18.753139
     -3.188188      6.638475      6.638475     13.276951
     -3.178178      5.355600      5.355600     10.711199
     -3.168168      5.466335      5.466335     10.932670
     -3.158158      6.872553      6.872553     13.745106
     -3.148148      9.447588      9.447588     18.895176
     -3.138138     13.022444     13.022444     26.044889
     -3.128128     17.367622     17.367622     34.735245
     -3.118118     22.182476     22.182476     44.364952
     -3.108108     27.095023     27.095023     54.190047
     -3.098098     31.673350     31.673350     63.346700
     -3.088088     35.456581     35.456581     70.913161
     -3.078078     38.017009     38.017009     76.034018
     -3.068068     39.051539     39.051539     78.103078
     -3.058058     38.472528     38.472528     76.945056
     -3.048048     36.448271     36.448271     72.896542
     -3.038038     33.356787     33.356787     66.713574
     -3.028028     29.663632     29.663632     59.327263
     -3.018018     25.784089     25.784089     51.568178
     -3.008008     22.003058     22.003058     44.006115
     -2.997998     18.489369     18.489369     36.978737
     -2.987988     15.381092     15.381092     30.762184
     -2.977978     12.877493     12.877493     25.754987
     -2.967968     11.276257     11.276257     22.552513
     -2.957958     10.931485     10.931485     21.862969
     -2.947948     12.149404     12.149404     24.298808
     -2.937938     15.062501     15.062501     30.125002
     -2.927928     19.527085     19.527085     39.054170
     -2.917918     25.082883     25.082883     50.165766
     -2.907908     31.000768     31.000768     62.001536
     -2.897898     36.422664     36.422664     72.845328
     -2.887888     40.564578     40.564578     81.129155
     -2.877878     42.920069     42.920069     85.840138
     -2.867868     43.387202     43.387202     86.774405
     -2.857858     42.262675     42.262675     84.525351
     -2.847848     40.099610     40.099610     80.199219
     -2.837838     37.487034     37.487034     74.974069
     -2.827828     34.847009     34.847009     69.694017
     -2.817818     32.336951     32.336951     64.673902
     -2.807808     29.891615     29.891615     59.783230
     -2.797798     27.368156     27.368156     54.736311
     -2.787788     24.707106     24.707106     49.414212
     -2.777778     22.019682     22.019682     44.039363
     -2.767768     19.558676     19.558676     39.117352
     -2.757758     17.599297     17.599297     35.198593
     -2.747748     16.307770     16.307770     32.615540
     -2.737738     15.679369     15.679369     31.358739
     -2.727728     15.581349     15.581349     31.162698
     -2.717718     15.867783     15.867783     31.735567
     -2.707708     16.485557     16.485557     32.971115
     -2.697698     17.495804     17.495804     34.991607
     -2.687688     18.992402     18.992402     37.984805
     -2.677678     20.972569     20.972569     41.945137
     -2.667668     23.253788     23.253788     46.507576
     -2.657658     25.506034     25.506034     51.012067
     -2.647648     27.391730     27.391730     54.783461
     -2.637638     28.729814     28.729814     57.459628
     -2.627628     29.579211     29.579211     59.158422
     -2.617618     30.188350     30.188350     60.376700
     -2.607608     30.844899     30.844899     61.689798
     -2.597598     31.720338     31.720338     63.440677
     -2.587588     32.795188     32.795188     65.590375
     -2.577578     33.885576     33.885576     67.771152
     -2.567568     34.725833     34.725833     69.451666
     -2.557558     35.045217     35.045217     70.090435
     -2.547548     34.613012     34.613012     69.226024
     -2.537538     33.272352     33.272352     66.544703
     -2.527528     30.993115     30.993115     61.986229
     -2.517518     27.940583     27.940583     55.881167
     -2.507508     24.514723     24.514723     49.029447
     -2.497497     21.307550     21.307550     42.615099
     -2.487487     18.964458     18.964458     37.928915
     -2.477477     17.992727     17.992727     35.985454
     -2.467467     18.597159     18.597159     37.194318
     -2.457457     20.617008     20.617008     41.234017
     -2.447447     23.595257     23.595257     47.190514
     -2.437437     26.953431     26.953431     53.906863
     -2.427427     30.198288     30.198288     60.396575
     -2.417417     33.070588     33.070588     66.141175
     -2.407407     35.569622     35.569622     71.139244
     -2.397397     37.842928     37.842928     75.685857
     -2.387387     39.995790     39.995790     79.991580
     -2.377377     41.918888     41.918888     83.837776
     -2.367367     43.230980     43.230980     86.461961
     -2.357357     43.382249     43.382249     86.764498
     -2.347347     41.883679     41.883679     83.767357
     -2.337337     38.558396     38.558396     77.116792
     -2.327327     33.692412     33.692412     67.384823
     -2.317317     28.009236     28.009236     56.018472
     -2.307307     22.480052     22.480052     44.960103
     -2.297297     18.056932     18.056932     36.113865
     -2.287287     15.438824     15.438824     30.877649
     -2.277277     14.944814     14.944814     29.889628
     -2.267267     16.508567     16.508567     33.017134
     -2.257257     19.760303     19.760303     39.520607
     -2.247247     24.146330     24.146330     48.292660
     -2.237237     29.044566     29.044566     58.089133
     -2.227227     33.852025     33.852025     67.704051
     -2.217217     38.036947     38.036947     76.073894
     -2.207207     41.162375     41.162375     82.324751
     -2.197197     42.898818     42.898818     85.797636
     -2.187187     43.046428     43.046428     86.092857
     -2.177177     41.575719     41.575719     83.151439
     -2.167167     38.671371     38.671371     77.342742
     -2.157157     34.740920     34.740920     69.481839
     -2.147147     30.350641     30.350641     60.701281
     -2.137137     26.084883     26.084883     52.169765
     -2.127127     22.376287     22.376287     44.752573
     -2.117117     19.386214     19.386214     38.772427
     -2.107107     16.998383     16.998383     33.996767
     -2.097097     14.929123     14.929123     29.858245
     -2.087087     12.893278     12.893278     25.786555
     -2.077077     10.738944     10.738944     21.477888
     -2.067067      8.491421      8.491421     16.982842
     -2.057057      6.304383      6.304383     12.608765
     -2.047047      4.364194      4.364194      8.728389
     -2.037037      2.805033      2.805033      5.610065
     -2.027027      1.670219      1.670219      3.340437
     -2.017017      0.921479      0.921479      1.842958
     -2.007007      0.475300      0.475300      0.950600
     -1.996997      0.242322      0.242322      0.484644
     -1.986987      0.155798      0.155798      0.311596
     -1.976977      0.187348      0.187348      0.374696
     -1.966967      0.354954      0.354954      0.709908
     -1.956957      0.727673      0.727673      1.455346
     -1.946947      1.426525      1.426525      2.853050
     -1.936937      2.615460      2.615460      5.230920
     -1.926927      4.474105      4.474105      8.948209
     -1.916917      7.147906      7.147906     14.295811
     -1.906907     10.681268     10.681268     21.362537
     -1.896897     14.951934     14.951934     29.903869
     -1.886887     19.633860     19.633860     39.267719
     -1.876877     24.215279     24.215279     48.430557
     -1.866867     28.085384     28.085384     56.170767
     -1.856857     30.678693     30.678693     61.357386
     -1.846847     31.637497     31.637497     63.274994
     -1.836837     30.932075     30.932075     61.864149
     -1.826827     28.880653     28.880653     57.761305
     -1.816817     26.044964     26.044964     52.089929
     -1.806807     23.033765     23.033765     46.067529
     -1.796797     20.296858     20.296858     40.593716
     -1.786787     18.002859     18.002859     36.005718
     -1.776777     16.052384     16.052384     32.104769
     -1.766767     14.206690     14.206690     28.413379
     -1.756757     12.253824     12.253824     24.507647
     -1.746747     10.125360     10.125360     20.250720
     -1.736737      7.917703      7.917703     15.835406
     -1.726727      5.831512      5.831512     11.663024
     -1.716717      4.082060      4.082060      8.164119
     -1.706707      2.833228      2.833228      5.666456
     -1.696697      2.177667      2.177667      4.355333
     -1.686687      2.150731      2.150731      4.301461
     -1.676677      2.747900      2.747900      5.495800
     -1.666667      3.921344      3.921344      7.842687
     -1.656657      5.553660      5.553660     11.107320
     -1.646647      7.430719      7.430719     14.861437
     -1.636637      9.246089      9.246089     18.492178
     -1.626627     10.658370     10.658370     21.316741
