# EIG2DOS: Utility for SIESTA to obtain the electronic density of states
#  E. Artacho, Apr 1999, A. Garcia, Apr 2012
#  Nick R. Papior, Feb 2017
# ------------------------------------------
# Eigenvalues calculated from a non-polarized calculation
# Eigenvalues read from siesta.EIG
# Kpoint weights read from siesta.KP
# Using smearing parameter:   0.0500
# Using 1000 points in the energy range
# Selected bands: 1 to: 2981
# Emin, Emax in file for selected band(s):    -27.3258136    218.3992340
# Nbands, Nspin, Nk   =   2981     1     1
# E_F                 =    -4.2003 eV --> (shifted to ZERO)
# Broadening          =     0.0500 eV
#
#        E            N(up)  (=)   N(down)         Ntot
     -5.000000     30.142897     30.142897     60.285794
     -4.989990     34.976897     34.976897     69.953793
     -4.979980     39.803658     39.803658     79.607316
     -4.969970     43.851836     43.851836     87.703672
     -4.959960     46.370768     46.370768     92.741536
     -4.949950     46.873548     46.873548     93.747097
     -4.939940     45.308467     45.308467     90.616935
     -4.929930     42.097069     42.097069     84.194138
     -4.919920     38.039539     38.039539     76.079079
     -4.909910     34.136733     34.136733     68.273466
     -4.899900     31.386227     31.386227     62.772455
     -4.889890     30.585910     30.585910     61.171820
     -4.879880     32.157348     32.157348     64.314696
     -4.869870     36.009145     36.009145     72.018290
     -4.859860     41.488288     41.488288     82.976576
     -4.849850     47.477035     47.477035     94.954069
     -4.839840     52.654042     52.654042    105.308084
     -4.829830     55.860749     55.860749    111.721498
     -4.819820     56.445027     56.445027    112.890054
     -4.809810     54.444170     54.444170    108.888341
     -4.799800     50.532772     50.532772    101.065545
     -4.789790     45.764163     45.764163     91.528326
     -4.779780     41.218263     41.218263     82.436526
     -4.769770     37.691125     37.691125     75.382250
     -4.759760     35.521393     35.521393     71.042787
     -4.749750     34.580661     34.580661     69.161322
     -4.739740     34.396775     34.396775     68.793550
     -4.729730     34.348731     34.348731     68.697463
     -4.719720     33.865413     33.865413     67.730826
     -4.709710     32.570939     32.570939     65.141877
     -4.699700     30.345240     30.345240     60.690481
     -4.689690     27.305156     27.305156     54.610312
     -4.679680     23.742808     23.742808     47.485617
     -4.669670     20.064927     20.064927     40.129854
     -4.659660     16.755226     16.755226     33.510452
     -4.649650     14.349445     14.349445     28.698889
     -4.639640     13.393127     13.393127     26.786255
     -4.629630     14.357330     14.357330     28.714659
     -4.619620     17.512093     17.512093     35.024185
     -4.609610     22.789111     22.789111     45.578222
     -4.599600     29.690425     29.690425     59.380849
     -4.589590     37.305739     37.305739     74.611477
     -4.579580     44.475176     44.475176     88.950352
     -4.569570     50.077031     50.077031    100.154063
     -4.559560     53.353305     53.353305    106.706609
     -4.549550     54.146902     54.146902    108.293804
     -4.539540     52.943050     52.943050    105.886099
     -4.529530     50.682810     50.682810    101.365620
     -4.519520     48.414458     48.414458     96.828915
     -4.509510     46.920446     46.920446     93.840891
     -4.499499     46.468112     46.468112     92.936224
     -4.489489     46.776068     46.776068     93.552136
     -4.479479     47.192722     47.192722     94.385444
     -4.469469     46.994247     46.994247     93.988493
     -4.459459     45.668120     45.668120     91.336240
     -4.449449     43.071649     43.071649     86.143298
     -4.439439     39.426198     39.426198     78.852396
     -4.429429     35.187578     35.187578     70.375157
     -4.419419     30.879878     30.879878     61.759755
     -4.409409     26.973142     26.973142     53.946284
     -4.399399     23.835633     23.835633     47.671266
     -4.389389     21.734935     21.734935     43.469870
     -4.379379     20.837568     20.837568     41.675136
     -4.369369     21.178075     21.178075     42.356150
     -4.359359     22.614986     22.614986     45.229971
     -4.349349     24.822757     24.822757     49.645515
     -4.339339     27.358547     27.358547     54.717094
     -4.329329     29.797058     29.797058     59.594116
     -4.319319     31.879024     31.879024     63.758047
     -4.309309     33.601776     33.601776     67.203551
     -4.299299     35.202613     35.202613     70.405226
     -4.289289     37.031543     37.031543     74.063085
     -4.279279     39.356233     39.356233     78.712465
     -4.269269     42.173315     42.173315     84.346629
     -4.259259     45.109007     45.109007     90.218015
     -4.249249     47.471667     47.471667     94.943334
     -4.239239     48.464858     48.464858     96.929716
     -4.229229     47.493759     47.493759     94.987519
     -4.219219     44.436263     44.436263     88.872527
     -4.209209     39.746537     39.746537     79.493074
     -4.199199     34.329355     34.329355     68.658709
     -4.189189     29.235481     29.235481     58.470963
     -4.179179     25.316835     25.316835     50.633670
     -4.169169     22.992944     22.992944     45.985887
     -4.159159     22.214387     22.214387     44.428774
     -4.149149     22.608625     22.608625     45.217250
     -4.139139     23.715241     23.715241     47.430481
     -4.129129     25.193893     25.193893     50.387787
     -4.119119     26.917128     26.917128     53.834256
     -4.109109     28.919396     28.919396     57.838793
     -4.099099     31.238907     31.238907     62.477814
     -4.089089     33.740037     33.740037     67.480073
     -4.079079     36.021170     36.021170     72.042340
     -4.069069     37.480029     37.480029     74.960058
     -4.059059     37.529858     37.529858     75.059715
     -4.049049     35.871347     35.871347     71.742694
     -4.039039     32.681417     32.681417     65.362834
     -4.029029     28.615063     28.615063     57.230126
     -4.019019     24.613803     24.613803     49.227606
     -4.009009     21.613562     21.613562     43.227123
     -3.998999     20.285777     20.285777     40.571553
     -3.988989     20.909892     20.909892     41.819784
     -3.978979     23.395243     23.395243     46.790485
     -3.968969     27.399616     27.399616     54.799233
     -3.958959     32.468195     32.468195     64.936390
     -3.948949     38.140620     38.140620     76.281241
     -3.938939     44.015734     44.015734     88.031467
     -3.928929     49.788349     49.788349     99.576697
     -3.918919     55.266824     55.266824    110.533649
     -3.908909     60.360133     60.360133    120.720266
     -3.898899     65.017417     65.017417    130.034834
     -3.888889     69.126137     69.126137    138.252275
     -3.878879     72.412621     72.412621    144.825241
     -3.868869     74.409427     74.409427    148.818854
     -3.858859     74.535163     74.535163    149.070326
     -3.848849     72.279112     72.279112    144.558224
     -3.838839     67.424625     67.424625    134.849250
     -3.828829     60.215275     60.215275    120.430550
     -3.818819     51.384085     51.384085    102.768169
     -3.808809     42.021077     42.021077     84.042155
     -3.798799     33.320366     33.320366     66.640732
     -3.788789     26.293354     26.293354     52.586709
     -3.778779     21.541006     21.541006     43.082013
     -3.768769     19.148706     19.148706     38.297412
     -3.758759     18.721294     18.721294     37.442588
     -3.748749     19.534623     19.534623     39.069246
     -3.738739     20.755086     20.755086     41.510172
     -3.728729     21.670281     21.670281     43.340562
     -3.718719     21.876992     21.876992     43.753985
     -3.708709     21.382683     21.382683     42.765366
     -3.698699     20.592699     20.592699     41.185398
     -3.688689     20.178523     20.178523     40.357047
     -3.678679     20.852789     20.852789     41.705577
     -3.668669     23.109917     23.109917     46.219833
     -3.658659     27.015617     27.015617     54.031234
     -3.648649     32.127359     32.127359     64.254718
     -3.638639     37.589617     37.589617     75.179233
     -3.628629     42.379074     42.379074     84.758147
     -3.618619     45.607118     45.607118     91.214237
     -3.608609     46.760135     46.760135     93.520269
     -3.598599     45.792389     45.792389     91.584779
     -3.588589     43.061589     43.061589     86.123177
     -3.578579     39.165020     39.165020     78.330039
     -3.568569     34.755867     34.755867     69.511734
     -3.558559     30.395241     30.395241     60.790481
     -3.548549     26.458742     26.458742     52.917484
     -3.538539     23.097824     23.097824     46.195649
     -3.528529     20.257172     20.257172     40.514344
     -3.518519     17.748774     17.748774     35.497548
     -3.508509     15.366453     15.366453     30.732905
     -3.498498     13.001205     13.001205     26.002409
     -3.488488     10.710935     10.710935     21.421870
     -3.478478      8.718632      8.718632     17.437264
     -3.468468      7.346753      7.346753     14.693506
     -3.458458      6.918271      6.918271     13.836542
     -3.448448      7.655262      7.655262     15.310524
     -3.438438      9.594655      9.594655     19.189310
     -3.428428     12.535873     12.535873     25.071746
     -3.418418     16.041129     16.041129     32.082259
     -3.408408     19.511341     19.511341     39.022682
     -3.398398     22.340524     22.340524     44.681049
     -3.388388     24.109698     24.109698     48.219395
     -3.378378     24.743884     24.743884     49.487768
     -3.368368     24.555645     24.555645     49.111290
     -3.358358     24.145355     24.145355     48.290711
     -3.348348     24.195827     24.195827     48.391653
     -3.338338     25.243423     25.243423     50.486847
     -3.328328     27.504895     27.504895     55.009789
     -3.318318     30.802253     30.802253     61.604506
     -3.308308     34.591934     34.591934     69.183867
     -3.298298     38.088984     38.088984     76.177967
     -3.288288     40.469531     40.469531     80.939062
     -3.278278     41.111486     41.111486     82.222971
     -3.268268     39.796189     39.796189     79.592378
     -3.258258     36.778791     36.778791     73.557582
     -3.248248     32.678014     32.678014     65.356028
     -3.238238     28.226881     28.226881     56.453762
     -3.228228     24.006258     24.006258     48.012516
     -3.218218     20.291736     20.291736     40.583472
     -3.208208     17.072342     17.072342     34.144684
     -3.198198     14.198503     14.198503     28.397006
     -3.188188     11.555819     11.555819     23.111638
     -3.178178      9.172809      9.172809     18.345619
     -3.168168      7.231733      7.231733     14.463466
     -3.158158      6.010290      6.010290     12.020581
     -3.148148      5.801741      5.801741     11.603481
     -3.138138      6.842580      6.842580     13.685161
     -3.128128      9.249146      9.249146     18.498292
     -3.118118     12.955612     12.955612     25.911223
     -3.108108     17.662044     17.662044     35.324088
     -3.098098     22.824398     22.824398     45.648796
     -3.088088     27.722324     27.722324     55.444647
     -3.078078     31.612071     31.612071     63.224142
     -3.068068     33.922490     33.922490     67.844980
     -3.058058     34.414024     34.414024     68.828047
     -3.048048     33.224611     33.224611     66.449223
     -3.038038     30.778337     30.778337     61.556675
     -3.028028     27.604729     27.604729     55.209457
     -3.018018     24.163212     24.163212     48.326424
     -3.008008     20.757319     20.757319     41.514638
     -2.997998     17.563858     17.563858     35.127716
     -2.987988     14.734002     14.734002     29.468003
     -2.977978     12.489320     12.489320     24.978639
     -2.967968     11.150953     11.150953     22.301905
     -2.957958     11.084926     11.084926     22.169851
     -2.947948     12.588740     12.588740     25.177480
     -2.937938     15.764718     15.764718     31.529436
     -2.927928     20.425899     20.425899     40.851798
     -2.917918     26.070824     26.070824     52.141648
     -2.907908     31.948461     31.948461     63.896922
     -2.897898     37.210593     37.210593     74.421185
     -2.887888     41.116203     41.116203     82.232407
     -2.877878     43.222448     43.222448     86.444896
     -2.867868     43.488731     43.488731     86.977461
     -2.857858     42.246824     42.246824     84.493648
     -2.847848     40.044691     40.044691     80.089383
     -2.837838     37.429623     37.429623     74.859245
     -2.827828     34.766204     34.766204     69.532408
     -2.817818     32.167508     32.167508     64.335016
     -2.807808     29.559991     29.559991     59.119983
     -2.797798     26.833980     26.833980     53.667959
     -2.787788     23.989859     23.989859     47.979717
     -2.777778     21.198441     21.198441     42.396882
     -2.767768     18.747210     18.747210     37.494420
     -2.757758     16.911431     16.911431     33.822861
     -2.747748     15.831504     15.831504     31.663007
     -2.737738     15.470749     15.470749     30.941499
     -2.727728     15.675132     15.675132     31.350263
     -2.717718     16.290112     16.290112     32.580224
     -2.707708     17.252080     17.252080     34.504159
     -2.697698     18.589213     18.589213     37.178427
     -2.687688     20.330769     20.330769     40.661539
     -2.677678     22.392617     22.392617     44.785235
     -2.667668     24.530869     24.530869     49.061737
     -2.657658     26.413198     26.413198     52.826396
     -2.647648     27.774859     27.774859     55.549718
     -2.637638     28.561735     28.561735     57.123469
     -2.627628     28.964760     28.964760     57.929519
     -2.617618     29.319508     29.319508     58.639015
     -2.607608     29.931714     29.931714     59.863428
     -2.597598     30.931177     30.931177     61.862354
     -2.587588     32.226180     32.226180     64.452360
     -2.577578     33.557717     33.557717     67.115435
     -2.567568     34.596383     34.596383     69.192766
     -2.557558     35.023571     35.023571     70.047142
     -2.547548     34.581290     34.581290     69.162581
     -2.537538     33.114713     33.114713     66.229426
     -2.527528     30.631101     30.631101     61.262203
     -2.517518     27.362174     27.362174     54.724348
     -2.507508     23.782786     23.782786     47.565572
     -2.497497     20.542316     20.542316     41.084631
     -2.487487     18.307863     18.307863     36.615727
     -2.477477     17.570326     17.570326     35.140652
     -2.467467     18.491419     18.491419     36.982839
     -2.457457     20.857534     20.857534     41.715067
     -2.447447     24.163334     24.163334     48.326668
     -2.437437     27.794388     27.794388     55.588776
     -2.427427     31.235095     31.235095     62.470189
     -2.417417     34.213898     34.213898     68.427796
     -2.407407     36.721917     36.721917     73.443833
     -2.397397     38.897911     38.897911     77.795822
     -2.387387     40.838193     40.838193     81.676386
     -2.377377     42.432074     42.432074     84.864147
     -2.367367     43.317107     43.317107     86.634214
     -2.357357     42.991961     42.991961     85.983922
     -2.347347     41.043361     41.043361     82.086721
     -2.337337     37.379719     37.379719     74.759438
     -2.327327     32.355149     32.355149     64.710298
     -2.317317     26.721284     26.721284     53.442569
     -2.307307     21.430031     21.430031     42.860062
     -2.297297     17.377232     17.377232     34.754463
     -2.287287     15.189765     15.189765     30.379530
     -2.277277     15.119492     15.119492     30.238984
     -2.267267     17.049936     17.049936     34.099873
     -2.257257     20.580411     20.580411     41.160823
     -2.247247     25.140916     25.140916     50.281831
     -2.237237     30.101227     30.101227     60.202453
     -2.227227     34.854359     34.854359     69.708718
     -2.217217     38.869289     38.869289     77.738577
     -2.207207     41.719456     41.719456     83.438912
     -2.197197     43.101952     43.101952     86.203905
     -2.187187     42.863664     42.863664     85.727327
     -2.177177     41.039733     41.039733     82.079466
     -2.167167     37.888123     37.888123     75.776247
     -2.157157     33.885484     33.885484     67.770968
     -2.147147     29.653196     29.653196     59.306393
     -2.137137     25.815501     25.815501     51.631002
     -2.127127     22.836375     22.836375     45.672751
     -2.117117     20.904864     20.904864     41.809727
     -2.107107     19.918302     19.918302     39.836604
     -2.097097     19.560995     19.560995     39.121990
     -2.087087     19.429633     19.429633     38.859265
     -2.077077     19.147408     19.147408     38.294817
     -2.067067     18.435587     18.435587     36.871174
     -2.057057     17.145352     17.145352     34.290704
     -2.047047     15.266405     15.266405     30.532809
     -2.037037     12.919321     12.919321     25.838642
     -2.027027     10.325935     10.325935     20.651870
     -2.017017      7.754280      7.754280     15.508559
     -2.007007      5.450549      5.450549     10.901097
     -1.996997      3.583549      3.583549      7.167098
     -1.986987      2.223791      2.223791      4.447582
     -1.976977      1.361959      1.361959      2.723918
     -1.966967      0.952951      0.952951      1.905901
     -1.956957      0.962979      0.962979      1.925958
     -1.946947      1.399731      1.399731      2.799463
     -1.936937      2.314210      2.314210      4.628421
     -1.926927      3.772820      3.772820      7.545641
     -1.916917      5.808217      5.808217     11.616433
     -1.906907      8.366632      8.366632     16.733264
     -1.896897     11.274564     11.274564     22.549127
     -1.886887     14.243996     14.243996     28.487992
     -1.876877     16.921662     16.921662     33.843324
     -1.866867     18.969955     18.969955     37.939910
     -1.856857     20.154177     20.154177     40.308354
     -1.846847     20.408073     20.408073     40.816146
     -1.836837     19.855310     19.855310     39.710621
     -1.826827     18.774950     18.774950     37.549899
     -1.816817     17.513714     17.513714     35.027428
     -1.806807     16.368165     16.368165     32.736330
     -1.796797     15.479982     15.479982     30.959964
     -1.786787     14.792638     14.792638     29.585276
     -1.776777     14.095651     14.095651     28.191301
     -1.766767     13.139160     13.139160     26.278321
     -1.756757     11.762469     11.762469     23.524938
     -1.746747      9.972825      9.972825     19.945651
     -1.736737      7.941484      7.941484     15.882968
     -1.726727      5.931888      5.931888     11.863776
     -1.716717      4.207726      4.207726      8.415452
     -1.706707      2.968058      2.968058      5.936115
     -1.696697      2.328755      2.328755      4.657510
     -1.686687      2.336762      2.336762      4.673524
     -1.676677      2.987134      2.987134      5.974269
     -1.666667      4.219782      4.219782      8.439563
     -1.656657      5.895915      5.895915     11.791830
     -1.646647      7.777671      7.777671     15.555341
     -1.636637      9.542786      9.542786     19.085571
     -1.626627     10.852035     10.852035     21.704070
