# EIG2DOS: Utility for SIESTA to obtain the electronic density of states
#  E. Artacho, Apr 1999, A. Garcia, Apr 2012
#  Nick R. Papior, Feb 2017
# ------------------------------------------
# Eigenvalues calculated from a non-polarized calculation
# Eigenvalues read from siesta.EIG
# Kpoint weights read from siesta.KP
# Using smearing parameter:   0.0500
# Using 1000 points in the energy range
# Selected bands: 1 to: 2981
# Emin, Emax in file for selected band(s):    -27.3675461    218.4047210
# Nbands, Nspin, Nk   =   2981     1     1
# E_F                 =    -4.1946 eV --> (shifted to ZERO)
# Broadening          =     0.0500 eV
#
#        E            N(up)  (=)   N(down)         Ntot
     -5.000000     31.685253     31.685253     63.370507
     -4.989990     36.934289     36.934289     73.868578
     -4.979980     41.893518     41.893518     83.787035
     -4.969970     45.686465     45.686465     91.372930
     -4.959960     47.581490     47.581490     95.162979
     -4.949950     47.238107     47.238107     94.476214
     -4.939940     44.825464     44.825464     89.650928
     -4.929930     40.980121     40.980121     81.960243
     -4.919920     36.643919     36.643919     73.287838
     -4.909910     32.856050     32.856050     65.712100
     -4.899900     30.555228     30.555228     61.110455
     -4.889890     30.408505     30.408505     60.817011
     -4.879880     32.666214     32.666214     65.332428
     -4.869870     37.063073     37.063073     74.126146
     -4.859860     42.817140     42.817140     85.634279
     -4.849850     48.776770     48.776770     97.553540
     -4.839840     53.711860     53.711860    107.423720
     -4.829830     56.665484     56.665484    113.330967
     -4.819820     57.229738     57.229738    114.459477
     -4.809810     55.626547     55.626547    111.253093
     -4.799800     52.558378     52.558378    105.116756
     -4.789790     48.900367     48.900367     97.800735
     -4.779780     45.375071     45.375071     90.750142
     -4.769770     42.347401     42.347401     84.694801
     -4.759760     39.806262     39.806262     79.612523
     -4.749750     37.503996     37.503996     75.007991
     -4.739740     35.156675     35.156675     70.313350
     -4.729730     32.598555     32.598555     65.197110
     -4.719720     29.828761     29.828761     59.657522
     -4.709710     26.956638     26.956638     53.913275
     -4.699700     24.105904     24.105904     48.211809
     -4.689690     21.350835     21.350835     42.701671
     -4.679680     18.727694     18.727694     37.455387
     -4.669670     16.312279     16.312279     32.624557
     -4.659660     14.311304     14.311304     28.622608
     -4.649650     13.104339     13.104339     26.208679
     -4.639640     13.195713     13.195713     26.391427
     -4.629630     15.075510     15.075510     30.151021
     -4.619620     19.027002     19.027002     38.054004
     -4.609610     24.944951     24.944951     49.889903
     -4.599600     32.240842     32.240842     64.481684
     -4.589590     39.899057     39.899057     79.798115
     -4.579580     46.702985     46.702985     93.405970
     -4.569570     51.577856     51.577856    103.155712
     -4.559560     53.929289     53.929289    107.858578
     -4.549550     53.836097     53.836097    107.672193
     -4.539540     52.005656     52.005656    104.011313
     -4.529530     49.500954     49.500954     99.001908
     -4.519520     47.348812     47.348812     94.697623
     -4.509510     46.187662     46.187662     92.375324
     -4.499499     46.089393     46.089393     92.178787
     -4.489489     46.609355     46.609355     93.218710
     -4.479479     47.021773     47.021773     94.043547
     -4.469469     46.627676     46.627676     93.255352
     -4.459459     45.006744     45.006744     90.013488
     -4.449449     42.125387     42.125387     84.250773
     -4.439439     38.287602     38.287602     76.575205
     -4.429429     33.985364     33.985364     67.970727
     -4.419419     29.737414     29.737414     59.474828
     -4.409409     25.986369     25.986369     51.972737
     -4.399399     23.070027     23.070027     46.140054
     -4.389389     21.231006     21.231006     42.462013
     -4.379379     20.614092     20.614092     41.228185
     -4.369369     21.230293     21.230293     42.460586
     -4.359359     22.913987     22.913987     45.827974
     -4.349349     25.324556     25.324556     50.649112
     -4.339339     28.024847     28.024847     56.049694
     -4.329329     30.619112     30.619112     61.238225
     -4.319319     32.889203     32.889203     65.778406
     -4.309309     34.859778     34.859778     69.719557
     -4.299299     36.754412     36.754412     73.508825
     -4.289289     38.854091     38.854091     77.708182
     -4.279279     41.312515     41.312515     82.625031
     -4.269269     44.004221     44.004221     88.008441
     -4.259259     46.477386     46.477386     92.954772
     -4.249249     48.052123     48.052123     96.104247
     -4.239239     48.049181     48.049181     96.098362
     -4.229229     46.069274     46.069274     92.138548
     -4.219219     42.202288     42.202288     84.404575
     -4.209209     37.060817     37.060817     74.121634
     -4.199199     31.607825     31.607825     63.215650
     -4.189189     26.847076     26.847076     53.694152
     -4.179179     23.511084     23.511084     47.022168
     -4.169169     21.877240     21.877240     43.754480
     -4.159159     21.774947     21.774947     43.549893
     -4.149149     22.756301     22.756301     45.512601
     -4.139139     24.335919     24.335919     48.671839
     -4.129129     26.186884     26.186884     52.373768
     -4.119119     28.208990     28.208990     56.417980
     -4.109109     30.447061     30.447061     60.894123
     -4.099099     32.909044     32.909044     65.818088
     -4.089089     35.388711     35.388711     70.777422
     -4.079079     37.406707     37.406707     74.813413
     -4.069069     38.330046     38.330046     76.660093
     -4.059059     37.631968     37.631968     75.263936
     -4.049049     35.165247     35.165247     70.330495
     -4.039039     31.302013     31.302013     62.604026
     -4.029029     26.860586     26.860586     53.721172
     -4.019019     22.854024     22.854024     45.708049
     -4.009009     20.183286     20.183286     40.366573
     -3.998999     19.409440     19.409440     38.818879
     -3.988989     20.678365     20.678365     41.356730
     -3.978979     23.786230     23.786230     47.572460
     -3.968969     28.317480     28.317480     56.634961
     -3.958959     33.782571     33.782571     67.565141
     -3.948949     39.716338     39.716338     79.432676
     -3.938939     45.735797     45.735797     91.471594
     -3.928929     51.570538     51.570538    103.141076
     -3.918919     57.067560     57.067560    114.135119
     -3.908909     62.156966     62.156966    124.313931
     -3.898899     66.770431     66.770431    133.540863
     -3.888889     70.734610     70.734610    141.469219
     -3.878879     73.694208     73.694208    147.388415
     -3.868869     75.124102     75.124102    150.248203
     -3.858859     74.454689     74.454689    148.909378
     -3.848849     71.276725     71.276725    142.553451
     -3.838839     65.544828     65.544828    131.089657
     -3.828829     57.689883     57.689883    115.379767
     -3.818819     48.584587     48.584587     97.169174
     -3.808809     39.365235     39.365235     78.730469
     -3.798799     31.167938     31.167938     62.335876
     -3.788789     24.865326     24.865326     49.730652
     -3.778779     20.882838     20.882838     41.765676
     -3.768769     19.140907     19.140907     38.281815
     -3.758759     19.127890     19.127890     38.255780
     -3.748749     20.073960     20.073960     40.147920
     -3.738739     21.175768     21.175768     42.351536
     -3.728729     21.815498     21.815498     43.630996
     -3.718719     21.722654     21.722654     43.445308
     -3.708709     21.039374     21.039374     42.078749
     -3.698699     20.269007     20.269007     40.538014
     -3.688689     20.113129     20.113129     40.226257
     -3.678679     21.233002     21.233002     42.466004
     -3.668669     24.001772     24.001772     48.003543
     -3.658659     28.330742     28.330742     56.661484
     -3.648649     33.641407     33.641407     67.282813
     -3.638639     39.007557     39.007557     78.015113
     -3.628629     43.422505     43.422505     86.845010
     -3.618619     46.089355     46.089355     92.178711
     -3.608609     46.622692     46.622692     93.245384
     -3.598599     45.097021     45.097021     90.194042
     -3.588589     41.951930     41.951930     83.903860
     -3.578579     37.819413     37.819413     75.638825
     -3.568569     33.347009     33.347009     66.694018
     -3.558559     29.061856     29.061856     58.123712
     -3.548549     25.289253     25.289253     50.578506
     -3.538539     22.127702     22.127702     44.255403
     -3.528529     19.484240     19.484240     38.968480
     -3.518519     17.167834     17.167834     34.335667
     -3.508509     15.016015     15.016015     30.032030
     -3.498498     13.006186     13.006186     26.012373
     -3.488488     11.300964     11.300964     22.601928
     -3.478478     10.203430     10.203430     20.406861
     -3.468468     10.037795     10.037795     20.075590
     -3.458458     11.001416     11.001416     22.002831
     -3.448448     13.044122     13.044122     26.088243
     -3.438438     15.822598     15.822598     31.645195
     -3.428428     18.756828     18.756828     37.513655
     -3.418418     21.184154     21.184154     42.368308
     -3.408408     22.568191     22.568191     45.136383
     -3.398398     22.688560     22.688560     45.377120
     -3.388388     21.733803     21.733803     43.467605
     -3.378378     20.254558     20.254558     40.509115
     -3.368368     18.993619     18.993619     37.987237
     -3.358358     18.661039     18.661039     37.322078
     -3.348348     19.736244     19.736244     39.472489
     -3.338338     22.351188     22.351188     44.702377
     -3.328328     26.263715     26.263715     52.527430
     -3.318318     30.902088     30.902088     61.804176
     -3.308308     35.464277     35.464277     70.928554
     -3.298298     39.071434     39.071434     78.142867
     -3.288288     40.971388     40.971388     81.942775
     -3.278278     40.751677     40.751677     81.503353
     -3.268268     38.479374     38.479374     76.958749
     -3.258258     34.684392     34.684392     69.368785
     -3.248248     30.166794     30.166794     60.333587
     -3.238238     25.704828     25.704828     51.409656
     -3.228228     21.801652     21.801652     43.603304
     -3.218218     18.587619     18.587619     37.175238
     -3.208208     15.904282     15.904282     31.808565
     -3.198198     13.498303     13.498303     26.996605
     -3.188188     11.210455     11.210455     22.420910
     -3.178178      9.074146      9.074146     18.148293
     -3.168168      7.306123      7.306123     14.612246
     -3.158158      6.228095      6.228095     12.456191
     -3.148148      6.171253      6.171253     12.342505
     -3.138138      7.392807      7.392807     14.785614
     -3.128128     10.005412     10.005412     20.010824
     -3.118118     13.913384     13.913384     27.826768
     -3.108108     18.767285     18.767285     37.534571
     -3.098098     23.970024     23.970024     47.940048
     -3.088088     28.766618     28.766618     57.533236
     -3.078078     32.415648     32.415648     64.831296
     -3.068068     34.389640     34.389640     68.779280
     -3.058058     34.519252     34.519252     69.038504
     -3.048048     33.011055     33.011055     66.022110
     -3.038038     30.329840     30.329840     60.659679
     -3.028028     27.008476     27.008476     54.016953
     -3.018018     23.484545     23.484545     46.969090
     -3.008008     20.038994     20.038994     40.077988
     -2.997998     16.845370     16.845370     33.690740
     -2.987988     14.074317     14.074317     28.148635
     -2.977978     11.976173     11.976173     23.952347
     -2.967968     10.889794     10.889794     21.779588
     -2.957958     11.172367     11.172367     22.344733
     -2.947948     13.081726     13.081726     26.163453
     -2.937938     16.656432     16.656432     33.312865
     -2.927928     21.635766     21.635766     43.271533
     -2.917918     27.452090     27.452090     54.904179
     -2.907908     33.313170     33.313170     66.626340
     -2.897898     38.367546     38.367546     76.735091
     -2.887888     41.912798     41.912798     83.825597
     -2.877878     43.578140     43.578140     87.156280
     -2.867868     43.408667     43.408667     86.817334
     -2.857858     41.810126     41.810126     83.620253
     -2.847848     39.371465     39.371465     78.742929
     -2.837838     36.640129     36.640129     73.280259
     -2.827828     33.949602     33.949602     67.899203
     -2.817818     31.372847     31.372847     62.745694
     -2.807808     28.810183     28.810183     57.620365
     -2.797798     26.150585     26.150585     52.301171
     -2.787788     23.410824     23.410824     46.821648
     -2.777778     20.776365     20.776365     41.552730
     -2.767768     18.529524     18.529524     37.059049
     -2.757758     16.917166     16.917166     33.834333
     -2.747748     16.043033     16.043033     32.086066
     -2.737738     15.849348     15.849348     31.698697
     -2.727728     16.191569     16.191569     32.383138
     -2.717718     16.947561     16.947561     33.895122
     -2.707708     18.079842     18.079842     36.159685
     -2.697698     19.604347     19.604347     39.208693
     -2.687688     21.489954     21.489954     42.979909
     -2.677678     23.570209     23.570209     47.140418
     -2.667668     25.547986     25.547986     51.095972
     -2.657658     27.110894     27.110894     54.221787
     -2.647648     28.092551     28.092551     56.185102
     -2.637638     28.573759     28.573759     57.147518
     -2.627628     28.851089     28.851089     57.702177
     -2.617618     29.286139     29.286139     58.572278
     -2.607608     30.124396     30.124396     60.248791
     -2.597598     31.384371     31.384371     62.768742
     -2.587588     32.862207     32.862207     65.724414
     -2.577578     34.221583     34.221583     68.443166
     -2.567568     35.100979     35.100979     70.201958
     -2.557558     35.190211     35.190211     70.380423
     -2.547548     34.276386     34.276386     68.552772
     -2.537538     32.287518     32.287518     64.575035
     -2.527528     29.346969     29.346969     58.693937
     -2.517518     25.813404     25.813404     51.626809
     -2.507508     22.259807     22.259807     44.519614
     -2.497497     19.364449     19.364449     38.728898
     -2.487487     17.734377     17.734377     35.468754
     -2.477477     17.724513     17.724513     35.449026
     -2.467467     19.326489     19.326489     38.652977
     -2.457457     22.176562     22.176562     44.353124
     -2.447447     25.684982     25.684982     51.369965
     -2.437437     29.239614     29.239614     58.479228
     -2.427427     32.403294     32.403294     64.806587
     -2.417417     35.022000     35.022000     70.044000
     -2.407407     37.194964     37.194964     74.389928
     -2.397397     39.118732     39.118732     78.237465
     -2.387387     40.879794     40.879794     81.759587
     -2.377377     42.303585     42.303585     84.607170
     -2.367367     42.949340     42.949340     85.898680
     -2.357357     42.271628     42.271628     84.543257
     -2.347347     39.881071     39.881071     79.762142
     -2.337337     35.777477     35.777477     71.554955
     -2.327327     30.437159     30.437159     60.874319
     -2.317317     24.711063     24.711063     49.422126
     -2.307307     19.586190     19.586190     39.172381
     -2.297297     15.920939     15.920939     31.841879
     -2.287287     14.256481     14.256481     28.512961
     -2.277277     14.749296     14.749296     29.498591
     -2.267267     17.208791     17.208791     34.417582
     -2.257257     21.192319     21.192319     42.384637
     -2.247247     26.112118     26.112118     52.224237
     -2.237237     31.327786     31.327786     62.655572
     -2.227227     36.216201     36.216201     72.432402
     -2.217217     40.221796     40.221796     80.443593
     -2.207207     42.895462     42.895462     85.790924
     -2.197197     43.932240     43.932240     87.864480
     -2.187187     43.213983     43.213983     86.427965
     -2.177177     40.850330     40.850330     81.700660
     -2.167167     37.193913     37.193913     74.387827
     -2.157157     32.797948     32.797948     65.595896
     -2.147147     28.301300     28.301300     56.602599
     -2.137137     24.266673     24.266673     48.533345
     -2.127127     21.036939     21.036939     42.073878
     -2.117117     18.679611     18.679611     37.359221
     -2.107107     17.046877     17.046877     34.093754
     -2.097097     15.912060     15.912060     31.824120
     -2.087087     15.098702     15.098702     30.197405
     -2.077077     14.529019     14.529019     29.058038
     -2.067067     14.177468     14.177468     28.354936
     -2.057057     13.980656     13.980656     27.961312
     -2.047047     13.780654     13.780654     27.561307
     -2.037037     13.349361     13.349361     26.698722
     -2.027027     12.481088     12.481088     24.962175
     -2.017017     11.093520     11.093520     22.187040
     -2.007007      9.274632      9.274632     18.549264
     -1.996997      7.251670      7.251670     14.503339
     -1.986987      5.307096      5.307096     10.614191
     -1.976977      3.692130      3.692130      7.384261
     -1.966967      2.579251      2.579251      5.158503
     -1.956957      2.063536      2.063536      4.127073
     -1.946947      2.192667      2.192667      4.385334
     -1.936937      2.993637      2.993637      5.987274
     -1.926927      4.473254      4.473254      8.946507
     -1.916917      6.590553      6.590553     13.181105
     -1.906907      9.219459      9.219459     18.438918
     -1.896897     12.128789     12.128789     24.257578
     -1.886887     14.999740     14.999740     29.999479
     -1.876877     17.482752     17.482752     34.965503
     -1.866867     19.276862     19.276862     38.553723
     -1.856857     20.205119     20.205119     40.410238
     -1.846847     20.261419     20.261419     40.522838
     -1.836837     19.612154     19.612154     39.224309
     -1.826827     18.546351     18.546351     37.092703
     -1.816817     17.381964     17.381964     34.763928
     -1.806807     16.355256     16.355256     32.710513
     -1.796797     15.537048     15.537048     31.074095
     -1.786787     14.818128     14.818128     29.636256
     -1.776777     13.977441     13.977441     27.954882
     -1.766767     12.802684     12.802684     25.605369
     -1.756757     11.202388     11.202388     22.404776
     -1.746747      9.254144      9.254144     18.508287
     -1.736737      7.172660      7.172660     14.345321
     -1.726727      5.226503      5.226503     10.453005
     -1.716717      3.654053      3.654053      7.308106
     -1.706707      2.617261      2.617261      5.234523
     -1.696697      2.199596      2.199596      4.399193
     -1.686687      2.426161      2.426161      4.852322
     -1.676677      3.275829      3.275829      6.551658
     -1.666667      4.669205      4.669205      9.338410
     -1.656657      6.441177      6.441177     12.882353
     -1.646647      8.326728      8.326728     16.653457
     -1.636637      9.990078      9.990078     19.980157
     -1.626627     11.106635     11.106635     22.213270
