# EIG2DOS: Utility for SIESTA to obtain the electronic density of states
#  E. Artacho, Apr 1999, A. Garcia, Apr 2012
#  Nick R. Papior, Feb 2017
# ------------------------------------------
# Eigenvalues calculated from a non-polarized calculation
# Eigenvalues read from siesta.EIG
# Kpoint weights read from siesta.KP
# Using smearing parameter:   0.0500
# Using 1000 points in the energy range
# Selected bands: 1 to: 2981
# Emin, Emax in file for selected band(s):    -27.2293443    218.3986390
# Nbands, Nspin, Nk   =   2981     1     1
# E_F                 =    -4.1930 eV --> (shifted to ZERO)
# Broadening          =     0.0500 eV
#
#        E            N(up)  (=)   N(down)         Ntot
     -5.000000     32.486352     32.486352     64.972704
     -4.989990     37.761308     37.761308     75.522617
     -4.979980     42.605741     42.605741     85.211482
     -4.969970     46.144119     46.144119     92.288239
     -4.959960     47.692796     47.692796     95.385591
     -4.949950     46.991626     46.991626     93.983252
     -4.939940     44.293920     44.293920     88.587841
     -4.929930     40.296661     40.296661     80.593321
     -4.919920     35.964154     35.964154     71.928309
     -4.909910     32.321653     32.321653     64.643306
     -4.899900     30.267757     30.267757     60.535515
     -4.889890     30.413078     30.413078     60.826157
     -4.879880     32.940842     32.940842     65.881683
     -4.869870     37.512298     37.512298     75.024595
     -4.859860     43.272947     43.272947     86.545893
     -4.849850     49.009897     49.009897     98.019794
     -4.839840     53.451742     53.451742    106.903485
     -4.829830     55.622107     55.622107    111.244213
     -4.819820     55.111790     55.111790    110.223580
     -4.809810     52.158530     52.158530    104.317060
     -4.799800     47.508313     47.508313     95.016627
     -4.789790     42.129536     42.129536     84.259072
     -4.779780     36.907114     36.907114     73.814228
     -4.769770     32.432481     32.432481     64.864962
     -4.759760     28.942771     28.942771     57.885542
     -4.749750     26.389508     26.389508     52.779015
     -4.739740     24.571511     24.571511     49.143022
     -4.729730     23.262116     23.262116     46.524232
     -4.719720     22.286736     22.286736     44.573472
     -4.709710     21.542914     21.542914     43.085828
     -4.699700     20.983602     20.983602     41.967204
     -4.689690     20.595275     20.595275     41.190550
     -4.679680     20.393765     20.393765     40.787530
     -4.669670     20.440467     20.440467     40.880935
     -4.659660     20.864041     20.864041     41.728081
     -4.649650     21.867742     21.867742     43.735483
     -4.639640     23.707422     23.707422     47.414843
     -4.629630     26.631163     26.631163     53.262326
     -4.619620     30.778297     30.778297     61.556594
     -4.609610     36.053770     36.053770     72.107540
     -4.599600     42.026714     42.026714     84.053428
     -4.589590     47.927637     47.927637     95.855274
     -4.579580     52.800801     52.800801    105.601601
     -4.569570     55.794763     55.794763    111.589526
     -4.559560     56.481652     56.481652    112.963304
     -4.549550     55.050665     55.050665    110.101330
     -4.539540     52.265385     52.265385    104.530770
     -4.529530     49.187932     49.187932     98.375865
     -4.519520     46.787883     46.787883     93.575767
     -4.509510     45.604885     45.604885     91.209770
     -4.499499     45.599586     45.599586     91.199172
     -4.489489     46.235286     46.235286     92.470573
     -4.479479     46.733077     46.733077     93.466153
     -4.469469     46.380533     46.380533     92.761066
     -4.459459     44.769263     44.769263     89.538526
     -4.449449     41.884246     41.884246     83.768491
     -4.439439     38.041705     38.041705     76.083410
     -4.429429     33.736738     33.736738     67.473476
     -4.419419     29.487328     29.487328     58.974656
     -4.409409     25.738333     25.738333     51.476666
     -4.399399     22.835326     22.835326     45.670653
     -4.389389     21.030446     21.030446     42.060892
     -4.379379     20.472718     20.472718     40.945435
     -4.369369     21.167598     21.167598     42.335195
     -4.359359     22.936149     22.936149     45.872298
     -4.349349     25.424467     25.424467     50.848933
     -4.339339     28.190466     28.190466     56.380933
     -4.329329     30.844673     30.844673     61.689347
     -4.319319     33.181101     33.181101     66.362202
     -4.309309     35.231554     35.231554     70.463109
     -4.299299     37.211584     37.211584     74.423167
     -4.289289     39.376103     39.376103     78.752206
     -4.279279     41.842124     41.842124     83.684248
     -4.269269     44.452321     44.452321     88.904642
     -4.259259     46.744558     46.744558     93.489115
     -4.249249     48.059989     48.059989     96.119979
     -4.239239     47.769185     47.769185     95.538371
     -4.229229     45.536619     45.536619     91.073239
     -4.219219     41.508836     41.508836     83.017673
     -4.209209     36.329764     36.329764     72.659528
     -4.199199     30.960300     30.960300     61.920601
     -4.189189     26.372952     26.372952     52.745904
     -4.179179     23.252765     23.252765     46.505529
     -4.169169     21.828967     21.828967     43.657934
     -4.159159     21.894770     21.894770     43.789541
     -4.149149     22.985233     22.985233     45.970466
     -4.139139     24.618262     24.618262     49.236523
     -4.129129     26.485736     26.485736     52.971471
     -4.119119     28.511406     28.511406     57.022811
     -4.109109     30.755856     30.755856     61.511712
     -4.099099     33.224057     33.224057     66.448115
     -4.089089     35.687423     35.687423     71.374847
     -4.079079     37.637216     37.637216     75.274433
     -4.069069     38.424314     38.424314     76.848627
     -4.059059     37.535237     37.535237     75.070474
     -4.049049     34.866286     34.866286     69.732572
     -4.039039     30.846654     30.846654     61.693308
     -4.029029     26.340263     26.340263     52.680526
     -4.019019     22.375330     22.375330     44.750661
     -4.009009     19.834381     19.834381     39.668763
     -3.998999     19.238600     19.238600     38.477200
     -3.988989     20.691110     20.691110     41.382219
     -3.978979     23.957163     23.957163     47.914326
     -3.968969     28.607599     28.607599     57.215199
     -3.958959     34.153933     34.153933     68.307866
     -3.948949     40.140813     40.140813     80.281626
     -3.938939     46.198738     46.198738     92.397476
     -3.928929     52.070931     52.070931    104.141863
     -3.918919     57.614284     57.614284    115.228568
     -3.908909     62.759375     62.759375    125.518749
     -3.898899     67.423252     67.423252    134.846504
     -3.888889     71.401870     71.401870    142.803739
     -3.878879     74.301137     74.301137    148.602273
     -3.868869     75.565491     75.565491    151.130983
     -3.858859     74.621566     74.621566    149.243133
     -3.848849     71.093328     71.093328    142.186656
     -3.838839     65.000669     65.000669    130.001339
     -3.828829     56.852063     56.852063    113.704125
     -3.818819     47.583812     47.583812     95.167625
     -3.808809     38.360667     38.360667     76.721334
     -3.798799     30.304532     30.304532     60.609064
     -3.788789     24.238855     24.238855     48.477709
     -3.778779     20.522801     20.522801     41.045603
     -3.768769     19.013783     19.013783     38.027566
     -3.758759     19.156623     19.156623     38.313245
     -3.748749     20.166097     20.166097     40.332194
     -3.738739     21.252066     21.252066     42.504133
     -3.728729     21.832048     21.832048     43.664096
     -3.718719     21.681618     21.681618     43.363235
     -3.708709     20.985887     20.985887     41.971774
     -3.698699     20.274657     20.274657     40.549313
     -3.688689     20.249765     20.249765     40.499531
     -3.678679     21.544143     21.544143     43.088287
     -3.668669     24.481234     24.481234     48.962467
     -3.658659     28.917370     28.917370     57.834740
     -3.648649     34.233630     34.233630     68.467259
     -3.638639     39.493227     39.493227     78.986454
     -3.628629     43.712190     43.712190     87.424380
     -3.618619     46.139575     46.139575     92.279151
     -3.608609     46.441095     46.441095     92.882191
     -3.598599     44.730826     44.730826     89.461652
     -3.588589     41.468112     41.468112     82.936225
     -3.578579     37.286035     37.286035     74.572071
     -3.568569     32.820661     32.820661     65.641321
     -3.558559     28.580887     28.580887     57.161774
     -3.548549     24.870138     24.870138     49.740277
     -3.538539     21.762536     21.762536     43.525072
     -3.528529     19.138338     19.138338     38.276677
     -3.518519     16.775603     16.775603     33.551206
     -3.508509     14.471862     14.471862     28.943724
     -3.498498     12.148664     12.148664     24.297329
     -3.488488      9.894864      9.894864     19.789727
     -3.478478      7.933880      7.933880     15.867760
     -3.468468      6.535935      6.535935     13.071871
     -3.458458      5.915297      5.915297     11.830593
     -3.448448      6.148728      6.148728     12.297457
     -3.438438      7.136554      7.136554     14.273108
     -3.428428      8.615945      8.615945     17.231890
     -3.418418     10.228857     10.228857     20.457715
     -3.408408     11.635659     11.635659     23.271319
     -3.398398     12.645703     12.645703     25.291406
     -3.388388     13.317580     13.317580     26.635160
     -3.378378     13.981748     13.981748     27.963496
     -3.368368     15.163791     15.163791     30.327582
     -3.358358     17.425702     17.425702     34.851404
     -3.348348     21.172689     21.172689     42.345379
     -3.338338     26.480564     26.480564     52.961128
     -3.328328     32.989287     32.989287     65.978573
     -3.318318     39.896312     39.896312     79.792623
     -3.308308     46.073007     46.073007     92.146015
     -3.298298     50.305683     50.305683    100.611367
     -3.288288     51.617262     51.617262    103.234524
     -3.278278     49.569976     49.569976     99.139953
     -3.268268     44.424645     44.424645     88.849290
     -3.258258     37.073980     37.073980     74.147959
     -3.248248     28.767246     28.767246     57.534491
     -3.238238     20.743975     20.743975     41.487950
     -3.228228     13.930785     13.930785     27.861570
     -3.218218      8.807307      8.807307     17.614614
     -3.208208      5.451922      5.451922     10.903843
     -3.198198      3.697141      3.697141      7.394282
     -3.188188      3.297889      3.297889      6.595779
     -3.178178      4.042133      4.042133      8.084265
     -3.168168      5.782919      5.782919     11.565837
     -3.158158      8.412866      8.412866     16.825731
     -3.148148     11.819563     11.819563     23.639127
     -3.138138     15.852432     15.852432     31.704863
     -3.128128     20.309510     20.309510     40.619020
     -3.118118     24.933863     24.933863     49.867727
     -3.108108     29.408413     29.408413     58.816826
     -3.098098     33.355299     33.355299     66.710598
     -3.088088     36.363564     36.363564     72.727128
     -3.078078     38.064006     38.064006     76.128011
     -3.068068     38.237128     38.237128     76.474256
     -3.058058     36.902255     36.902255     73.804509
     -3.048048     34.328600     34.328600     68.657201
     -3.038038     30.947849     30.947849     61.895698
     -3.028028     27.209457     27.209457     54.418914
     -3.018018     23.458548     23.458548     46.917096
     -3.008008     19.901082     19.901082     39.802164
     -2.997998     16.662932     16.662932     33.325864
     -2.987988     13.891337     13.891337     27.782674
     -2.977978     11.827815     11.827815     23.655629
     -2.967968     10.806749     10.806749     21.613498
     -2.957958     11.178360     11.178360     22.356720
     -2.947948     13.188682     13.188682     26.377363
     -2.937938     16.860768     16.860768     33.721536
     -2.927928     21.917559     21.917559     43.835119
     -2.917918     27.777443     27.777443     55.554886
     -2.907908     33.639378     33.639378     67.278756
     -2.897898     38.650277     38.650277     77.300554
     -2.887888     42.114168     42.114168     84.228336
     -2.877878     43.674095     43.674095     87.348190
     -2.867868     43.393712     43.393712     86.787424
     -2.857858     41.697568     41.697568     83.395135
     -2.847848     39.188582     39.188582     78.377164
     -2.837838     36.419803     36.419803     72.839606
     -2.827828     33.721853     33.721853     67.443706
     -2.817818     31.159951     31.159951     62.319901
     -2.807808     28.626879     28.626879     57.253759
     -2.797798     26.007675     26.007675     52.015350
     -2.787788     23.318293     23.318293     46.636586
     -2.777778     20.742934     20.742934     41.485869
     -2.767768     18.558708     18.558708     37.117417
     -2.757758     17.003345     17.003345     34.006690
     -2.747748     16.171911     16.171911     32.343821
     -2.737738     16.004395     16.004395     32.008790
     -2.727728     16.363191     16.363191     32.726381
     -2.717718     17.138404     17.138404     34.276809
     -2.707708     18.300954     18.300954     36.601908
     -2.697698     19.862928     19.862928     39.725856
     -2.687688     21.776375     21.776375     43.552750
     -2.677678     23.854353     23.854353     47.708705
     -2.667668     25.790082     25.790082     51.580164
     -2.657658     27.282289     27.282289     54.564578
     -2.647648     28.194073     28.194073     56.388145
     -2.637638     28.639512     28.639512     57.279024
     -2.627628     28.934135     28.934135     57.868269
     -2.617618     29.433673     29.433673     58.867347
     -2.607608     30.355883     30.355883     60.711766
     -2.597598     31.682956     31.682956     63.365913
     -2.587588     33.180738     33.180738     66.361477
     -2.577578     34.496972     34.496972     68.993944
     -2.567568     35.269354     35.269354     70.538707
     -2.557558     35.199494     35.199494     70.398987
     -2.547548     34.097162     34.097162     68.194325
     -2.537538     31.923109     31.923109     63.846217
     -2.527528     28.840012     28.840012     57.680023
     -2.517518     25.243569     25.243569     50.487139
     -2.507508     21.729164     21.729164     43.458328
     -2.497497     18.972901     18.972901     37.945802
     -2.487487     17.553316     17.553316     35.106631
     -2.477477     17.778518     17.778518     35.557037
     -2.467467     19.589665     19.589665     39.179331
     -2.457457     22.584112     22.584112     45.168223
     -2.447447     26.154934     26.154934     52.309868
     -2.437437     29.696520     29.696520     59.393039
     -2.427427     32.795885     32.795885     65.591770
     -2.417417     35.329657     35.329657     70.659314
     -2.407407     37.421962     37.421962     74.843924
     -2.397397     39.279256     39.279256     78.558512
     -2.387387     40.979981     40.979981     81.959962
     -2.377377     42.328755     42.328755     84.657510
     -2.367367     42.863695     42.863695     85.727390
     -2.357357     42.032740     42.032740     84.065480
     -2.347347     39.463455     39.463455     78.926909
     -2.337337     35.193100     35.193100     70.386199
     -2.327327     29.740997     29.740997     59.481993
     -2.317317     23.987863     23.987863     47.975726
     -2.307307     18.925280     18.925280     37.850560
     -2.297297     15.391970     15.391970     30.783940
     -2.287287     13.896801     13.896801     27.793602
     -2.277277     14.565724     14.565724     29.131448
     -2.267267     17.188824     17.188824     34.377648
     -2.257257     21.316526     21.316526     42.633052
     -2.247247     26.361140     26.361140     52.722281
     -2.237237     31.681636     31.681636     63.363271
     -2.227227     36.647931     36.647931     73.295863
     -2.217217     40.690487     40.690487     81.380974
     -2.207207     43.344219     43.344219     86.688437
     -2.197197     44.295097     44.295097     88.590195
     -2.187187     43.431369     43.431369     86.862738
     -2.177177     40.887384     40.887384     81.774767
     -2.167167     37.052212     37.052212     74.104424
     -2.157157     32.511885     32.511885     65.023771
     -2.147147     27.916039     27.916039     55.832079
     -2.137137     23.802483     23.802483     47.604966
     -2.127127     20.450328     20.450328     40.900656
     -2.117117     17.832478     17.832478     35.664956
     -2.107107     15.692640     15.692640     31.385279
     -2.097097     13.706175     13.706175     27.412350
     -2.087087     11.641431     11.641431     23.282863
     -2.077077      9.446171      9.446171     18.892342
     -2.067067      7.233953      7.233953     14.467906
     -2.057057      5.201649      5.201649     10.403298
     -2.047047      3.536916      3.536916      7.073832
     -2.037037      2.363183      2.363183      4.726365
     -2.027027      1.735387      1.735387      3.470774
     -2.017017      1.667604      1.667604      3.335207
     -2.007007      2.160491      2.160491      4.320983
     -1.996997      3.204289      3.204289      6.408578
     -1.986987      4.753802      4.753802      9.507605
     -1.976977      6.693967      6.693967     13.387933
     -1.966967      8.826619      8.826619     17.653237
     -1.956957     10.902452     10.902452     21.804905
     -1.946947     12.696455     12.696455     25.392910
     -1.936937     14.093270     14.093270     28.186541
     -1.926927     15.132824     15.132824     30.265648
     -1.916917     15.982134     15.982134     31.964269
     -1.906907     16.840937     16.840937     33.681874
     -1.896897     17.829667     17.829667     35.659335
     -1.886887     18.919799     18.919799     37.839597
     -1.876877     19.941174     19.941174     39.882348
     -1.866867     20.658134     20.658134     41.316267
     -1.856857     20.874039     20.874039     41.748078
     -1.846847     20.516942     20.516942     41.033885
     -1.836837     19.672535     19.672535     39.345071
     -1.826827     18.551970     18.551970     37.103940
     -1.816817     17.405181     17.405181     34.810361
     -1.806807     16.413017     16.413017     32.826035
     -1.796797     15.606642     15.606642     31.213284
     -1.786787     14.856979     14.856979     29.713959
     -1.776777     13.944778     13.944778     27.889557
     -1.766767     12.677502     12.677502     25.355005
     -1.756757     10.991697     10.991697     21.983393
     -1.746747      8.989192      8.989192     17.978384
     -1.736737      6.896388      6.896388     13.792775
     -1.726727      4.979161      4.979161      9.958323
     -1.716717      3.463513      3.463513      6.927026
     -1.706707      2.496627      2.496627      4.993254
     -1.696697      2.150393      2.150393      4.300786
     -1.686687      2.443016      2.443016      4.886032
     -1.676677      3.349182      3.349182      6.698364
     -1.666667      4.785084      4.785084      9.570167
     -1.656657      6.579711      6.579711     13.159423
     -1.646647      8.462322      8.462322     16.924643
     -1.636637     10.095307     10.095307     20.190614
     -1.626627     11.159580     11.159580     22.319160
