# EIG2DOS: Utility for SIESTA to obtain the electronic density of states
#  E. Artacho, Apr 1999, A. Garcia, Apr 2012
#  Nick R. Papior, Feb 2017
# ------------------------------------------
# Eigenvalues calculated from a non-polarized calculation
# Eigenvalues read from siesta.EIG
# Kpoint weights read from siesta.KP
# Using smearing parameter:   0.0500
# Using 1000 points in the energy range
# Selected bands: 1 to: 2981
# Emin, Emax in file for selected band(s):    -27.0866370    218.3353330
# Nbands, Nspin, Nk   =   2981     1     1
# E_F                 =    -4.2690 eV --> (shifted to ZERO)
# Broadening          =     0.0500 eV
#
#        E            N(up)  (=)   N(down)         Ntot
     -5.000000     42.437114     42.437114     84.874229
     -4.989990     43.702330     43.702330     87.404660
     -4.979980     44.381753     44.381753     88.763505
     -4.969970     44.311408     44.311408     88.622817
     -4.959960     43.363135     43.363135     86.726269
     -4.949950     41.524312     41.524312     83.048623
     -4.939940     38.945785     38.945785     77.891570
     -4.929930     35.952690     35.952690     71.905381
     -4.919920     33.027682     33.027682     66.055364
     -4.909910     30.771635     30.771635     61.543270
     -4.899900     29.829984     29.829984     59.659967
     -4.889890     30.763393     30.763393     61.526787
     -4.879880     33.860702     33.860702     67.721404
     -4.869870     38.942288     38.942288     77.884575
     -4.859860     45.253074     45.253074     90.506148
     -4.849850     51.547674     51.547674    103.095347
     -4.839840     56.397828     56.397828    112.795656
     -4.829830     58.631521     58.631521    117.263043
     -4.819820     57.719314     57.719314    115.438629
     -4.809810     53.928100     53.928100    107.856200
     -4.799800     48.174645     48.174645     96.349291
     -4.789790     41.663444     41.663444     83.326887
     -4.779780     35.489138     35.489138     70.978275
     -4.769770     30.369735     30.369735     60.739470
     -4.759760     26.578339     26.578339     53.156678
     -4.749750     24.033729     24.033729     48.067458
     -4.739740     22.456792     22.456792     44.913583
     -4.729730     21.510680     21.510680     43.021359
     -4.719720     20.885719     20.885719     41.771439
     -4.709710     20.330012     20.330012     40.660024
     -4.699700     19.649013     19.649013     39.298026
     -4.689690     18.703938     18.703938     37.407875
     -4.679680     17.432294     17.432294     34.864587
     -4.669670     15.894703     15.894703     31.789406
     -4.659660     14.327072     14.327072     28.654145
     -4.649650     13.160442     13.160442     26.320884
     -4.639640     12.974044     12.974044     25.948089
     -4.629630     14.369295     14.369295     28.738590
     -4.619620     17.783383     17.783383     35.566766
     -4.609610     23.291136     23.291136     46.582272
     -4.599600     30.466183     30.466183     60.932365
     -4.589590     38.376445     38.376445     76.752891
     -4.579580     45.759770     45.759770     91.519541
     -4.569570     51.358465     51.358465    102.716930
     -4.559560     54.309955     54.309955    108.619911
     -4.549550     54.441402     54.441402    108.882805
     -4.539540     52.338177     52.338177    104.676354
     -4.529530     49.147887     49.147887     98.295774
     -4.519520     46.196227     46.196227     92.392455
     -4.509510     44.566451     44.566451     89.132901
     -4.499499     44.794678     44.794678     89.589357
     -4.489489     46.767962     46.767962     93.535924
     -4.479479     49.823447     49.823447     99.646893
     -4.469469     52.980790     52.980790    105.961581
     -4.459459     55.218512     55.218512    110.437024
     -4.449449     55.720839     55.720839    111.441678
     -4.439439     54.051319     54.051319    108.102638
     -4.429429     50.233730     50.233730    100.467461
     -4.419419     44.735703     44.735703     89.471405
     -4.409409     38.362385     38.362385     76.724771
     -4.399399     32.081553     32.081553     64.163106
     -4.389389     26.815877     26.815877     53.631753
     -4.379379     23.247697     23.247697     46.495394
     -4.369369     21.682658     21.682658     43.365317
     -4.359359     22.008971     22.008971     44.017942
     -4.349349     23.767131     23.767131     47.534262
     -4.339339     26.312204     26.312204     52.624409
     -4.329329     29.017113     29.017113     58.034226
     -4.319319     31.447486     31.447486     62.894973
     -4.309309     33.449653     33.449653     66.899307
     -4.299299     35.130003     35.130003     70.260006
     -4.289289     36.746120     36.746120     73.492241
     -4.279279     38.555797     38.555797     77.111593
     -4.269269     40.672866     40.672866     81.345732
     -4.259259     42.970391     42.970391     85.940783
     -4.249249     45.064313     45.064313     90.128625
     -4.239239     46.400327     46.400327     92.800654
     -4.229229     46.437825     46.437825     92.875650
     -4.219219     44.874616     44.874616     89.749233
     -4.209209     41.812799     41.812799     83.625598
     -4.199199     37.771148     37.771148     75.542296
     -4.189189     33.518255     33.518255     67.036509
     -4.179179     29.798284     29.798284     59.596568
     -4.169169     27.083319     27.083319     54.166637
     -4.159159     25.470030     25.470030     50.940059
     -4.149149     24.755935     24.755935     49.511869
     -4.139139     24.635837     24.635837     49.271675
     -4.129129     24.905250     24.905250     49.810500
     -4.119119     25.564563     25.564563     51.129127
     -4.109109     26.772620     26.772620     53.545241
     -4.099099     28.674107     28.674107     57.348213
     -4.089089     31.192867     31.192867     62.385735
     -4.079079     33.913271     33.913271     67.826542
     -4.069069     36.140502     36.140502     72.281004
     -4.059059     37.140433     37.140433     74.280865
     -4.049049     36.453309     36.453309     72.906618
     -4.039039     34.119763     34.119763     68.239527
     -4.029029     30.696651     30.696651     61.393303
     -4.019019     27.055803     27.055803     54.111605
     -4.009009     24.077179     24.077179     48.154357
     -3.998999     22.392702     22.392702     44.785404
     -3.988989     22.285125     22.285125     44.570249
     -3.978979     23.741904     23.741904     47.483808
     -3.968969     26.581537     26.581537     53.163074
     -3.958959     30.558251     30.558251     61.116503
     -3.948949     35.403070     35.403070     70.806140
     -3.938939     40.824069     40.824069     81.648138
     -3.928929     46.514665     46.514665     93.029330
     -3.918919     52.192646     52.192646    104.385291
     -3.908909     57.644917     57.644917    115.289835
     -3.898899     62.729124     62.729124    125.458248
     -3.888889     67.306198     67.306198    134.612396
     -3.878879     71.131621     71.131621    142.263241
     -3.868869     73.777613     73.777613    147.555225
     -3.858859     74.659659     74.659659    149.319317
     -3.848849     73.192615     73.192615    146.385230
     -3.838839     69.029077     69.029077    138.058154
     -3.828829     62.276612     62.276612    124.553224
     -3.818819     53.585081     53.585081    107.170162
     -3.808809     44.047343     44.047343     88.094687
     -3.798799     34.939663     34.939663     69.879326
     -3.788789     27.397422     27.397422     54.794844
     -3.778779     22.142491     22.142491     44.284982
     -3.768769     19.346830     19.346830     38.693661
     -3.758759     18.657590     18.657590     37.315181
     -3.748749     19.354817     19.354817     38.709634
     -3.738739     20.583127     20.583127     41.166254
     -3.728729     21.593209     21.593209     43.186419
     -3.718719     21.937362     21.937362     43.874724
     -3.708709     21.576624     21.576624     43.153247
     -3.698699     20.873474     20.873474     41.746948
     -3.688689     20.466148     20.466148     40.932295
     -3.678679     21.050003     21.050003     42.100005
     -3.668669     23.123921     23.123921     46.247841
     -3.658659     26.783157     26.783157     53.566315
     -3.648649     31.637916     31.637916     63.275833
     -3.638639     36.898784     36.898784     73.797569
     -3.628629     41.604357     41.604357     83.208715
     -3.618619     44.903239     44.903239     89.806477
     -3.608609     46.279340     46.279340     92.558681
     -3.598599     45.642911     45.642911     91.285821
     -3.588589     43.279344     43.279344     86.558689
     -3.578579     39.708418     39.708418     79.416836
     -3.568569     35.523721     35.523721     71.047443
     -3.558559     31.258812     31.258812     62.517625
     -3.548549     27.295119     27.295119     54.590237
     -3.538539     23.814173     23.814173     47.628347
     -3.528529     20.801382     20.801382     41.602764
     -3.518519     18.107610     18.107610     36.215219
     -3.508509     15.554931     15.554931     31.109863
     -3.498498     13.046213     13.046213     26.092427
     -3.488488     10.629924     10.629924     21.259849
     -3.478478      8.492799      8.492799     16.985599
     -3.468468      6.889310      6.889310     13.778620
     -3.458458      6.043161      6.043161     12.086323
     -3.448448      6.059315      6.059315     12.118630
     -3.438438      6.872698      6.872698     13.745395
     -3.428428      8.246627      8.246627     16.493255
     -3.418418      9.825571      9.825571     19.651141
     -3.408408     11.236484     11.236484     22.472967
     -3.398398     12.214609     12.214609     24.429218
     -3.388388     12.709979     12.709979     25.419958
     -3.378378     12.927040     12.927040     25.854079
     -3.368368     13.272480     13.272480     26.544960
     -3.358358     14.226502     14.226502     28.453004
     -3.348348     16.185692     16.185692     32.371384
     -3.338338     19.330789     19.330789     38.661578
     -3.328328     23.551167     23.551167     47.102334
     -3.318318     28.431411     28.431411     56.862822
     -3.308308     33.295551     33.295551     66.591102
     -3.298298     37.311271     37.311271     74.622543
     -3.288288     39.657722     39.657722     79.315444
     -3.278278     39.736058     39.736058     79.472115
     -3.268268     37.359984     37.359984     74.719969
     -3.258258     32.841107     32.841107     65.682214
     -3.248248     26.913403     26.913403     53.826806
     -3.238238     20.515682     20.515682     41.031364
     -3.228228     14.523313     14.523313     29.046627
     -3.218218      9.541357      9.541357     19.082714
     -3.208208      5.829472      5.829472     11.658944
     -3.198198      3.357945      3.357945      6.715890
     -3.188188      1.940278      1.940278      3.880556
     -3.178178      1.375201      1.375201      2.750403
     -3.168168      1.551004      1.551004      3.102008
     -3.158158      2.492800      2.492800      4.985600
     -3.148148      4.350771      4.350771      8.701542
     -3.138138      7.333811      7.333811     14.667622
     -3.128128     11.599270     11.599270     23.198541
     -3.118118     17.124371     17.124371     34.248741
     -3.108108     23.604670     23.604670     47.209341
     -3.098098     30.433897     30.433897     60.867795
     -3.088088     36.800961     36.800961     73.601922
     -3.078078     41.891883     41.891883     83.783765
     -3.068068     45.126577     45.126577     90.253153
     -3.058058     46.327057     46.327057     92.654115
     -3.048048     45.732521     45.732521     91.465043
     -3.038038     43.847911     43.847911     87.695823
     -3.028028     41.201312     41.201312     82.402624
     -3.018018     38.138616     38.138616     76.277231
     -3.008008     34.763496     34.763496     69.526991
     -2.997998     31.044389     31.044389     62.088778
     -2.987988     27.011351     27.011351     54.022701
     -2.977978     22.917970     22.917970     45.835940
     -2.967968     19.273790     19.273790     38.547580
     -2.957958     16.732634     16.732634     33.465269
     -2.947948     15.895082     15.895082     31.790165
     -2.937938     17.109837     17.109837     34.219674
     -2.927928     20.341147     20.341147     40.682295
     -2.917918     25.136198     25.136198     50.272397
     -2.907908     30.699804     30.699804     61.399607
     -2.897898     36.064132     36.064132     72.128263
     -2.887888     40.318255     40.318255     80.636509
     -2.877878     42.835638     42.835638     85.671275
     -2.867868     43.423188     43.423188     86.846377
     -2.857858     42.332110     42.332110     84.664220
     -2.847848     40.121203     40.121203     80.242407
     -2.837838     37.426846     37.426846     74.853692
     -2.827828     34.737187     34.737187     69.474373
     -2.817818     32.265552     32.265552     64.531105
     -2.807808     29.968277     29.968277     59.936554
     -2.797798     27.680060     27.680060     55.360120
     -2.787788     25.283575     25.283575     50.567149
     -2.777778     22.819457     22.819457     45.638914
     -2.767768     20.483146     20.483146     40.966292
     -2.757758     18.523185     18.523185     37.046370
     -2.747748     17.112391     17.112391     34.224781
     -2.737738     16.275464     16.275464     32.550929
     -2.727728     15.916706     15.916706     31.833413
     -2.717718     15.923772     15.923772     31.847545
     -2.707708     16.271175     16.271175     32.542350
     -2.697698     17.045882     17.045882     34.091763
     -2.687688     18.370243     18.370243     36.740486
     -2.677678     20.270976     20.270976     40.541953
     -2.667668     22.586700     22.586700     45.173400
     -2.657658     24.987575     24.987575     49.975151
     -2.647648     27.108018     27.108018     54.216036
     -2.637638     28.715307     28.715307     57.430614
     -2.627628     29.808758     29.808758     59.617516
     -2.617618     30.588172     30.588172     61.176344
     -2.607608     31.316281     31.316281     62.632561
     -2.597598     32.165494     32.165494     64.330987
     -2.587588     33.137662     33.137662     66.275324
     -2.577578     34.083333     34.083333     68.166665
     -2.567568     34.778044     34.778044     69.556089
     -2.557558     34.992255     34.992255     69.984511
     -2.547548     34.527027     34.527027     69.054054
     -2.537538     33.237682     33.237682     66.475365
     -2.527528     31.081385     31.081385     62.162771
     -2.517518     28.189799     28.189799     56.379598
     -2.507508     24.920328     24.920328     49.840656
     -2.497497     21.826629     21.826629     43.653257
     -2.487487     19.527318     19.527318     39.054636
     -2.477477     18.514309     18.514309     37.028619
     -2.467467     18.984834     18.984834     37.969668
     -2.457457     20.777086     20.777086     41.554173
     -2.447447     23.442855     23.442855     46.885710
     -2.437437     26.427611     26.427611     52.855221
     -2.427427     29.279365     29.279365     58.558730
     -2.417417     31.793671     31.793671     63.587343
     -2.407407     34.029572     34.029572     68.059144
     -2.397397     36.189196     36.189196     72.378392
     -2.387387     38.417547     38.417547     76.835094
     -2.377377     40.620433     40.620433     81.240866
     -2.367367     42.397236     42.397236     84.794473
     -2.357357     43.137761     43.137761     86.275523
     -2.347347     42.255537     42.255537     84.511073
     -2.337337     39.458536     39.458536     78.917071
     -2.327327     34.931449     34.931449     69.862897
     -2.317317     29.341632     29.341632     58.683263
     -2.307307     23.665878     23.665878     47.331756
     -2.297297     18.918004     18.918004     37.836009
     -2.287287     15.890638     15.890638     31.781276
     -2.277277     14.997132     14.997132     29.994265
     -2.267267     16.239650     16.239650     32.479300
     -2.257257     19.277904     19.277904     38.555808
     -2.247247     23.551380     23.551380     47.102761
     -2.237237     28.411019     28.411019     56.822038
     -2.227227     33.228568     33.228568     66.457137
     -2.217217     37.465086     37.465086     74.930173
     -2.207207     40.696019     40.696019     81.392037
     -2.197197     42.609407     42.609407     85.218814
     -2.187187     43.006890     43.006890     86.013780
     -2.177177     41.830689     41.830689     83.661378
     -2.167167     39.210987     39.210987     78.421973
     -2.157157     35.494526     35.494526     70.989053
     -2.147147     31.205808     31.205808     62.411615
     -2.137137     26.923300     26.923300     53.846600
     -2.127127     23.109569     23.109569     46.219139
     -2.117117     19.975813     19.975813     39.951626
     -2.107107     17.453179     17.453179     34.906358
     -2.097097     15.285839     15.285839     30.571677
     -2.087087     13.192074     13.192074     26.384147
     -2.077077     11.006085     11.006085     22.012169
     -2.067067      8.734499      8.734499     17.468999
     -2.057057      6.517964      6.517964     13.035928
     -2.047047      4.539431      4.539431      9.078861
     -2.037037      2.937184      2.937184      5.874368
     -2.027027      1.761367      1.761367      3.522733
     -2.017017      0.979187      0.979187      1.958374
     -2.007007      0.509628      0.509628      1.019256
     -1.996997      0.263329      0.263329      0.526658
     -1.986987      0.172303      0.172303      0.344607
     -1.976977      0.206219      0.206219      0.412437
     -1.966967      0.378791      0.378791      0.757583
     -1.956957      0.747644      0.747644      1.495288
     -1.946947      1.406692      1.406692      2.813385
     -1.936937      2.466679      2.466679      4.933359
     -1.926927      4.021017      4.021017      8.042034
     -1.916917      6.101666      6.101666     12.203332
     -1.906907      8.639727      8.639727     17.279454
     -1.896897     11.450313     11.450313     22.900625
     -1.886887     14.255132     14.255132     28.510264
     -1.876877     16.740345     16.740345     33.480690
     -1.866867     18.631079     18.631079     37.262157
     -1.856857     19.757770     19.757770     39.515540
     -1.846847     20.094958     20.094958     40.189917
     -1.836837     19.763178     19.763178     39.526357
     -1.826827     18.992172     18.992172     37.984344
     -1.816817     18.050584     18.050584     36.101168
     -1.806807     17.159651     17.159651     34.319301
     -1.796797     16.423931     16.423931     32.847862
     -1.786787     15.815964     15.815964     31.631929
     -1.776777     15.230055     15.230055     30.460110
     -1.766767     14.579134     14.579134     29.158269
     -1.756757     13.875665     13.875665     27.751331
     -1.746747     13.241380     13.241380     26.482760
     -1.736737     12.834651     12.834651     25.669302
     -1.726727     12.740424     12.740424     25.480847
     -1.716717     12.896338     12.896338     25.792677
     -1.706707     13.108503     13.108503     26.217006
     -1.696697     13.153624     13.153624     26.307247
     -1.686687     12.907882     12.907882     25.815764
     -1.676677     12.423575     12.423575     24.847150
     -1.666667     11.904258     11.904258     23.808515
     -1.656657     11.589142     11.589142     23.178285
     -1.646647     11.611153     11.611153     23.222307
     -1.636637     11.908942     11.908942     23.817884
     -1.626627     12.243525     12.243525     24.487050
