# EIG2DOS: Utility for SIESTA to obtain the electronic density of states
#  E. Artacho, Apr 1999, A. Garcia, Apr 2012
#  Nick R. Papior, Feb 2017
# ------------------------------------------
# Eigenvalues calculated from a non-polarized calculation
# Eigenvalues read from siesta.EIG
# Kpoint weights read from siesta.KP
# Using smearing parameter:   0.0500
# Using 1000 points in the energy range
# Selected bands: 1 to: 2981
# Emin, Emax in file for selected band(s):    -27.1019964    218.3627220
# Nbands, Nspin, Nk   =   2981     1     1
# E_F                 =    -4.2391 eV --> (shifted to ZERO)
# Broadening          =     0.0500 eV
#
#        E            N(up)  (=)   N(down)         Ntot
     -5.000000     32.743415     32.743415     65.486829
     -4.989990     37.000907     37.000907     74.001815
     -4.979980     40.866131     40.866131     81.732261
     -4.969970     43.716873     43.716873     87.433747
     -4.959960     45.047511     45.047511     90.095021
     -4.949950     44.627134     44.627134     89.254267
     -4.939940     42.581428     42.581428     85.162855
     -4.929930     39.376268     39.376268     78.752536
     -4.919920     35.726377     35.726377     71.452753
     -4.909910     32.471004     32.471004     64.942008
     -4.899900     30.442563     30.442563     60.885126
     -4.889890     30.325162     30.325162     60.650324
     -4.879880     32.492866     32.492866     64.985731
     -4.869870     36.848836     36.848836     73.697672
     -4.859860     42.734592     42.734592     85.469184
     -4.849850     48.995836     48.995836     97.991671
     -4.839840     54.243458     54.243458    108.486916
     -4.829830     57.249205     57.249205    114.498410
     -4.819820     57.325354     57.325354    114.650709
     -4.809810     54.522327     54.522327    109.044655
     -4.799800     49.557959     49.557959     99.115917
     -4.789790     43.522746     43.522746     87.045492
     -4.779780     37.506834     37.506834     75.013668
     -4.769770     32.308516     32.308516     64.617032
     -4.759760     28.314017     28.314017     56.628035
     -4.749750     25.539959     25.539959     51.079918
     -4.739740     23.764606     23.764606     47.529212
     -4.729730     22.666264     22.666264     45.332528
     -4.719720     21.919861     21.919861     43.839722
     -4.709710     21.243403     21.243403     42.486807
     -4.699700     20.413187     20.413187     40.826374
     -4.689690     19.275242     19.275242     38.550484
     -4.679680     17.772720     17.772720     35.545441
     -4.669670     15.989766     15.989766     31.979531
     -4.659660     14.191236     14.191236     28.382472
     -4.649650     12.826801     12.826801     25.653602
     -4.639640     12.474405     12.474405     24.948810
     -4.629630     13.718122     13.718122     27.436244
     -4.619620     16.979768     16.979768     33.959536
     -4.609610     22.346132     22.346132     44.692263
     -4.599600     29.451124     29.451124     58.902248
     -4.589590     37.475977     37.475977     74.951955
     -4.579580     45.306283     45.306283     90.612565
     -4.569570     51.825928     51.825928    103.651857
     -4.559560     56.254657     56.254657    112.509315
     -4.549550     58.391244     58.391244    116.782489
     -4.539540     58.646674     58.646674    117.293348
     -4.529530     57.841665     57.841665    115.683329
     -4.519520     56.855040     56.855040    113.710079
     -4.509510     56.279987     56.279987    112.559973
     -4.499499     56.234163     56.234163    112.468326
     -4.489489     56.386644     56.386644    112.773288
     -4.479479     56.160034     56.160034    112.320068
     -4.469469     54.996229     54.996229    109.992457
     -4.459459     52.568279     52.568279    105.136557
     -4.449449     48.868881     48.868881     97.737761
     -4.439439     44.173749     44.173749     88.347498
     -4.429429     38.930177     38.930177     77.860354
     -4.419419     33.637553     33.637553     67.275106
     -4.409409     28.767018     28.767018     57.534037
     -4.399399     24.727699     24.727699     49.455397
     -4.389389     21.852172     21.852172     43.704343
     -4.379379     20.366556     20.366556     40.733112
     -4.369369     20.335486     20.335486     40.670972
     -4.359359     21.610052     21.610052     43.220104
     -4.349349     23.826474     23.826474     47.652947
     -4.339339     26.485824     26.485824     52.971649
     -4.329329     29.099860     29.099860     58.199721
     -4.319319     31.345577     31.345577     62.691154
     -4.309309     33.159926     33.159926     66.319852
     -4.299299     34.731462     34.731462     69.462925
     -4.289289     36.389595     36.389595     72.779191
     -4.279279     38.430864     38.430864     76.861728
     -4.269269     40.943146     40.943146     81.886291
     -4.259259     43.693563     43.693563     87.387126
     -4.249249     46.135019     46.135019     92.270039
     -4.239239     47.553962     47.553962     95.107925
     -4.229229     47.325694     47.325694     94.651389
     -4.219219     45.181636     45.181636     90.363273
     -4.209209     41.364326     41.364326     82.728651
     -4.199199     36.582736     36.582736     73.165472
     -4.189189     31.775055     31.775055     63.550110
     -4.179179     27.785895     27.785895     55.571790
     -4.169169     25.107667     25.107667     50.215333
     -4.159159     23.795706     23.795706     47.591412
     -4.149149     23.572216     23.572216     47.144432
     -4.139139     24.043410     24.043410     48.086821
     -4.129129     24.912911     24.912911     49.825822
     -4.119119     26.091718     26.091718     52.183437
     -4.109109     27.661717     27.661717     55.323434
     -4.099099     29.719028     29.719028     59.438056
     -4.089089     32.182299     32.182299     64.364599
     -4.079079     34.676902     34.676902     69.353803
     -4.069069     36.579741     36.579741     73.159481
     -4.059059     37.230862     37.230862     74.461724
     -4.049049     36.221691     36.221691     72.443382
     -4.039039     33.613873     33.613873     67.227745
     -4.029029     29.969739     29.969739     59.939477
     -4.019019     26.175021     26.175021     52.350042
     -4.009009     23.144997     23.144997     46.289994
     -3.998999     21.557266     21.557266     43.114533
     -3.988989     21.720489     21.720489     43.440978
     -3.978979     23.599582     23.599582     47.199164
     -3.968969     26.936331     26.936331     53.872661
     -3.958959     31.378052     31.378052     62.756104
     -3.948949     36.559504     36.559504     73.119008
     -3.938939     42.137908     42.137908     84.275815
     -3.928929     47.812553     47.812553     95.625107
     -3.918919     53.349711     53.349711    106.699423
     -3.908909     58.599406     58.599406    117.198811
     -3.898899     63.470847     63.470847    126.941694
     -3.888889     67.851370     67.851370    135.702740
     -3.878879     71.499069     71.499069    142.998138
     -3.868869     73.976882     73.976882    147.953763
     -3.858859     74.693498     74.693498    149.386996
     -3.848849     73.068582     73.068582    146.137164
     -3.838839     68.770757     68.770757    137.541514
     -3.828829     61.926325     61.926325    123.852650
     -3.818819     53.195893     53.195893    106.391785
     -3.808809     43.669005     43.669005     87.338009
     -3.798799     34.606424     34.606424     69.212849
     -3.788789     27.123764     27.123764     54.247528
     -3.778779     21.927490     21.927490     43.854980
     -3.768769     19.182952     19.182952     38.365904
     -3.758759     18.538067     18.538067     37.076133
     -3.748749     19.275789     19.275789     38.551578
     -3.738739     20.540511     20.540511     41.081023
     -3.728729     21.577378     21.577378     43.154757
     -3.718719     21.929727     21.929727     43.859455
     -3.708709     21.551124     21.551124     43.102248
     -3.698699     20.803644     20.803644     41.607288
     -3.688689     20.335865     20.335865     40.671730
     -3.678679     20.863803     20.863803     41.727607
     -3.668669     22.911652     22.911652     45.823304
     -3.658659     26.594714     26.594714     53.189429
     -3.648649     31.527584     31.527584     63.055168
     -3.638639     36.904264     36.904264     73.808527
     -3.628629     41.729807     41.729807     83.459614
     -3.618619     45.115169     45.115169     90.230337
     -3.608609     46.518180     46.518180     93.036360
     -3.598599     45.844824     45.844824     91.689647
     -3.588589     43.397754     43.397754     86.795509
     -3.578579     39.726012     39.726012     79.452024
     -3.568569     35.452055     35.452055     70.904110
     -3.558559     31.129247     31.129247     62.258493
     -3.548549     27.147392     27.147392     54.294785
     -3.538539     23.686937     23.686937     47.373875
     -3.528529     20.725385     20.725385     41.450770
     -3.518519     18.100338     18.100338     36.200675
     -3.508509     15.616306     15.616306     31.232612
     -3.498498     13.156701     13.156701     26.313401
     -3.488488     10.752896     10.752896     21.505791
     -3.478478      8.581700      8.581700     17.163400
     -3.468468      6.898439      6.898439     13.796878
     -3.458458      5.939923      5.939923     11.879846
     -3.448448      5.835604      5.835604     11.671207
     -3.438438      6.552665      6.552665     13.105330
     -3.428428      7.887335      7.887335     15.774669
     -3.418418      9.507400      9.507400     19.014800
     -3.408408     11.043185     11.043185     22.086371
     -3.398398     12.207848     12.207848     24.415696
     -3.388388     12.907125     12.907125     25.814250
     -3.378378     13.290630     13.290630     26.581261
     -3.368368     13.715180     13.715180     27.430361
     -3.358358     14.629798     14.629798     29.259596
     -3.348348     16.427455     16.427455     32.854910
     -3.338338     19.316479     19.316479     38.632957
     -3.328328     23.243070     23.243070     46.486141
     -3.318318     27.868081     27.868081     55.736163
     -3.308308     32.591709     32.591709     65.183419
     -3.298298     36.631804     36.631804     73.263609
     -3.288288     39.169871     39.169871     78.339741
     -3.278278     39.556606     39.556606     79.113211
     -3.268268     37.520058     37.520058     75.040116
     -3.258258     33.284397     33.284397     66.568795
     -3.248248     27.527504     27.527504     55.055008
     -3.238238     21.181260     21.181260     42.362521
     -3.228228     15.161270     15.161270     30.322540
     -3.218218     10.145073     10.145073     20.290147
     -3.208208      6.480334      6.480334     12.960668
     -3.198198      4.228110      4.228110      8.456220
     -3.188188      3.282921      3.282921      6.565841
     -3.178178      3.493255      3.493255      6.986509
     -3.168168      4.730859      4.730859      9.461717
     -3.158158      6.899204      6.899204     13.798408
     -3.148148      9.904616      9.904616     19.809233
     -3.138138     13.623572     13.623572     27.247144
     -3.128128     17.887538     17.887538     35.775076
     -3.118118     22.485312     22.485312     44.970624
     -3.108108     27.169547     27.169547     54.339095
     -3.098098     31.659494     31.659494     63.318989
     -3.088088     35.649394     35.649394     71.298789
     -3.078078     38.841016     38.841016     77.682032
     -3.068068     41.003752     41.003752     82.007504
     -3.058058     42.034774     42.034774     84.069548
     -3.048048     41.974795     41.974795     83.949590
     -3.038038     40.956539     40.956539     81.913077
     -3.028028     39.113808     39.113808     78.227615
     -3.018018     36.517875     36.517875     73.035749
     -3.008008     33.196791     33.196791     66.393583
     -2.997998     29.234597     29.234597     58.469194
     -2.987988     24.885916     24.885916     49.771831
     -2.977978     20.625297     20.625297     41.250593
     -2.967968     17.089974     17.089974     34.179947
     -2.957958     14.935829     14.935829     29.871657
     -2.947948     14.665256     14.665256     29.330511
     -2.937938     16.485284     16.485284     32.970568
     -2.927928     20.231072     20.231072     40.462144
     -2.917918     25.368907     25.368907     50.737813
     -2.907908     31.082570     31.082570     62.165141
     -2.897898     36.436517     36.436517     72.873035
     -2.887888     40.587371     40.587371     81.174743
     -2.877878     42.986836     42.986836     85.973673
     -2.867868     43.504757     43.504757     87.009514
     -2.857858     42.419469     42.419469     84.838938
     -2.847848     40.273338     40.273338     80.546675
     -2.837838     37.651575     37.651575     75.303149
     -2.827828     34.979331     34.979331     69.958663
     -2.817818     32.423148     32.423148     64.846297
     -2.807808     29.930153     29.930153     59.860306
     -2.797798     27.368861     27.368861     54.737721
     -2.787788     24.686226     24.686226     49.372451
     -2.777778     21.993388     21.993388     43.986776
     -2.767768     19.538048     19.538048     39.076097
     -2.757758     17.588657     17.588657     35.177314
     -2.747748     16.306148     16.306148     32.612297
     -2.737738     15.683349     15.683349     31.366698
     -2.727728     15.587422     15.587422     31.174843
     -2.717718     15.873335     15.873335     31.746669
     -2.707708     16.488719     16.488719     32.977437
     -2.697698     17.494871     17.494871     34.989742
     -2.687688     18.985269     18.985269     37.970538
     -2.677678     20.956131     20.956131     41.912262
     -2.667668     23.223111     23.223111     46.446223
     -2.657658     25.453420     25.453420     50.906840
     -2.647648     27.306404     27.306404     54.612809
     -2.637638     28.599170     28.599170     57.198340
     -2.627628     29.392075     29.392075     58.784151
     -2.617618     29.939579     29.939579     59.879158
     -2.607608     30.539580     30.539580     61.079160
     -2.597598     31.375696     31.375696     62.751393
     -2.587588     32.439335     32.439335     64.878671
     -2.577578     33.553742     33.553742     67.107483
     -2.567568     34.455470     34.455470     68.910941
     -2.557558     34.870865     34.870865     69.741730
     -2.547548     34.560702     34.560702     69.121404
     -2.537538     33.353328     33.353328     66.706656
     -2.527528     31.198117     31.198117     62.396234
     -2.517518     28.237708     28.237708     56.475415
     -2.507508     24.853779     24.853779     49.707559
     -2.497497     21.631105     21.631105     43.262210
     -2.487487     19.221990     19.221990     38.443980
     -2.477477     18.152192     18.152192     36.304384
     -2.467467     18.649426     18.649426     37.298851
     -2.457457     20.572267     20.572267     41.144535
     -2.447447     23.474381     23.474381     46.948763
     -2.437437     26.779074     26.779074     53.558148
     -2.427427     29.989441     29.989441     59.978882
     -2.417417     32.841498     32.841498     65.682996
     -2.407407     35.331484     35.331484     70.662967
     -2.397397     37.606343     37.606343     75.212686
     -2.387387     39.773223     39.773223     79.546446
     -2.377377     41.727286     41.727286     83.454572
     -2.367367     43.093781     43.093781     86.187562
     -2.357357     43.328193     43.328193     86.656387
     -2.347347     41.939949     41.939949     83.879899
     -2.337337     38.739091     38.739091     77.478181
     -2.327327     33.988042     33.988042     67.976084
     -2.317317     28.384464     28.384464     56.768927
     -2.307307     22.883010     22.883010     45.766019
     -2.297297     18.436526     18.436526     36.873051
     -2.287287     15.761328     15.761328     31.522656
     -2.277277     15.201366     15.201366     30.402731
     -2.267267     16.710306     16.710306     33.420611
     -2.257257     19.924578     19.924578     39.849157
     -2.247247     24.281915     24.281915     48.563831
     -2.237237     29.144043     29.144043     58.288085
     -2.227227     33.895466     33.895466     67.790932
     -2.217217     38.004738     38.004738     76.009475
     -2.207207     41.049755     41.049755     82.099510
     -2.197197     42.723653     42.723653     85.447306
     -2.187187     42.845611     42.845611     85.691222
     -2.177177     41.392092     41.392092     82.784184
     -2.167167     38.538216     38.538216     77.076433
     -2.157157     34.671876     34.671876     69.343752
     -2.147147     30.339291     30.339291     60.678581
     -2.137137     26.112799     26.112799     52.225599
     -2.127127     22.424194     22.424194     44.848388
     -2.117117     19.442236     19.442236     38.884472
     -2.107107     17.059988     17.059988     34.119977
     -2.097097     14.999362     14.999362     29.998725
     -2.087087     12.974882     12.974882     25.949764
     -2.077077     10.830166     10.830166     21.660331
     -2.067067      8.585599      8.585599     17.171198
     -2.057057      6.392596      6.392596     12.785193
     -2.047047      4.438805      4.438805      8.877611
     -2.037037      2.862052      2.862052      5.724105
     -2.027027      1.709667      1.709667      3.419334
     -2.017017      0.946169      0.946169      1.892339
     -2.007007      0.489024      0.489024      0.978047
     -1.996997      0.248161      0.248161      0.496322
     -1.986987      0.154605      0.154605      0.309210
     -1.976977      0.175691      0.175691      0.351383
     -1.966967      0.321150      0.321150      0.642300
     -1.956957      0.644033      0.644033      1.288065
     -1.946947      1.235975      1.235975      2.471949
     -1.936937      2.212014      2.212014      4.424028
     -1.926927      3.680338      3.680338      7.360676
     -1.916917      5.698662      5.698662     11.397324
     -1.906907      8.229285      8.229285     16.458571
     -1.896897     11.112799     11.112799     22.225598
     -1.886887     14.079032     14.079032     28.158064
     -1.876877     16.801165     16.801165     33.602331
     -1.866867     18.980990     18.980990     37.961981
     -1.856857     20.439348     20.439348     40.878696
     -1.846847     21.181272     21.181272     42.362544
     -1.836837     21.409055     21.409055     42.818111
     -1.826827     21.466398     21.466398     42.932795
     -1.816817     21.715549     21.715549     43.431098
     -1.806807     22.379299     22.379299     44.758597
     -1.796797     23.411064     23.411064     46.822127
     -1.786787     24.465148     24.465148     48.930296
     -1.776777     25.004799     25.004799     50.009597
     -1.766767     24.515699     24.515699     49.031398
     -1.756757     22.727984     22.727984     45.455967
     -1.746747     19.737506     19.737506     39.475012
     -1.736737     15.970681     15.970681     31.941362
     -1.726727     12.022848     12.022848     24.045696
     -1.716717      8.461368      8.461368     16.922736
     -1.706707      5.685928      5.685928     11.371856
     -1.696697      3.888356      3.888356      7.776712
     -1.686687      3.092462      3.092462      6.184923
     -1.676677      3.219550      3.219550      6.439099
     -1.666667      4.130616      4.130616      8.261231
     -1.656657      5.629255      5.629255     11.258510
     -1.646647      7.445521      7.445521     14.891042
     -1.636637      9.238906      9.238906     18.477812
     -1.626627     10.648993     10.648993     21.297987
