# EIG2DOS: Utility for SIESTA to obtain the electronic density of states
#  E. Artacho, Apr 1999, A. Garcia, Apr 2012
#  Nick R. Papior, Feb 2017
# ------------------------------------------
# Eigenvalues calculated from a non-polarized calculation
# Eigenvalues read from siesta.EIG
# Kpoint weights read from siesta.KP
# Using smearing parameter:   0.0500
# Using 1000 points in the energy range
# Selected bands: 1 to: 2981
# Emin, Emax in file for selected band(s):    -27.0925132    218.3551760
# Nbands, Nspin, Nk   =   2981     1     1
# E_F                 =    -4.2461 eV --> (shifted to ZERO)
# Broadening          =     0.0500 eV
#
#        E            N(up)  (=)   N(down)         Ntot
     -5.000000     33.641734     33.641734     67.283468
     -4.989990     37.642239     37.642239     75.284477
     -4.979980     41.162575     41.162575     82.325149
     -4.969970     43.626249     43.626249     87.252497
     -4.959960     44.599763     44.599763     89.199525
     -4.949950     43.921742     43.921742     87.843483
     -4.939940     41.759328     41.759328     83.518656
     -4.929930     38.581045     38.581045     77.162090
     -4.919920     35.071872     35.071872     70.143744
     -4.909910     32.025889     32.025889     64.051778
     -4.899900     30.231923     30.231923     60.463846
     -4.889890     30.341322     30.341322     60.682644
     -4.879880     32.706166     32.706166     65.412331
     -4.869870     37.213184     37.213184     74.426368
     -4.859860     43.188759     43.188759     86.377518
     -4.849850     49.465657     49.465657     98.931314
     -4.839840     54.649935     54.649935    109.299870
     -4.829830     57.523266     57.523266    115.046532
     -4.819820     57.424418     57.424418    114.848836
     -4.809810     54.440791     54.440791    108.881581
     -4.799800     49.325769     49.325769     98.651538
     -4.789790     43.192340     43.192340     86.384680
     -4.779780     37.134807     37.134807     74.269615
     -4.769770     31.940334     31.940334     63.880668
     -4.759760     27.977007     27.977007     55.954014
     -4.749750     25.244582     25.244582     50.489165
     -4.739740     23.510338     23.510338     47.020677
     -4.729730     22.448004     22.448004     44.896008
     -4.719720     21.732549     21.732549     43.465099
     -4.709710     21.084376     21.084376     42.168753
     -4.699700     20.282712     20.282712     40.565424
     -4.689690     19.175897     19.175897     38.351794
     -4.679680     17.708346     17.708346     35.416692
     -4.669670     15.964731     15.964731     31.929462
     -4.659660     14.210338     14.210338     28.420676
     -4.649650     12.895250     12.895250     25.790500
     -4.639640     12.596500     12.596500     25.193000
     -4.629630     13.893128     13.893128     27.786255
     -4.619620     17.194560     17.194560     34.389119
     -4.609610     22.566038     22.566038     45.132075
     -4.599600     29.612108     29.612108     59.224216
     -4.589590     37.482139     37.482139     74.964277
     -4.579580     45.036483     45.036483     90.072965
     -4.569570     51.152596     51.152596    102.305192
     -4.559560     55.076162     55.076162    110.152324
     -4.549550     56.675115     56.675115    113.350229
     -4.539540     56.473182     56.473182    112.946363
     -4.529530     55.428386     55.428386    110.856771
     -4.519520     54.540436     54.540436    109.080872
     -4.509510     54.455452     54.455452    108.910905
     -4.499499     55.238736     55.238736    110.477472
     -4.489489     56.403415     56.403415    112.806829
     -4.479479     57.159874     57.159874    114.319748
     -4.469469     56.754420     56.754420    113.508840
     -4.459459     54.743796     54.743796    109.487592
     -4.449449     51.107477     51.107477    102.214953
     -4.439439     46.191822     46.191822     92.383644
     -4.429429     40.555308     40.555308     81.110616
     -4.419419     34.807223     34.807223     69.614445
     -4.409409     29.502791     29.502791     59.005582
     -4.399399     25.102999     25.102999     50.205997
     -4.389389     21.963958     21.963958     43.927917
     -4.379379     20.313663     20.313663     40.627326
     -4.369369     20.203427     20.203427     40.406854
     -4.359359     21.462326     21.462326     42.924652
     -4.349349     23.702640     23.702640     47.405281
     -4.339339     26.405368     26.405368     52.810736
     -4.329329     29.068902     29.068902     58.137804
     -4.319319     31.362534     31.362534     62.725068
     -4.309309     33.217323     33.217323     66.434646
     -4.299299     34.814029     34.814029     69.628058
     -4.289289     36.472023     36.472023     72.944046
     -4.279279     38.479964     38.479964     76.959928
     -4.269269     40.927097     40.927097     81.854194
     -4.259259     43.596010     43.596010     87.192019
     -4.249249     45.967073     45.967073     91.934147
     -4.239239     47.356376     47.356376     94.712751
     -4.229229     47.157980     47.157980     94.315959
     -4.219219     45.102129     45.102129     90.204258
     -4.209209     41.410226     41.410226     82.820453
     -4.199199     36.758738     36.758738     73.517476
     -4.189189     32.054024     32.054024     64.108049
     -4.179179     28.119105     28.119105     56.238210
     -4.169169     25.438920     25.438920     50.877839
     -4.159159     24.074162     24.074162     48.148324
     -4.149149     23.761229     23.761229     47.522457
     -4.139139     24.124984     24.124984     48.249969
     -4.129129     24.888461     24.888461     49.776922
     -4.119119     25.979830     25.979830     51.959660
     -4.109109     27.493314     27.493314     54.986629
     -4.099099     29.530478     29.530478     59.060957
     -4.089089     32.007713     32.007713     64.015426
     -4.079079     34.541797     34.541797     69.083593
     -4.069069     36.498361     36.498361     72.996722
     -4.059059     37.208055     37.208055     74.416110
     -4.049049     36.257753     36.257753     72.515506
     -4.039039     33.708729     33.708729     67.417459
     -4.029029     30.122961     30.122961     60.245922
     -4.019019     26.380965     26.380965     52.761930
     -4.009009     23.386182     23.386182     46.772364
     -3.998999     21.801320     21.801320     43.602641
     -3.988989     21.924611     21.924611     43.849222
     -3.978979     23.722026     23.722026     47.444053
     -3.968969     26.949741     26.949741     53.899482
     -3.958959     31.277907     31.277907     62.555813
     -3.948949     36.363613     36.363613     72.727227
     -3.938939     41.877977     41.877977     83.755953
     -3.928929     47.522777     47.522777     95.045555
     -3.918919     53.057936     53.057936    106.115872
     -3.908909     58.323868     58.323868    116.647736
     -3.898899     63.222127     63.222127    126.444255
     -3.888889     67.636880     67.636880    135.273760
     -3.878879     71.326880     71.326880    142.653760
     -3.868869     73.856552     73.856552    147.713104
     -3.858859     74.633340     74.633340    149.266681
     -3.848849     73.070899     73.070899    146.141798
     -3.838839     68.828070     68.828070    137.656140
     -3.828829     62.021434     62.021434    124.042868
     -3.818819     53.306508     53.306508    106.613015
     -3.808809     43.774852     43.774852     87.549705
     -3.798799     34.695154     34.695154     69.390307
     -3.788789     27.192768     27.192768     54.385536
     -3.778779     21.981282     21.981282     43.962563
     -3.768769     19.228164     19.228164     38.456328
     -3.758759     18.579002     18.579002     37.158004
     -3.748749     19.312558     19.312558     38.625117
     -3.738739     20.570098     20.570098     41.140195
     -3.728729     21.596546     21.596546     43.193093
     -3.718719     21.938081     21.938081     43.876162
     -3.708709     21.552747     21.552747     43.105494
     -3.698699     20.806416     20.806416     41.612833
     -3.688689     20.348464     20.348464     40.696928
     -3.678679     20.891460     20.891460     41.782920
     -3.668669     22.952557     22.952557     45.905113
     -3.658659     26.639123     26.639123     53.278247
     -3.648649     31.560711     31.560711     63.121422
     -3.638639     36.912178     36.912178     73.824355
     -3.628629     41.705718     41.705718     83.411437
     -3.618619     45.062902     45.062902     90.125803
     -3.608609     46.450942     46.450942     92.901883
     -3.598599     45.779918     45.779918     91.559836
     -3.588589     43.350035     43.350035     86.700069
     -3.578579     39.703220     39.703220     79.406439
     -3.568569     35.453683     35.453683     70.907367
     -3.558559     31.148436     31.148436     62.296871
     -3.548549     27.174114     27.174114     54.348229
     -3.538539     23.710920     23.710920     47.421840
     -3.528529     20.738209     20.738209     41.476418
     -3.518519     18.096896     18.096896     36.193792
     -3.508509     15.595803     15.595803     31.191606
     -3.498498     13.122990     13.122990     26.245981
     -3.488488     10.713789     10.713789     21.427578
     -3.478478      8.547182      8.547182     17.094365
     -3.468468      6.878213      6.878213     13.756425
     -3.458458      5.940907      5.940907     11.881813
     -3.448448      5.859937      5.859937     11.719874
     -3.438438      6.596610      6.596610     13.193219
     -3.428428      7.941447      7.941447     15.882894
     -3.418418      9.558314      9.558314     19.116629
     -3.408408     11.076979     11.076979     22.153958
     -3.398398     12.214255     12.214255     24.428510
     -3.388388     12.883259     12.883259     25.766519
     -3.378378     13.242837     13.242837     26.485675
     -3.368368     13.658322     13.658322     27.316645
     -3.358358     14.584165     14.584165     29.168330
     -3.348348     16.414028     16.414028     32.828055
     -3.338338     19.351369     19.351369     38.702738
     -3.328328     23.332079     23.332079     46.664158
     -3.318318     28.002785     28.002785     56.005570
     -3.308308     32.749014     32.749014     65.498027
     -3.298298     36.778469     36.778469     73.556938
     -3.288288     39.271628     39.271628     78.543257
     -3.278278     39.588868     39.588868     79.177737
     -3.268268     37.475583     37.475583     74.951166
     -3.258258     33.174081     33.174081     66.348161
     -3.248248     27.373401     27.373401     54.746801
     -3.238238     21.004040     21.004040     42.008080
     -3.228228     14.965653     14.965653     29.931306
     -3.218218      9.906070      9.906070     19.812141
     -3.208208      6.132150      6.132150     12.264300
     -3.198198      3.658693      3.658693      7.317385
     -3.188188      2.340671      2.340671      4.681341
     -3.178178      2.015242      2.015242      4.030483
     -3.168168      2.598389      2.598389      5.196778
     -3.158158      4.112996      4.112996      8.225991
     -3.148148      6.651777      6.651777     13.303555
     -3.138138     10.294908     10.294908     20.589815
     -3.128128     15.012021     15.012021     30.024042
     -3.118118     20.583731     20.583731     41.167461
     -3.108108     26.576041     26.576041     53.152082
     -3.098098     32.388246     32.388246     64.776493
     -3.088088     37.371532     37.371532     74.743063
     -3.078078     40.987523     40.987523     81.975045
     -3.068068     42.953128     42.953128     85.906256
     -3.058058     43.311322     43.311322     86.622644
     -3.048048     42.387062     42.387062     84.774124
     -3.038038     40.634713     40.634713     81.269426
     -3.028028     38.441366     38.441366     76.882733
     -3.018018     35.985163     35.985163     71.970326
     -3.008008     33.228184     33.228184     66.456368
     -2.997998     30.050697     30.050697     60.101395
     -2.987988     26.449786     26.449786     52.899571
     -2.977978     22.686509     22.686509     45.373018
     -2.967968     19.297540     19.297540     38.595079
     -2.957958     16.964355     16.964355     33.928711
     -2.947948     16.302522     16.302522     32.605045
     -2.937938     17.657903     17.657903     35.315806
     -2.927928     20.977658     20.977658     41.955316
     -2.917918     25.788723     25.788723     51.577446
     -2.907908     31.286931     31.286931     62.573861
     -2.897898     36.517820     36.517820     73.035640
     -2.887888     40.607443     40.607443     81.214886
     -2.877878     42.978819     42.978819     85.957639
     -2.867868     43.481491     43.481491     86.962982
     -2.857858     42.383294     42.383294     84.766588
     -2.847848     40.224581     40.224581     80.449162
     -2.837838     37.594377     37.594377     75.188753
     -2.827828     34.924070     34.924070     69.848140
     -2.817818     32.385252     32.385252     64.770503
     -2.807808     29.925974     29.925974     59.851949
     -2.797798     27.410315     27.410315     54.820630
     -2.787788     24.776411     24.776411     49.552821
     -2.777778     22.124967     22.124967     44.249934
     -2.767768     19.694892     19.694892     39.389784
     -2.757758     17.749844     17.749844     35.499689
     -2.747748     16.450666     16.450666     32.901332
     -2.737738     15.794010     15.794010     31.588020
     -2.727728     15.653261     15.653261     31.306521
     -2.717718     15.890486     15.890486     31.780973
     -2.707708     16.460155     16.460155     32.920310
     -2.697698     17.429388     17.429388     34.858776
     -2.687688     18.895958     18.895958     37.791916
     -2.677678     20.858430     20.858430     41.716860
     -2.667668     23.132540     23.132540     46.265079
     -2.657658     25.383241     25.383241     50.766481
     -2.647648     27.265691     27.265691     54.531382
     -2.637638     28.591786     28.591786     57.183571
     -2.627628     29.416756     29.416756     58.833513
     -2.617618     29.990795     29.990795     59.981591
     -2.607608     30.608596     30.608596     61.217191
     -2.597598     31.451566     31.451566     62.903132
     -2.587588     32.510178     32.510178     65.020357
     -2.577578     33.608812     33.608812     67.217624
     -2.567568     34.487920     34.487920     68.975840
     -2.557558     34.880149     34.880149     69.760298
     -2.547548     34.553240     34.553240     69.106480
     -2.537538     33.340796     33.340796     66.681592
     -2.527528     31.194094     31.194094     62.388187
     -2.517518     28.254199     28.254199     56.508398
     -2.507508     24.898766     24.898766     49.797532
     -2.497497     21.707150     21.707150     43.414300
     -2.487487     19.325173     19.325173     38.650345
     -2.477477     18.270921     18.270921     36.541842
     -2.467467     18.763782     18.763782     37.527565
     -2.457457     20.655381     20.655381     41.310762
     -2.447447     23.496951     23.496951     46.993901
     -2.437437     26.716543     26.716543     53.433085
     -2.427427     29.829562     29.829562     59.659124
     -2.417417     32.589359     32.589359     65.178718
     -2.407407     35.010073     35.010073     70.020147
     -2.397397     37.252682     37.252682     74.505365
     -2.387387     39.431621     39.431621     78.863241
     -2.377377     41.441585     41.441585     82.883169
     -2.367367     42.899853     42.899853     85.799707
     -2.357357     43.247463     43.247463     86.494927
     -2.347347     41.974935     41.974935     83.949871
     -2.337337     38.872432     38.872432     77.744864
     -2.327327     34.186145     34.186145     68.372289
     -2.317317     28.605401     28.605401     57.210802
     -2.307307     23.086398     23.086398     46.172797
     -2.297297     18.592100     18.592100     37.184200
     -2.287287     15.853554     15.853554     31.707108
     -2.277277     15.229241     15.229241     30.458483
     -2.267267     16.683396     16.683396     33.366791
     -2.257257     19.857469     19.857469     39.714937
     -2.247247     24.189408     24.189408     48.378815
     -2.237237     29.038702     29.038702     58.077404
     -2.227227     33.787853     33.787853     67.575706
     -2.217217     37.905272     37.905272     75.810544
     -2.207207     40.970299     40.970299     81.940598
     -2.197197     42.677138     42.677138     85.354277
     -2.187187     42.843319     42.843319     85.686637
     -2.177177     41.439774     41.439774     82.879547
     -2.167167     38.633131     38.633131     77.266263
     -2.157157     34.802473     34.802473     69.604947
     -2.147147     30.487967     30.487967     60.975933
     -2.137137     26.260646     26.260646     52.521292
     -2.127127     22.555789     22.555789     45.111578
     -2.117117     19.548664     19.548664     39.097329
     -2.107107     17.139275     17.139275     34.278550
     -2.097097     15.054728     15.054728     30.109456
     -2.087087     13.012030     13.012030     26.024061
     -2.077077     10.854870     10.854870     21.709740
     -2.067067      8.602328      8.602328     17.204655
     -2.057057      6.404212      6.404212     12.808424
     -2.047047      4.446932      4.446932      8.893864
     -2.037037      2.867620      2.867620      5.735241
     -2.027027      1.713327      1.713327      3.426654
     -2.017017      0.948508      0.948508      1.897017
     -2.007007      0.490661      0.490661      0.981321
     -1.996997      0.249850      0.249850      0.499700
     -1.986987      0.157435      0.157435      0.314869
     -1.976977      0.181401      0.181401      0.362801
     -1.966967      0.332474      0.332474      0.664947
     -1.956957      0.664861      0.664861      1.329723
     -1.946947      1.270987      1.270987      2.541974
     -1.936937      2.265467      2.265467      4.530934
     -1.926927      3.753973      3.753973      7.507947
     -1.916917      5.789198      5.789198     11.578395
     -1.906907      8.326379      8.326379     16.652758
     -1.896897     11.198229     11.198229     22.396458
     -1.886887     14.126768     14.126768     28.253536
     -1.876877     16.776504     16.776504     33.553009
     -1.866867     18.836231     18.836231     37.672462
     -1.856857     20.105255     20.105255     40.210510
     -1.846847     20.558351     20.558351     41.116701
     -1.836837     20.368732     20.368732     40.737463
     -1.826827     19.875035     19.875035     39.750069
     -1.816817     19.488413     19.488413     38.976827
     -1.806807     19.554949     19.554949     39.109897
     -1.796797     20.215061     20.215061     40.430123
     -1.786787     21.319902     21.319902     42.639805
     -1.776777     22.454795     22.454795     44.909590
     -1.766767     23.076505     23.076505     46.153010
     -1.756757     22.714237     22.714237     45.428475
     -1.746747     21.148192     21.148192     42.296385
     -1.736737     18.488654     18.488654     36.977307
     -1.726727     15.128905     15.128905     30.257810
     -1.716717     11.606442     11.606442     23.212885
     -1.706707      8.443311      8.443311     16.886622
     -1.696697      6.030533      6.030533     12.061066
     -1.686687      4.583495      4.583495      9.166990
     -1.676677      4.152724      4.152724      8.305448
     -1.666667      4.653530      4.653530      9.307060
     -1.656657      5.887033      5.887033     11.774066
     -1.646647      7.552252      7.552252     15.104504
     -1.636637      9.271793      9.271793     18.543585
     -1.626627     10.654128     10.654128     21.308256
