# EIG2DOS: Utility for SIESTA to obtain the electronic density of states
#  E. Artacho, Apr 1999, A. Garcia, Apr 2012
#  Nick R. Papior, Feb 2017
# ------------------------------------------
# Eigenvalues calculated from a non-polarized calculation
# Eigenvalues read from siesta.EIG
# Kpoint weights read from siesta.KP
# Using smearing parameter:   0.0500
# Using 1000 points in the energy range
# Selected bands: 1 to: 2981
# Emin, Emax in file for selected band(s):    -27.4042286    218.4019870
# Nbands, Nspin, Nk   =   2981     1     1
# E_F                 =    -4.2072 eV --> (shifted to ZERO)
# Broadening          =     0.0500 eV
#
#        E            N(up)  (=)   N(down)         Ntot
     -5.000000     35.204799     35.204799     70.409598
     -4.989990     39.652977     39.652977     79.305953
     -4.979980     43.273573     43.273573     86.547147
     -4.969970     45.440770     45.440770     90.881539
     -4.959960     45.775720     45.775720     91.551441
     -4.949950     44.273945     44.273945     88.547891
     -4.939940     41.316120     41.316120     82.632241
     -4.929930     37.579497     37.579497     75.158995
     -4.919920     33.903898     33.903898     67.807796
     -4.909910     31.158912     31.158912     62.317825
     -4.899900     30.121959     30.121959     60.243919
     -4.889890     31.348033     31.348033     62.696066
     -4.879880     35.021738     35.021738     70.043475
     -4.869870     40.826665     40.826665     81.653330
     -4.859860     47.907787     47.907787     95.815574
     -4.849850     54.996261     54.996261    109.992521
     -4.839840     60.701685     60.701685    121.403370
     -4.829830     63.887974     63.887974    127.775948
     -4.819820     63.991541     63.991541    127.983083
     -4.809810     61.153571     61.153571    122.307141
     -4.799800     56.117488     56.117488    112.234977
     -4.789790     49.945034     49.945034     99.890068
     -4.779780     43.675544     43.675544     87.351088
     -4.769770     38.060712     38.060712     76.121425
     -4.759760     33.455191     33.455191     66.910381
     -4.749750     29.865109     29.865109     59.730218
     -4.739740     27.092383     27.092383     54.184765
     -4.729730     24.888703     24.888703     49.777406
     -4.719720     23.052509     23.052509     46.105019
     -4.709710     21.448653     21.448653     42.897307
     -4.699700     19.978345     19.978345     39.956690
     -4.689690     18.552020     18.552020     37.104040
     -4.679680     17.107487     17.107487     34.214974
     -4.669670     15.676952     15.676952     31.353903
     -4.659660     14.463665     14.463665     28.927331
     -4.649650     13.869317     13.869317     27.738634
     -4.639640     14.428860     14.428860     28.857721
     -4.629630     16.650958     16.650958     33.301915
     -4.619620     20.808554     20.808554     41.617108
     -4.609610     26.756341     26.756341     53.512681
     -4.599600     33.858062     33.858062     67.716123
     -4.589590     41.080000     41.080000     82.160000
     -4.579580     47.248585     47.248585     94.497170
     -4.569570     51.397229     51.397229    102.794457
     -4.559560     53.074521     53.074521    106.149042
     -4.549550     52.486681     52.486681    104.973362
     -4.539540     50.409634     50.409634    100.819268
     -4.529530     47.902163     47.902163     95.804325
     -4.519520     45.933500     45.933500     91.867000
     -4.509510     45.068453     45.068453     90.136906
     -4.499499     45.321651     45.321651     90.643302
     -4.489489     46.218953     46.218953     92.437907
     -4.479479     47.022028     47.022028     94.044055
     -4.469469     47.014844     47.014844     94.029689
     -4.459459     45.739441     45.739441     91.478882
     -4.449449     43.104387     43.104387     86.208775
     -4.439439     39.353732     39.353732     78.707464
     -4.429429     34.944558     34.944558     69.889116
     -4.419419     30.407905     30.407905     60.815809
     -4.409409     26.250209     26.250209     52.500417
     -4.399399     22.906701     22.906701     45.813401
     -4.389389     20.718077     20.718077     41.436154
     -4.379379     19.895611     19.895611     39.791221
     -4.369369     20.469114     20.469114     40.938228
     -4.359359     22.249866     22.249866     44.499732
     -4.349349     24.852859     24.852859     49.705718
     -4.339339     27.796295     27.796295     55.592590
     -4.329329     30.649034     30.649034     61.298068
     -4.319319     33.162561     33.162561     66.325122
     -4.309309     35.326225     35.326225     70.652451
     -4.299299     37.319795     37.319795     74.639590
     -4.289289     39.382667     39.382667     78.765334
     -4.279279     41.651606     41.651606     83.303212
     -4.269269     44.030186     44.030186     88.060372
     -4.259259     46.145978     46.145978     92.291957
     -4.249249     47.428251     47.428251     94.856501
     -4.239239     47.297914     47.297914     94.595829
     -4.229229     45.408697     45.408697     90.817395
     -4.219219     41.837783     41.837783     83.675566
     -4.209209     37.127498     37.127498     74.254996
     -4.199199     32.139967     32.139967     64.279935
     -4.189189     27.778063     27.778063     55.556125
     -4.179179     24.695591     24.695591     49.391182
     -4.169169     23.124648     23.124648     46.249297
     -4.159159     22.886486     22.886486     45.772972
     -4.149149     23.561866     23.561866     47.123732
     -4.139139     24.726307     24.726307     49.452613
     -4.129129     26.134771     26.134771     52.269543
     -4.119119     27.771383     27.771383     55.542766
     -4.109109     29.745853     29.745853     59.491706
     -4.099099     32.094329     32.094329     64.188659
     -4.089089     34.597769     34.597769     69.195538
     -4.079079     36.734926     36.734926     73.469852
     -4.069069     37.825068     37.825068     75.650136
     -4.059059     37.310267     37.310267     74.620535
     -4.049049     35.037750     35.037750     70.075501
     -4.039039     31.390085     31.390085     62.780170
     -4.029029     27.189918     27.189918     54.379837
     -4.019019     23.428467     23.428467     46.856934
     -4.009009     20.954972     20.954972     41.909944
     -3.998999     20.266612     20.266612     40.533223
     -3.988989     21.464223     21.464223     42.928447
     -3.978979     24.344818     24.344818     48.689636
     -3.968969     28.546297     28.546297     57.092595
     -3.958959     33.666608     33.666608     67.333216
     -3.948949     39.327888     39.327888     78.655775
     -3.938939     45.202330     45.202330     90.404660
     -3.928929     51.027640     51.027640    102.055280
     -3.918919     56.617403     56.617403    113.234805
     -3.908909     61.845843     61.845843    123.691686
     -3.898899     66.588277     66.588277    133.176554
     -3.888889     70.631440     70.631440    141.262881
     -3.878879     73.604776     73.604776    147.209553
     -3.868869     74.991553     74.991553    149.983105
     -3.858859     74.245807     74.245807    148.491615
     -3.848849     70.985562     70.985562    141.971124
     -3.838839     65.186977     65.186977    130.373953
     -3.828829     57.293433     57.293433    114.586866
     -3.818819     48.183168     48.183168     96.366336
     -3.808809     38.994345     38.994345     77.988689
     -3.798799     30.861816     30.861816     61.723632
     -3.788789     24.651410     24.651410     49.302820
     -3.778779     20.774110     20.774110     41.548219
     -3.768769     19.129911     19.129911     38.259822
     -3.758759     19.186832     19.186832     38.373664
     -3.748749     20.162667     20.162667     40.325334
     -3.738739     21.255364     21.255364     42.510727
     -3.728729     21.862802     21.862802     43.725605
     -3.718719     21.739593     21.739593     43.479187
     -3.708709     21.053084     21.053084     42.106168
     -3.698699     20.321348     20.321348     40.642696
     -3.688689     20.242458     20.242458     40.484915
     -3.678679     21.455109     21.455109     42.910219
     -3.668669     24.298855     24.298855     48.597710
     -3.658659     28.654992     28.654992     57.309983
     -3.648649     33.932985     33.932985     67.865971
     -3.638639     39.218583     39.218583     78.437166
     -3.628629     43.534363     43.534363     87.068726
     -3.618619     46.114077     46.114077     92.228154
     -3.608609     46.588863     46.588863     93.177725
     -3.598599     45.030234     45.030234     90.060468
     -3.588589     41.862394     41.862394     83.724787
     -3.578579     37.703242     37.703242     75.406485
     -3.568569     33.198075     33.198075     66.396150
     -3.558559     28.885453     28.885453     57.770906
     -3.548549     25.111091     25.111091     50.222181
     -3.538539     21.998757     21.998757     43.997514
     -3.528529     19.486631     19.486631     38.973261
     -3.518519     17.423790     17.423790     34.847580
     -3.508509     15.692443     15.692443     31.384886
     -3.498498     14.298585     14.298585     28.597169
     -3.488488     13.381729     13.381729     26.763458
     -3.478478     13.135589     13.135589     26.271178
     -3.468468     13.681371     13.681371     27.362743
     -3.458458     14.961305     14.961305     29.922610
     -3.448448     16.707076     16.707076     33.414152
     -3.438438     18.497595     18.497595     36.995189
     -3.428428     19.879419     19.879419     39.758839
     -3.418418     20.502495     20.502495     41.004990
     -3.408408     20.227198     20.227198     40.454395
     -3.398398     19.175332     19.175332     38.350663
     -3.388388     17.715402     17.715402     35.430804
     -3.378378     16.386889     16.386889     32.773779
     -3.368368     15.781134     15.781134     31.562267
     -3.358358     16.407439     16.407439     32.814879
     -3.348348     18.576296     18.576296     37.152593
     -3.338338     22.322704     22.322704     44.645408
     -3.328328     27.376698     27.376698     54.753397
     -3.318318     33.178249     33.178249     66.356498
     -3.308308     38.937022     38.937022     77.874044
     -3.298298     43.745154     43.745154     87.490309
     -3.288288     46.744616     46.744616     93.489232
     -3.278278     47.322339     47.322339     94.644679
     -3.268268     45.273129     45.273129     90.546257
     -3.258258     40.862628     40.862628     81.725256
     -3.248248     34.755864     34.755864     69.511728
     -3.238238     27.834934     27.834934     55.669867
     -3.228228     20.976326     20.976326     41.952652
     -3.218218     14.867384     14.867384     29.734768
     -3.208208      9.913200      9.913200     19.826400
     -3.198198      6.241948      6.241948     12.483895
     -3.188188      3.782289      3.782289      7.564578
     -3.178178      2.372196      2.372196      4.744392
     -3.168168      1.861623      1.861623      3.723246
     -3.158158      2.182491      2.182491      4.364982
     -3.148148      3.370588      3.370588      6.741177
     -3.138138      5.533206      5.533206     11.066412
     -3.128128      8.767106      8.767106     17.534211
     -3.118118     13.047642     13.047642     26.095285
     -3.108108     18.129207     18.129207     36.258414
     -3.098098     23.508184     23.508184     47.016369
     -3.088088     28.487415     28.487415     56.974831
     -3.078078     32.340532     32.340532     64.681065
     -3.068068     34.520689     34.520689     69.041378
     -3.058058     34.823104     34.823104     69.646208
     -3.048048     33.423226     33.423226     66.846451
     -3.038038     30.773205     30.773205     61.546409
     -3.028028     27.415013     27.415013     54.830027
     -3.018018     23.810435     23.810435     47.620870
     -3.008008     20.268610     20.268610     40.537219
     -2.997998     16.985766     16.985766     33.971532
     -2.987988     14.145337     14.145337     28.290673
     -2.977978     12.001217     12.001217     24.002435
     -2.967968     10.890035     10.890035     21.780070
     -2.957958     11.164564     11.164564     22.329128
     -2.947948     13.078143     13.078143     26.156287
     -2.937938     16.664938     16.664938     33.329875
     -2.927928     21.658845     21.658845     43.317689
     -2.917918     27.484716     27.484716     54.969432
     -2.907908     33.340757     33.340757     66.681515
     -2.897898     38.365886     38.365886     76.731771
     -2.887888     41.851643     41.851643     83.703287
     -2.877878     43.428850     43.428850     86.857699
     -2.867868     43.154530     43.154530     86.309060
     -2.857858     41.456297     41.456297     82.912593
     -2.847848     38.950628     38.950628     77.901256
     -2.837838     36.210618     36.210618     72.421236
     -2.827828     33.584941     33.584941     67.169881
     -2.817818     31.144977     31.144977     62.289953
     -2.807808     28.771476     28.771476     57.542951
     -2.797798     26.320634     26.320634     52.641267
     -2.787788     23.772153     23.772153     47.544307
     -2.777778     21.279670     21.279670     42.559341
     -2.767768     19.105740     19.105740     38.211481
     -2.757758     17.492346     17.492346     34.984692
     -2.747748     16.552613     16.552613     33.105226
     -2.737738     16.249538     16.249538     32.499076
     -2.727728     16.466007     16.466007     32.932014
     -2.717718     17.107327     17.107327     34.214654
     -2.707708     18.155848     18.155848     36.311695
     -2.697698     19.633918     19.633918     39.267837
     -2.687688     21.502833     21.502833     43.005666
     -2.677678     23.580433     23.580433     47.160865
     -2.667668     25.555453     25.555453     51.110906
     -2.657658     27.110828     27.110828     54.221656
     -2.647648     28.086252     28.086252     56.172504
     -2.637638     28.573307     28.573307     57.146615
     -2.627628     28.874763     28.874763     57.749526
     -2.617618     29.347476     29.347476     58.694952
     -2.607608     30.221953     30.221953     60.443906
     -2.597598     31.498715     31.498715     62.997430
     -2.587588     32.962032     32.962032     65.924064
     -2.577578     34.275489     34.275489     68.550979
     -2.567568     35.088796     35.088796     70.177592
     -2.557558     35.109245     35.109245     70.218491
     -2.547548     34.141863     34.141863     68.283727
     -2.537538     32.129625     32.129625     64.259250
     -2.527528     29.207055     29.207055     58.414109
     -2.517518     25.739561     25.739561     51.479122
     -2.507508     22.299634     22.299634     44.599267
     -2.497497     19.552867     19.552867     39.105733
     -2.487487     18.077507     18.077507     36.155015
     -2.477477     18.185192     18.185192     36.370384
     -2.467467     19.819797     19.819797     39.639594
     -2.457457     22.582044     22.582044     45.164089
     -2.447447     25.875554     25.875554     51.751109
     -2.437437     29.118540     29.118540     58.237080
     -2.427427     31.935195     31.935195     63.870390
     -2.417417     34.245556     34.245556     68.491112
     -2.407407     36.213181     36.213181     72.426361
     -2.397397     38.072249     38.072249     76.144499
     -2.387387     39.913969     39.913969     79.827939
     -2.377377     41.539119     41.539119     83.078238
     -2.367367     42.461808     42.461808     84.923615
     -2.357357     42.081648     42.081648     84.163296
     -2.347347     39.955497     39.955497     79.910994
     -2.337337     36.041385     36.041385     72.082769
     -2.327327     30.794479     30.794479     61.588957
     -2.317317     25.068843     25.068843     50.137687
     -2.307307     19.875806     19.875806     39.751611
     -2.297297     16.110576     16.110576     32.221151
     -2.287287     14.352237     14.352237     28.704475
     -2.277277     14.785406     14.785406     29.570813
     -2.267267     17.229977     17.229977     34.459953
     -2.257257     21.233488     21.233488     42.466975
     -2.247247     26.182543     26.182543     52.365085
     -2.237237     31.406884     31.406884     62.813768
     -2.227227     36.264248     36.264248     72.528497
     -2.217217     40.201717     40.201717     80.403435
     -2.207207     42.795227     42.795227     85.590455
     -2.197197     43.776069     43.776069     87.552138
     -2.187187     43.056209     43.056209     86.112418
     -2.177177     40.755157     40.755157     81.510314
     -2.167167     37.211579     37.211579     74.423157
     -2.157157     32.948852     32.948852     65.897704
     -2.147147     28.574726     28.574726     57.149451
     -2.137137     24.633325     24.633325     49.266650
     -2.127127     21.468564     21.468564     42.937128
     -2.117117     19.166301     19.166301     38.332602
     -2.107107     17.603325     17.603325     35.206649
     -2.097097     16.567585     16.567585     33.135171
     -2.087087     15.872330     15.872330     31.744660
     -2.077077     15.399106     15.399106     30.798213
     -2.067067     15.061868     15.061868     30.123736
     -2.057057     14.742705     14.742705     29.485409
     -2.047047     14.265527     14.265527     28.531053
     -2.037037     13.438472     13.438472     26.876943
     -2.027027     12.139504     12.139504     24.279009
     -2.017017     10.386490     10.386490     20.772979
     -2.007007      8.345046      8.345046     16.690091
     -1.996997      6.270922      6.270922     12.541843
     -1.986987      4.423966      4.423966      8.847932
     -1.976977      3.001339      3.001339      6.002677
     -1.966967      2.117225      2.117225      4.234450
     -1.956957      1.824071      1.824071      3.648142
     -1.946947      2.147968      2.147968      4.295935
     -1.936937      3.108520      3.108520      6.217040
     -1.926927      4.708249      4.708249      9.416498
     -1.916917      6.897795      6.897795     13.795590
     -1.906907      9.539594      9.539594     19.079188
     -1.896897     12.396049     12.396049     24.792099
     -1.886887     15.156770     15.156770     30.313541
     -1.876877     17.499812     17.499812     34.999625
     -1.866867     19.165787     19.165787     38.331573
     -1.856857     20.019655     20.019655     40.039311
     -1.846847     20.081642     20.081642     40.163285
     -1.836837     19.517985     19.517985     39.035970
     -1.826827     18.589812     18.589812     37.179624
     -1.816817     17.568081     17.568081     35.136163
     -1.806807     16.638332     16.638332     33.276663
     -1.796797     15.834028     15.834028     31.668056
     -1.786787     15.035171     15.035171     30.070341
     -1.776777     14.040646     14.040646     28.081291
     -1.766767     12.681502     12.681502     25.363003
     -1.756757     10.916581     10.916581     21.833161
     -1.746747      8.862317      8.862317     17.724634
     -1.736737      6.748756      6.748756     13.497512
     -1.726727      4.835380      4.835380      9.670759
     -1.716717      3.335847      3.335847      6.671694
     -1.706707      2.384183      2.384183      4.768366
     -1.696697      2.042550      2.042550      4.085100
     -1.686687      2.325407      2.325407      4.650814
     -1.676677      3.210535      3.210535      6.421069
     -1.666667      4.623312      4.623312      9.246623
     -1.656657      6.405426      6.405426     12.810852
     -1.646647      8.297885      8.297885     16.595771
     -1.636637      9.968533      9.968533     19.937065
     -1.626627     11.093343     11.093343     22.186685
