# EIG2DOS: Utility for SIESTA to obtain the electronic density of states
#  E. Artacho, Apr 1999, A. Garcia, Apr 2012
#  Nick R. Papior, Feb 2017
# ------------------------------------------
# Eigenvalues calculated from a non-polarized calculation
# Eigenvalues read from siesta.EIG
# Kpoint weights read from siesta.KP
# Using smearing parameter:   0.0500
# Using 1000 points in the energy range
# Selected bands: 1 to: 2981
# Emin, Emax in file for selected band(s):    -27.1994025    218.3527200
# Nbands, Nspin, Nk   =   2981     1     1
# E_F                 =    -4.2594 eV --> (shifted to ZERO)
# Broadening          =     0.0500 eV
#
#        E            N(up)  (=)   N(down)         Ntot
     -5.000000     33.328697     33.328697     66.657393
     -4.989990     37.176535     37.176535     74.353070
     -4.979980     40.726860     40.726860     81.453719
     -4.969970     43.361382     43.361382     86.722764
     -4.959960     44.586468     44.586468     89.172937
     -4.949950     44.172479     44.172479     88.344958
     -4.939940     42.223382     42.223382     84.446765
     -4.929930     39.161210     39.161210     78.322421
     -4.919920     35.647029     35.647029     71.294058
     -4.909910     32.473740     32.473740     64.947481
     -4.899900     30.449705     30.449705     60.899409
     -4.889890     30.265415     30.265415     60.530830
     -4.879880     32.330432     32.330432     64.660864
     -4.869870     36.600810     36.600810     73.201620
     -4.859860     42.468379     42.468379     84.936757
     -4.849850     48.805139     48.805139     97.610278
     -4.839840     54.211295     54.211295    108.422591
     -4.829830     57.414001     57.414001    114.828002
     -4.819820     57.665686     57.665686    115.331372
     -4.809810     54.966529     54.966529    109.933059
     -4.799800     50.012154     50.012154    100.024308
     -4.789790     43.902880     43.902880     87.805761
     -4.779780     37.761197     37.761197     75.522394
     -4.769770     32.424850     32.424850     64.849700
     -4.759760     28.313526     28.313526     56.627051
     -4.749750     25.464582     25.464582     50.929164
     -4.739740     23.663327     23.663327     47.326653
     -4.729730     22.583707     22.583707     45.167414
     -4.719720     21.888563     21.888563     43.777126
     -4.709710     21.280127     21.280127     42.560255
     -4.699700     20.518624     20.518624     41.037249
     -4.689690     19.435127     19.435127     38.870254
     -4.679680     17.958125     17.958125     35.916250
     -4.669670     16.156330     16.156330     32.312659
     -4.659660     14.280828     14.280828     28.561655
     -4.649650     12.778410     12.778410     25.556820
     -4.639640     12.251133     12.251133     24.502266
     -4.629630     13.351863     13.351863     26.703727
     -4.619620     16.624002     16.624002     33.248003
     -4.609610     22.312881     22.312881     44.625762
     -4.599600     30.198112     30.198112     60.396224
     -4.589590     39.515106     39.515106     79.030213
     -4.579580     49.032036     49.032036     98.064072
     -4.569570     57.306913     57.306913    114.613826
     -4.559560     63.072240     63.072240    126.144479
     -4.549550     65.617905     65.617905    131.235810
     -4.539540     65.015915     65.015915    130.031830
     -4.529530     62.080513     62.080513    124.161025
     -4.519520     58.067061     58.067061    116.134122
     -4.509510     54.228392     54.228392    108.456785
     -4.499499     51.408452     51.408452    102.816904
     -4.489489     49.829156     49.829156     99.658311
     -4.479479     49.132047     49.132047     98.264093
     -4.469469     48.622229     48.622229     97.244459
     -4.459459     47.585707     47.585707     95.171414
     -4.449449     45.545090     45.545090     91.090180
     -4.439439     42.374646     42.374646     84.749291
     -4.429429     38.274847     38.274847     76.549694
     -4.419419     33.664510     33.664510     67.329020
     -4.409409     29.060304     29.060304     58.120608
     -4.399399     24.984142     24.984142     49.968284
     -4.389389     21.897511     21.897511     43.795022
     -4.379379     20.140223     20.140223     40.280445
     -4.369369     19.862818     19.862818     39.725636
     -4.359359     20.972678     20.972678     41.945357
     -4.349349     23.133585     23.133585     46.267170
     -4.339339     25.845699     25.845699     51.691399
     -4.329329     28.592560     28.592560     57.185119
     -4.319319     31.001123     31.001123     62.002247
     -4.309309     32.948110     32.948110     65.896220
     -4.299299     34.568384     34.568384     69.136767
     -4.289289     36.162796     36.162796     72.325592
     -4.279279     38.040004     38.040004     76.080008
     -4.269269     40.346475     40.346475     80.692950
     -4.259259     42.943308     42.943308     85.886616
     -4.249249     45.382188     45.382188     90.764377
     -4.239239     47.011041     47.011041     94.022083
     -4.229229     47.194837     47.194837     94.389674
     -4.219219     45.576866     45.576866     91.153733
     -4.209209     42.264242     42.264242     84.528485
     -4.199199     37.836994     37.836994     75.673988
     -4.189189     33.160108     33.160108     66.320217
     -4.179179     29.080844     29.080844     58.161688
     -4.169169     26.154772     26.154772     52.309544
     -4.159159     24.523789     24.523789     49.047577
     -4.149149     23.983358     23.983358     47.966716
     -4.139139     24.179973     24.179973     48.359945
     -4.129129     24.825889     24.825889     49.651777
     -4.119119     25.824743     25.824743     51.649487
     -4.109109     27.253805     27.253805     54.507610
     -4.099099     29.218990     29.218990     58.437980
     -4.089089     31.662046     31.662046     63.324091
     -4.079079     34.231582     34.231582     68.463164
     -4.069069     36.309913     36.309913     72.619826
     -4.059059     37.212595     37.212595     74.425191
     -4.049049     36.478679     36.478679     72.957358
     -4.039039     34.105742     34.105742     68.211485
     -4.029029     30.602254     30.602254     61.204507
     -4.019019     26.826382     26.826382     53.652764
     -4.009009     23.695546     23.695546     47.391093
     -3.998999     21.911455     21.911455     43.822909
     -3.988989     21.817288     21.817288     43.634576
     -3.978979     23.414337     23.414337     46.828674
     -3.968969     26.478740     26.478740     52.957480
     -3.958959     30.687957     30.687957     61.375915
     -3.948949     35.698703     35.698703     71.397406
     -3.938939     41.176326     41.176326     82.352652
     -3.928929     46.811229     46.811229     93.622458
     -3.918919     52.347685     52.347685    104.695369
     -3.908909     57.612316     57.612316    115.224632
     -3.898899     62.504041     62.504041    125.008081
     -3.888889     66.922214     66.922214    133.844427
     -3.878879     70.657035     70.657035    141.314070
     -3.868869     73.309687     73.309687    146.619374
     -3.858859     74.313318     74.313318    148.626636
     -3.848849     73.080992     73.080992    146.161985
     -3.838839     69.236761     69.236761    138.473522
     -3.828829     62.831744     62.831744    125.663489
     -3.818819     54.441142     54.441142    108.882283
     -3.808809     45.085658     45.085658     90.171316
     -3.798799     35.996890     35.996890     71.993781
     -3.788789     28.310869     28.310869     56.621738
     -3.778779     22.796691     22.796691     45.593381
     -3.768769     19.703394     19.703394     39.406789
     -3.758759     18.757732     18.757732     37.515464
     -3.748749     19.295480     19.295480     38.590960
     -3.738739     20.477220     20.477220     40.954440
     -3.728729     21.528413     21.528413     43.056827
     -3.718719     21.946526     21.946526     43.893053
     -3.708709     21.628114     21.628114     43.256227
     -3.698699     20.884105     20.884105     41.768210
     -3.688689     20.333365     20.333365     40.666731
     -3.678679     20.694002     20.694002     41.388004
     -3.668669     22.525452     22.525452     45.050904
     -3.658659     26.001584     26.001584     52.003169
     -3.648649     30.799584     30.799584     61.599167
     -3.638639     36.157938     36.157938     72.315876
     -3.628629     41.092573     41.092573     82.185145
     -3.618619     44.690075     44.690075     89.380149
     -3.608609     46.361097     46.361097     92.722194
     -3.598599     45.960582     45.960582     91.921163
     -3.588589     43.751498     43.751498     87.502997
     -3.578579     40.260065     40.260065     80.520131
     -3.568569     36.100090     36.100090     72.200180
     -3.558559     31.825581     31.825581     63.651163
     -3.548549     27.833764     27.833764     55.667529
     -3.538539     24.318821     24.318821     48.637643
     -3.528529     21.276717     21.276717     42.553434
     -3.518519     18.563692     18.563692     37.127384
     -3.508509     15.997336     15.997336     31.994672
     -3.498498     13.465246     13.465246     26.930492
     -3.488488     10.995250     10.995250     21.990500
     -3.478478      8.757486      8.757486     17.514973
     -3.468468      7.002644      7.002644     14.005289
     -3.458458      5.968185      5.968185     11.936369
     -3.448448      5.790041      5.790041     11.580082
     -3.438438      6.445875      6.445875     12.891750
     -3.428428      7.742750      7.742750     15.485501
     -3.418418      9.354941      9.354941     18.709883
     -3.408408     10.910553     10.910553     21.821106
     -3.398398     12.110047     12.110047     24.220093
     -3.388388     12.838617     12.838617     25.677234
     -3.378378     13.224272     13.224272     26.448544
     -3.368368     13.609270     13.609270     27.218540
     -3.358358     14.440750     14.440750     28.881500
     -3.348348     16.123396     16.123396     32.246791
     -3.338338     18.887898     18.887898     37.775796
     -3.328328     22.709392     22.709392     45.418785
     -3.318318     27.280810     27.280810     54.561621
     -3.308308     32.034114     32.034114     64.068228
     -3.298298     36.213534     36.213534     72.427068
     -3.288288     39.016017     39.016017     78.032034
     -3.278278     39.795857     39.795857     79.591714
     -3.268268     38.281734     38.281734     76.563468
     -3.258258     34.712204     34.712204     69.424407
     -3.248248     29.805283     29.805283     59.610567
     -3.238238     24.548472     24.548472     49.096943
     -3.228228     19.886768     19.886768     39.773537
     -3.218218     16.438991     16.438991     32.877981
     -3.208208     14.355994     14.355994     28.711989
     -3.198198     13.364342     13.364342     26.728684
     -3.188188     12.958846     12.958846     25.917692
     -3.178178     12.655269     12.655269     25.310538
     -3.168168     12.205030     12.205030     24.410059
     -3.158158     11.700667     11.700667     23.401335
     -3.148148     11.546361     11.546361     23.092722
     -3.138138     12.312293     12.312293     24.624586
     -3.128128     14.521633     14.521633     29.043266
     -3.118118     18.432184     18.432184     36.864368
     -3.108108     23.876859     23.876859     47.753719
     -3.098098     30.220580     30.220580     60.441160
     -3.088088     36.468604     36.468604     72.937209
     -3.078078     41.514834     41.514834     83.029669
     -3.068068     44.456949     44.456949     88.913899
     -3.058058     44.859972     44.859972     89.719945
     -3.048048     42.857010     42.857010     85.714021
     -3.038038     39.045098     39.045098     78.090196
     -3.028028     34.232555     34.232555     68.465109
     -3.018018     29.164281     29.164281     58.328562
     -3.008008     24.350008     24.350008     48.700015
     -2.997998     20.050999     20.050999     40.101998
     -2.987988     16.390068     16.390068     32.780135
     -2.977978     13.493547     13.493547     26.987095
     -2.967968     11.577734     11.577734     23.155469
     -2.957958     10.939763     10.939763     21.879525
     -2.947948     11.866236     11.866236     23.732471
     -2.937938     14.504421     14.504421     29.008843
     -2.927928     18.747221     18.747221     37.494442
     -2.917918     24.175738     24.175738     48.351476
     -2.907908     30.089732     30.089732     60.179463
     -2.897898     35.634318     35.634318     71.268637
     -2.887888     39.998259     39.998259     79.996518
     -2.877878     42.623701     42.623701     85.247402
     -2.867868     43.349053     43.349053     86.698107
     -2.857858     42.422950     42.422950     84.845899
     -2.847848     40.377675     40.377675     80.755350
     -2.837838     37.813122     37.813122     75.626244
     -2.827828     35.184838     35.184838     70.369676
     -2.817818     32.687629     32.687629     65.375259
     -2.807808     30.278091     30.278091     60.556182
     -2.797798     27.809321     27.809321     55.618642
     -2.787788     25.195956     25.195956     50.391912
     -2.777778     22.517397     22.517397     45.034793
     -2.767768     20.007079     20.007079     40.014157
     -2.757758     17.943199     17.943199     35.886398
     -2.747748     16.512945     16.512945     33.025890
     -2.737738     15.735119     15.735119     31.470238
     -2.727728     15.487293     15.487293     30.974586
     -2.717718     15.616084     15.616084     31.232167
     -2.707708     16.054466     16.054466     32.108932
     -2.697698     16.864024     16.864024     33.728047
     -2.687688     18.169098     18.169098     36.338196
     -2.677678     20.024051     20.024051     40.048102
     -2.667668     22.305179     22.305179     44.610357
     -2.657658     24.708644     24.708644     49.417288
     -2.647648     26.868194     26.868194     53.736388
     -2.637638     28.525115     28.525115     57.050231
     -2.627628     29.644667     29.644667     59.289334
     -2.617618     30.406808     30.406808     60.813615
     -2.607608     31.081705     31.081705     62.163411
     -2.597598     31.872557     31.872557     63.745114
     -2.587588     32.818296     32.818296     65.636591
     -2.577578     33.794687     33.794687     67.589374
     -2.567568     34.582107     34.582107     69.164215
     -2.557558     34.938447     34.938447     69.876895
     -2.547548     34.642557     34.642557     69.285114
     -2.537538     33.522609     33.522609     67.045219
     -2.527528     31.503745     31.503745     63.007489
     -2.517518     28.681536     28.681536     57.363072
     -2.507508     25.380978     25.380978     50.761957
     -2.497497     22.141790     22.141790     44.283580
     -2.487487     19.601564     19.601564     39.203128
     -2.477477     18.308095     18.308095     36.616190
     -2.467467     18.539168     18.539168     37.078336
     -2.457457     20.212388     20.212388     40.424776
     -2.447447     22.928726     22.928726     45.857452
     -2.437437     26.133139     26.133139     52.266278
     -2.427427     29.322529     29.322529     58.645058
     -2.417417     32.208603     32.208603     64.417206
     -2.407407     34.761973     34.761973     69.523946
     -2.397397     37.118116     37.118116     74.236233
     -2.387387     39.392748     39.392748     78.785497
     -2.377377     41.502118     41.502118     83.004236
     -2.367367     43.087612     43.087612     86.175224
     -2.357357     43.598054     43.598054     87.196108
     -2.347347     42.505881     42.505881     85.011763
     -2.337337     39.562162     39.562162     79.124325
     -2.327327     34.969161     34.969161     69.938322
     -2.317317     29.385764     29.385764     58.771529
     -2.307307     23.762139     23.762139     47.524278
     -2.297297     19.078874     19.078874     38.157748
     -2.287287     16.098666     16.098666     32.197331
     -2.277277     15.214075     15.214075     30.428150
     -2.267267     16.418365     16.418365     32.836731
     -2.257257     19.375413     19.375413     38.750825
     -2.247247     23.541106     23.541106     47.082212
     -2.237237     28.290554     28.290554     56.581108
     -2.227227     33.019360     33.019360     66.038720
     -2.217217     37.203810     37.203810     74.407619
     -2.207207     40.421974     40.421974     80.843948
     -2.197197     42.354136     42.354136     84.708273
     -2.187187     42.789635     42.789635     85.579270
     -2.177177     41.658867     41.658867     83.317734
     -2.167167     39.082582     39.082582     78.165165
     -2.157157     35.400645     35.400645     70.801290
     -2.147147     31.134110     31.134110     62.268219
     -2.137137     26.863365     26.863365     53.726729
     -2.127127     23.058861     23.058861     46.117722
     -2.117117     19.942619     19.942619     39.885238
     -2.107107     17.453553     17.453553     34.907106
     -2.097097     15.335262     15.335262     30.670524
     -2.087087     13.296320     13.296320     26.592639
     -2.077077     11.156561     11.156561     22.313122
     -2.067067      8.910533      8.910533     17.821067
     -2.057057      6.694305      6.694305     13.388611
     -2.047047      4.694634      4.694634      9.389267
     -2.037037      3.058901      3.058901      6.117802
     -2.027027      1.847039      1.847039      3.694077
     -2.017017      1.033147      1.033147      2.066295
     -2.007007      0.538763      0.538763      1.077526
     -1.996997      0.273008      0.273008      0.546016
     -1.986987      0.163209      0.163209      0.326417
     -1.976977      0.171922      0.171922      0.343844
     -1.966967      0.304053      0.304053      0.608106
     -1.956957      0.608294      0.608294      1.216589
     -1.946947      1.172965      1.172965      2.345930
     -1.936937      2.111897      2.111897      4.223794
     -1.926927      3.535697      3.535697      7.071394
     -1.916917      5.509600      5.509600     11.019201
     -1.906907      8.009409      8.009409     16.018818
     -1.896897     10.895351     10.895351     21.790701
     -1.886887     13.922739     13.922739     27.845479
     -1.876877     16.795299     16.795299     33.590597
     -1.866867     19.247385     19.247385     38.494770
     -1.856857     21.125617     21.125617     42.251235
     -1.846847     22.436536     22.436536     44.873072
     -1.836837     23.336045     23.336045     46.672089
     -1.826827     24.055371     24.055371     48.110741
     -1.816817     24.783459     24.783459     49.566918
     -1.806807     25.551062     25.551062     51.102123
     -1.796797     26.174289     26.174289     52.348577
     -1.786787     26.299473     26.299473     52.598947
     -1.776777     25.544282     25.544282     51.088563
     -1.766767     23.674484     23.674484     47.348969
     -1.756757     20.728739     20.728739     41.457479
     -1.746747     17.028144     17.028144     34.056288
     -1.736737     13.070227     13.070227     26.140454
     -1.726727      9.367417      9.367417     18.734834
     -1.716717      6.310155      6.310155     12.620310
     -1.706707      4.107728      4.107728      8.215457
     -1.696697      2.809561      2.809561      5.619121
     -1.686687      2.369250      2.369250      4.738500
     -1.676677      2.702380      2.702380      5.404761
     -1.666667      3.705840      3.705840      7.411679
     -1.656657      5.236928      5.236928     10.473855
     -1.646647      7.078410      7.078410     14.156820
     -1.636637      8.927763      8.927763     17.855526
     -1.626627     10.438684     10.438684     20.877368
