# EIG2DOS: Utility for SIESTA to obtain the electronic density of states
#  E. Artacho, Apr 1999, A. Garcia, Apr 2012
#  Nick R. Papior, Feb 2017
# ------------------------------------------
# Eigenvalues calculated from a non-polarized calculation
# Eigenvalues read from siesta.EIG
# Kpoint weights read from siesta.KP
# Using smearing parameter:   0.0500
# Using 1000 points in the energy range
# Selected bands: 1 to: 2981
# Emin, Emax in file for selected band(s):    -27.3411392    218.4023490
# Nbands, Nspin, Nk   =   2981     1     1
# E_F                 =    -4.2018 eV --> (shifted to ZERO)
# Broadening          =     0.0500 eV
#
#        E            N(up)  (=)   N(down)         Ntot
     -5.000000     31.668173     31.668173     63.336347
     -4.989990     36.646842     36.646842     73.293684
     -4.979980     41.353991     41.353991     82.707982
     -4.969970     44.986455     44.986455     89.972910
     -4.959960     46.858327     46.858327     93.716655
     -4.949950     46.629246     46.629246     93.258493
     -4.939940     44.424184     44.424184     88.848369
     -4.929930     40.809595     40.809595     81.619190
     -4.919920     36.656851     36.656851     73.313703
     -4.909910     32.956675     32.956675     65.913350
     -4.899900     30.634558     30.634558     61.269116
     -4.889890     30.382118     30.382118     60.764236
     -4.879880     32.503259     32.503259     65.006517
     -4.869870     36.794814     36.794814     73.589627
     -4.859860     42.516265     42.516265     85.032530
     -4.849850     48.508445     48.508445     97.016890
     -4.839840     53.472359     53.472359    106.944719
     -4.829830     56.336603     56.336603    112.673206
     -4.819820     56.578232     56.578232    113.156465
     -4.809810     54.364169     54.364169    108.728338
     -4.799800     50.453783     50.453783    100.907565
     -4.789790     45.908160     45.908160     91.816320
     -4.779780     41.729857     41.729857     83.459715
     -4.769770     38.571327     38.571327     77.142655
     -4.759760     36.603774     36.603774     73.207548
     -4.749750     35.564140     35.564140     71.128280
     -4.739740     34.932584     34.932584     69.865168
     -4.729730     34.156446     34.156446     68.312893
     -4.719720     32.834288     32.834288     65.668575
     -4.709710     30.802507     30.802507     61.605014
     -4.699700     28.117581     28.117581     56.235162
     -4.689690     24.977096     24.977096     49.954193
     -4.679680     21.644572     21.644572     43.289144
     -4.669670     18.422821     18.422821     36.845642
     -4.659660     15.673425     15.673425     31.346850
     -4.649650     13.839554     13.839554     27.679108
     -4.639640     13.421424     13.421424     26.842847
     -4.629630     14.878694     14.878694     29.757389
     -4.619620     18.474411     18.474411     36.948821
     -4.609610     24.111954     24.111954     48.223907
     -4.599600     31.237565     31.237565     62.475129
     -4.589590     38.876114     38.876114     77.752228
     -4.579580     45.828874     45.828874     91.657747
     -4.569570     50.994277     50.994277    101.988553
     -4.559560     53.703961     53.703961    107.407921
     -4.549550     53.937434     53.937434    107.874868
     -4.539540     52.315255     52.315255    104.630510
     -4.529530     49.861426     49.861426     99.722853
     -4.519520     47.626294     47.626294     95.252589
     -4.509510     46.320979     46.320979     92.641957
     -4.499499     46.105332     46.105332     92.210664
     -4.489489     46.600773     46.600773     93.201546
     -4.479479     47.102173     47.102173     94.204346
     -4.469469     46.884037     46.884037     93.768073
     -4.459459     45.469280     45.469280     90.938559
     -4.449449     42.762325     42.762325     85.524651
     -4.439439     39.021490     39.021490     78.042981
     -4.429429     34.720078     34.720078     69.440157
     -4.419419     30.384006     30.384006     60.768013
     -4.409409     26.479857     26.479857     52.959714
     -4.399399     23.375289     23.375289     46.750577
     -4.389389     21.340727     21.340727     42.681454
     -4.379379     20.543245     20.543245     41.086490
     -4.369369     21.009936     21.009936     42.019873
     -4.359359     22.584297     22.584297     45.168594
     -4.349349     24.925590     24.925590     49.851179
     -4.339339     27.584935     27.584935     55.169871
     -4.329329     30.144091     30.144091     60.288182
     -4.319319     32.358342     32.358342     64.716685
     -4.309309     34.233868     34.233868     68.467736
     -4.299299     35.997201     35.997201     71.994402
     -4.289289     37.961624     37.961624     75.923248
     -4.279279     40.338838     40.338838     80.677677
     -4.269269     43.069817     43.069817     86.139634
     -4.259259     45.751036     45.751036     91.502072
     -4.249249     47.707360     47.707360     95.414720
     -4.239239     48.209210     48.209210     96.418420
     -4.229229     46.762322     46.762322     93.524644
     -4.219219     43.346983     43.346983     86.693965
     -4.209209     38.488120     38.488120     76.976239
     -4.199199     33.109129     33.109129     66.218258
     -4.189189     28.227286     28.227286     56.454572
     -4.179179     24.626625     24.626625     49.253249
     -4.169169     22.649702     22.649702     45.299404
     -4.159159     22.183368     22.183368     44.366737
     -4.149149     22.817986     22.817986     45.635972
     -4.139139     24.086131     24.086131     48.172261
     -4.129129     25.665037     25.665037     51.330074
     -4.119119     27.456060     27.456060     54.912119
     -4.109109     29.515213     29.515213     59.030425
     -4.099099     31.878423     31.878423     63.756846
     -4.089089     34.379442     34.379442     68.758883
     -4.079079     36.572107     36.572107     73.144214
     -4.069069     37.824801     37.824801     75.649601
     -4.059059     37.564292     37.564292     75.128585
     -4.049049     35.555060     35.555060     71.110119
     -4.039039     32.067324     32.067324     64.134648
     -4.029029     27.840086     27.840086     55.680173
     -4.019019     23.854513     23.854513     47.709026
     -4.009009     21.029416     21.029416     42.058833
     -3.998999     19.976661     19.976661     39.953322
     -3.988989     20.903199     20.903199     41.806397
     -3.978979     23.660310     23.660310     47.320621
     -3.968969     27.875435     27.875435     55.750870
     -3.958959     33.089328     33.089328     66.178656
     -3.948949     38.853472     38.853472     77.706944
     -3.938939     44.785236     44.785236     89.570472
     -3.928929     50.598176     50.598176    101.196351
     -3.918919     56.114247     56.114247    112.228494
     -3.908909     61.244113     61.244113    122.488226
     -3.898899     65.920098     65.920098    131.840196
     -3.888889     69.993620     69.993620    139.987241
     -3.878879     73.146060     73.146060    146.292119
     -3.868869     74.876564     74.876564    149.753129
     -3.858859     74.603964     74.603964    149.207929
     -3.848849     71.863321     71.863321    143.726642
     -3.838839     66.522897     66.522897    133.045793
     -3.828829     58.926254     58.926254    117.852508
     -3.818819     49.889371     49.889371     99.778743
     -3.808809     40.541366     40.541366     81.082732
     -3.798799     32.060343     32.060343     64.120685
     -3.788789     25.393701     25.393701     50.787402
     -3.778779     21.051175     21.051175     42.102351
     -3.768769     19.025678     19.025678     38.051355
     -3.758759     18.851528     18.851528     37.703056
     -3.748749     19.771237     19.771237     39.542474
     -3.738739     20.960107     20.960107     41.920215
     -3.728729     21.751773     21.751773     43.503545
     -3.718719     21.812358     21.812358     43.624716
     -3.708709     21.222284     21.222284     42.444569
     -3.698699     20.442107     20.442107     40.884213
     -3.688689     20.163015     20.163015     40.326031
     -3.678679     21.073369     21.073369     42.146738
     -3.668669     23.604498     23.604498     47.208996
     -3.658659     27.739553     27.739553     55.479105
     -3.648649     32.962120     32.962120     65.924239
     -3.638639     38.377634     38.377634     76.755268
     -3.628629     42.971180     42.971180     85.942360
     -3.618619     45.903313     45.903313     91.806627
     -3.608609     46.728718     46.728718     93.457436
     -3.598599     45.464436     45.464436     90.928872
     -3.588589     42.509402     42.509402     85.018804
     -3.578579     38.477350     38.477350     76.954701
     -3.568569     34.018440     34.018440     68.036880
     -3.558559     29.678061     29.678061     59.356122
     -3.548549     25.808136     25.808136     51.616271
     -3.538539     22.532593     22.532593     45.065185
     -3.528529     19.770795     19.770795     39.541590
     -3.518519     17.318878     17.318878     34.637756
     -3.508509     14.968521     14.968521     29.937042
     -3.498498     12.619537     12.619537     25.239073
     -3.488488     10.340111     10.340111     20.680222
     -3.478478      8.353565      8.353565     16.707130
     -3.468468      6.966016      6.966016     13.932032
     -3.458458      6.470311      6.470311     12.940622
     -3.448448      7.058462      7.058462     14.116924
     -3.438438      8.759030      8.759030     17.518059
     -3.428428     11.405769     11.405769     22.811538
     -3.418418     14.645625     14.645625     29.291249
     -3.408408     17.997609     17.997609     35.995219
     -3.398398     20.964692     20.964692     41.929383
     -3.388388     23.176044     23.176044     46.352088
     -3.378378     24.511361     24.511361     49.022723
     -3.368368     25.153051     25.153051     50.306103
     -3.358358     25.535237     25.535237     51.070475
     -3.348348     26.199885     26.199885     52.399770
     -3.338338     27.606655     27.606655     55.213310
     -3.328328     29.957092     29.957092     59.914184
     -3.318318     33.086100     33.086100     66.172199
     -3.308308     36.456829     36.456829     72.913657
     -3.298298     39.275602     39.275602     78.551204
     -3.288288     40.714630     40.714630     81.429260
     -3.278278     40.186446     40.186446     80.372891
     -3.268268     37.571311     37.571311     75.142623
     -3.258258     33.292626     33.292626     66.585253
     -3.248248     28.188801     28.188801     56.377602
     -3.238238     23.224431     23.224431     46.448863
     -3.228228     19.164210     19.164210     38.328419
     -3.218218     16.349710     16.349710     32.699419
     -3.208208     14.663788     14.663788     29.327576
     -3.198198     13.675985     13.675985     27.351970
     -3.188188     12.885940     12.885940     25.771881
     -3.178178     11.954373     11.954373     23.908747
     -3.168168     10.835671     10.835671     21.671343
     -3.158158      9.780736      9.780736     19.561473
     -3.148148      9.232305      9.232305     18.464611
     -3.138138      9.664217      9.664217     19.328435
     -3.128128     11.416978     11.416978     22.833956
     -3.118118     14.568150     14.568150     29.136299
     -3.108108     18.864459     18.864459     37.728919
     -3.098098     23.737237     23.737237     47.474475
     -3.088088     28.412743     28.412743     56.825487
     -3.078078     32.101924     32.101924     64.203848
     -3.068068     34.214886     34.214886     68.429771
     -3.058058     34.518525     34.518525     69.037051
     -3.048048     33.168277     33.168277     66.336554
     -3.038038     30.600862     30.600862     61.201725
     -3.028028     27.345534     27.345534     54.691069
     -3.018018     23.851707     23.851707     47.703414
     -3.008008     20.413417     20.413417     40.826834
     -2.997998     17.207582     17.207582     34.415164
     -2.987988     14.396553     14.396553     28.793106
     -2.977978     12.217417     12.217417     24.434835
     -2.967968     11.000930     11.000930     22.001859
     -2.957958     11.108961     11.108961     22.217922
     -2.947948     12.818920     12.818920     25.637839
     -2.937938     16.200546     16.200546     32.401091
     -2.927928     21.028966     21.028966     42.057931
     -2.917918     26.768284     26.768284     53.536568
     -2.907908     32.645154     32.645154     65.290307
     -2.897898     37.807674     37.807674     75.615348
     -2.887888     41.532012     41.532012     83.064024
     -2.877878     43.409833     43.409833     86.819665
     -2.867868     43.443336     43.443336     86.886671
     -2.857858     42.003385     42.003385     84.006771
     -2.847848     39.662715     39.662715     79.325430
     -2.837838     36.974203     36.974203     73.948407
     -2.827828     34.291914     34.291914     68.583828
     -2.817818     31.711602     31.711602     63.423203
     -2.807808     29.145996     29.145996     58.291992
     -2.797798     26.480843     26.480843     52.961686
     -2.787788     23.718842     23.718842     47.437683
     -2.777778     21.032029     21.032029     42.064058
     -2.767768     18.700390     18.700390     37.400780
     -2.757758     16.981892     16.981892     33.963784
     -2.747748     15.997354     15.997354     31.994707
     -2.737738     15.700099     15.700099     31.400198
     -2.727728     15.943473     15.943473     31.886947
     -2.717718     16.594237     16.594237     33.188474
     -2.707708     17.609168     17.609168     35.218336
     -2.697698     19.018406     19.018406     38.036812
     -2.687688     20.827279     20.827279     41.654557
     -2.677678     22.912273     22.912273     45.824547
     -2.667668     24.998929     24.998929     49.997858
     -2.657658     26.756299     26.756299     53.512597
     -2.647648     27.958753     27.958753     55.917506
     -2.637638     28.611796     28.611796     57.223593
     -2.627628     28.955987     28.955987     57.911973
     -2.617618     29.341539     29.341539     58.683077
     -2.607608     30.048890     30.048890     60.097780
     -2.597598     31.158125     31.158125     62.316249
     -2.587588     32.526990     32.526990     65.053980
     -2.577578     33.862220     33.862220     67.724439
     -2.567568     34.821056     34.821056     69.642111
     -2.557558     35.089417     35.089417     70.178834
     -2.547548     34.429314     34.429314     68.858629
     -2.537538     32.722487     32.722487     65.444974
     -2.527528     30.028921     30.028921     60.057842
     -2.517518     26.640329     26.640329     53.280657
     -2.507508     23.080355     23.080355     46.160710
     -2.497497     20.015151     20.015151     40.030302
     -2.487487     18.084399     18.084399     36.168798
     -2.477477     17.711324     17.711324     35.422648
     -2.467467     18.969547     18.969547     37.939095
     -2.457457     21.565322     21.565322     43.130644
     -2.447447     24.947259     24.947259     49.894518
     -2.437437     28.502774     28.502774     57.005548
     -2.427427     31.762068     31.762068     63.524135
     -2.417417     34.523133     34.523133     69.046265
     -2.407407     36.842133     36.842133     73.684266
     -2.397397     38.893622     38.893622     77.787245
     -2.387387     40.769218     40.769218     81.538435
     -2.377377     42.319816     42.319816     84.639631
     -2.367367     43.132822     43.132822     86.265644
     -2.357357     42.672720     42.672720     85.345439
     -2.347347     40.528404     40.528404     81.056808
     -2.337337     36.649291     36.649291     73.298582
     -2.327327     31.452073     31.452073     62.904146
     -2.317317     25.744763     25.744763     51.489526
     -2.307307     20.506248     20.506248     41.012496
     -2.297297     16.622828     16.622828     33.245657
     -2.287287     14.685186     14.685186     29.370372
     -2.277277     14.900444     14.900444     29.800888
     -2.267267     17.113937     17.113937     34.227873
     -2.257257     20.898975     20.898975     41.797950
     -2.247247     25.668766     25.668766     51.337533
     -2.237237     30.779352     30.779352     61.558703
     -2.227227     35.609228     35.609228     71.218456
     -2.217217     39.613236     39.613236     79.226472
     -2.207207     42.356620     42.356620     84.713240
     -2.197197     43.541355     43.541355     87.082709
     -2.187187     43.036971     43.036971     86.073942
     -2.177177     40.916835     40.916835     81.833670
     -2.167167     37.480484     37.480484     74.960967
     -2.157157     33.227984     33.227984     66.455969
     -2.147147     28.762073     28.762073     57.524146
     -2.137137     24.632016     24.632016     49.264032
     -2.127127     21.178207     21.178207     42.356414
     -2.117117     18.453228     18.453228     36.906455
     -2.107107     16.263660     16.263660     32.527320
     -2.097097     14.313137     14.313137     28.626275
     -2.087087     12.372747     12.372747     24.745493
     -2.077077     10.395623     10.395623     20.791246
     -2.067067      8.530592      8.530592     17.061184
     -2.057057      7.045174      7.045174     14.090347
     -2.047047      6.205462      6.205462     12.410924
     -2.037037      6.164532      6.164532     12.329064
     -2.027027      6.893228      6.893228     13.786456
     -2.017017      8.167526      8.167526     16.335053
     -2.007007      9.614516      9.614516     19.229031
     -1.996997     10.809081     10.809081     21.618161
     -1.986987     11.398289     11.398289     22.796579
     -1.976977     11.214226     11.214226     22.428452
     -1.966967     10.332437     10.332437     20.664874
     -1.956957      9.051508      9.051508     18.103017
     -1.946947      7.802167      7.802167     15.604334
     -1.936937      7.022012      7.022012     14.044024
     -1.926927      7.039101      7.039101     14.078202
     -1.916917      7.994970      7.994970     15.989940
     -1.906907      9.818557      9.818557     19.637114
     -1.896897     12.248685     12.248685     24.497369
     -1.886887     14.895971     14.895971     29.791941
     -1.876877     17.330515     17.330515     34.661030
     -1.866867     19.177074     19.177074     38.354149
     -1.856857     20.196923     20.196923     40.393846
     -1.846847     20.337525     20.337525     40.675049
     -1.836837     19.736387     19.736387     39.472774
     -1.826827     18.673000     18.673000     37.346000
     -1.816817     17.474905     17.474905     34.949810
     -1.806807     16.402634     16.402634     32.805267
     -1.796797     15.556362     15.556362     31.112724
     -1.786787     14.848805     14.848805     29.697610
     -1.776777     14.063268     14.063268     28.126535
     -1.766767     12.971968     12.971968     25.943935
     -1.756757     11.455331     11.455331     22.910662
     -1.746747      9.563016      9.563016     19.126033
     -1.736737      7.493220      7.493220     14.986439
     -1.726727      5.513495      5.513495     11.026990
     -1.716717      3.872933      3.872933      7.745866
     -1.706707      2.748178      2.748178      5.496356
     -1.696697      2.235049      2.235049      4.470098
     -1.686687      2.366975      2.366975      4.733951
     -1.676677      3.129767      3.129767      6.259534
     -1.666667      4.453335      4.453335      8.906669
     -1.656657      6.185372      6.185372     12.370744
     -1.646647      8.073638      8.073638     16.147276
     -1.636637      9.788066      9.788066     19.576133
     -1.626627     10.996132     10.996132     21.992264
