# EIG2DOS: Utility for SIESTA to obtain the electronic density of states
#  E. Artacho, Apr 1999, A. Garcia, Apr 2012
#  Nick R. Papior, Feb 2017
# ------------------------------------------
# Eigenvalues calculated from a non-polarized calculation
# Eigenvalues read from siesta.EIG
# Kpoint weights read from siesta.KP
# Using smearing parameter:   0.0500
# Using 1000 points in the energy range
# Selected bands: 1 to: 2981
# Emin, Emax in file for selected band(s):    -27.0222131    218.3077520
# Nbands, Nspin, Nk   =   2981     1     1
# E_F                 =    -4.3107 eV --> (shifted to ZERO)
# Broadening          =     0.0500 eV
#
#        E            N(up)  (=)   N(down)         Ntot
     -5.000000     39.353534     39.353534     78.707069
     -4.989990     44.387910     44.387910     88.775819
     -4.979980     48.733487     48.733487     97.466975
     -4.969970     51.794587     51.794587    103.589174
     -4.959960     53.079059     53.079059    106.158119
     -4.949950     52.353588     52.353588    104.707177
     -4.939940     49.743805     49.743805     99.487610
     -4.929930     45.740981     45.740981     91.481962
     -4.919920     41.120179     41.120179     82.240358
     -4.909910     36.807124     36.807124     73.614249
     -4.899900     33.730765     33.730765     67.461530
     -4.889890     32.671558     32.671558     65.343117
     -4.879880     34.095504     34.095504     68.191008
     -4.869870     37.982450     37.982450     75.964900
     -4.859860     43.708895     43.708895     87.417791
     -4.849850     50.082209     50.082209    100.164418
     -4.839840     55.591566     55.591566    111.183132
     -4.829830     58.835308     58.835308    117.670616
     -4.819820     58.966044     58.966044    117.932088
     -4.809810     55.952328     55.952328    111.904657
     -4.799800     50.533823     50.533823    101.067647
     -4.789790     43.903274     43.903274     87.806548
     -4.779780     37.281681     37.281681     74.563363
     -4.769770     31.579517     31.579517     63.159034
     -4.759760     27.253934     27.253934     54.507869
     -4.749750     24.351093     24.351093     48.702185
     -4.739740     22.645216     22.645216     45.290432
     -4.729730     21.782659     21.782659     43.565319
     -4.719720     21.383051     21.383051     42.766101
     -4.709710     21.094921     21.094921     42.189842
     -4.699700     20.625297     20.625297     41.250594
     -4.689690     19.763872     19.763872     39.527744
     -4.679680     18.413871     18.413871     36.827742
     -4.669670     16.629708     16.629708     33.259416
     -4.659660     14.648754     14.648754     29.297508
     -4.649650     12.896202     12.896202     25.792404
     -4.639640     11.943486     11.943486     23.886971
     -4.629630     12.411292     12.411292     24.822585
     -4.619620     14.822786     14.822786     29.645572
     -4.609610     19.429191     19.429191     38.858381
     -4.599600     26.050537     26.050537     52.101075
     -4.589590     33.995275     33.995275     67.990549
     -4.579580     42.125761     42.125761     84.251522
     -4.569570     49.100659     49.100659     98.201318
     -4.559560     53.748997     53.748997    107.497995
     -4.549550     55.448799     55.448799    110.897597
     -4.539540     54.349691     54.349691    108.699382
     -4.529530     51.327899     51.327899    102.655798
     -4.519520     47.676932     47.676932     95.353865
     -4.509510     44.657405     44.657405     89.314810
     -4.499499     43.088816     43.088816     86.177632
     -4.489489     43.136134     43.136134     86.272267
     -4.479479     44.347551     44.347551     88.695103
     -4.469469     45.892283     45.892283     91.784566
     -4.459459     46.880818     46.880818     93.761635
     -4.449449     46.646088     46.646088     93.292177
     -4.439439     44.908838     44.908838     89.817677
     -4.429429     41.810621     41.810621     83.621242
     -4.419419     37.842268     37.842268     75.684536
     -4.409409     33.710444     33.710444     67.420889
     -4.399399     30.176500     30.176500     60.353000
     -4.389389     27.888942     27.888942     55.777884
     -4.379379     27.230173     27.230173     54.460345
     -4.369369     28.210813     28.210813     56.421626
     -4.359359     30.454153     30.454153     60.908306
     -4.349349     33.297873     33.297873     66.595746
     -4.339339     35.996036     35.996036     71.992072
     -4.329329     37.953579     37.953579     75.907158
     -4.319319     38.902709     38.902709     77.805418
     -4.309309     38.954896     38.954896     77.909792
     -4.299299     38.520068     38.520068     77.040136
     -4.289289     38.139492     38.139492     76.278985
     -4.279279     38.299684     38.299684     76.599367
     -4.269269     39.279609     39.279609     78.559218
     -4.259259     41.056947     41.056947     82.113894
     -4.249249     43.286365     43.286365     86.572730
     -4.239239     45.364603     45.364603     90.729207
     -4.229229     46.590452     46.590452     93.180905
     -4.219219     46.392801     46.392801     92.785602
     -4.209209     44.548863     44.548863     89.097726
     -4.199199     41.289704     41.289704     82.579409
     -4.189189     37.227232     37.227232     74.454464
     -4.179179     33.126314     33.126314     66.252627
     -4.169169     29.631669     29.631669     59.263338
     -4.159159     27.081946     27.081946     54.163893
     -4.149149     25.488377     25.488377     50.976754
     -4.139139     24.662330     24.662330     49.324660
     -4.129129     24.403484     24.403484     48.806967
     -4.119119     24.642427     24.642427     49.284855
     -4.109109     25.465217     25.465217     50.930435
     -4.099099     27.009254     27.009254     54.018507
     -4.089089     29.285096     29.285096     58.570193
     -4.079079     32.024309     32.024309     64.048618
     -4.069069     34.655042     34.655042     69.310084
     -4.059059     36.451265     36.451265     72.902531
     -4.049049     36.806287     36.806287     73.612575
     -4.039039     35.499636     35.499636     70.999273
     -4.029029     32.816018     32.816018     65.632036
     -4.019019     29.451724     29.451724     58.903449
     -4.009009     26.261959     26.261959     52.523918
     -3.998999     23.984595     23.984595     47.969190
     -3.988989     23.069924     23.069924     46.139848
     -3.978979     23.663712     23.663712     47.327424
     -3.968969     25.695796     25.695796     51.391592
     -3.958959     28.983464     28.983464     57.966927
     -3.948949     33.287055     33.287055     66.574110
     -3.938939     38.319254     38.319254     76.638508
     -3.928929     43.753067     43.753067     87.506134
     -3.918919     49.264604     49.264604     98.529208
     -3.908909     54.599980     54.599980    109.199961
     -3.898899     59.615006     59.615006    119.230012
     -3.888889     64.238618     64.238618    128.477235
     -3.878879     68.358457     68.358457    136.716915
     -3.868869     71.688227     71.688227    143.376454
     -3.858859     73.709171     73.709171    147.418341
     -3.848849     73.755452     73.755452    147.510905
     -3.838839     71.240807     71.240807    142.481614
     -3.828829     65.938981     65.938981    131.877962
     -3.818819     58.183968     58.183968    116.367936
     -3.808809     48.880799     48.880799     97.761599
     -3.798799     39.304224     39.304224     78.608448
     -3.788789     30.761750     30.761750     61.523500
     -3.778779     24.253209     24.253209     48.506418
     -3.768769     20.246340     20.246340     40.492680
     -3.758759     18.625877     18.625877     37.251755
     -3.748749     18.804171     18.804171     37.608342
     -3.738739     19.937116     19.937116     39.874233
     -3.728729     21.176818     21.176818     42.353636
     -3.718719     21.899767     21.899767     43.799534
     -3.708709     21.862521     21.862521     43.725042
     -3.698699     21.250949     21.250949     42.501897
     -3.688689     20.607148     20.607148     41.214295
     -3.678679     20.644351     20.644351     41.288702
     -3.668669     21.993706     21.993706     43.987413
     -3.658659     24.958309     24.958309     49.916618
     -3.648649     29.362663     29.362663     58.725326
     -3.638639     34.563633     34.563633     69.127266
     -3.628629     39.629959     39.629959     79.259917
     -3.618619     43.623846     43.623846     87.247693
     -3.608609     45.870412     45.870412     91.740823
     -3.598599     46.110847     46.110847     92.221694
     -3.588589     44.499296     44.499296     88.998591
     -3.578579     41.479612     41.479612     82.959224
     -3.568569     37.618276     37.618276     75.236551
     -3.558559     33.457869     33.457869     66.915738
     -3.548549     29.417332     29.417332     58.834665
     -3.538539     25.738551     25.738551     51.477103
     -3.528529     22.477495     22.477495     44.954990
     -3.518519     19.544521     19.544521     39.089041
     -3.508509     16.789959     16.789959     33.579917
     -3.498498     14.107432     14.107432     28.214864
     -3.488488     11.510718     11.510718     23.021436
     -3.478478      9.149444      9.149444     18.298889
     -3.468468      7.260148      7.260148     14.520296
     -3.458458      6.079282      6.079282     12.158564
     -3.448448      5.754909      5.754909     11.509817
     -3.438438      6.285148      6.285148     12.570296
     -3.428428      7.498294      7.498294     14.996588
     -3.418418      9.081735      9.081735     18.163470
     -3.408408     10.660457     10.660457     21.320913
     -3.398398     11.911674     11.911674     23.823348
     -3.388388     12.680858     12.680858     25.361716
     -3.378378     13.051118     13.051118     26.102236
     -3.368368     13.329351     13.329351     26.658702
     -3.358358     13.948680     13.948680     27.897360
     -3.348348     15.326301     15.326301     30.652602
     -3.338338     17.731748     17.731748     35.463496
     -3.328328     21.203368     21.203368     42.406735
     -3.318318     25.518016     25.518016     51.036032
     -3.308308     30.200590     30.200590     60.401180
     -3.298298     34.569816     34.569816     69.139631
     -3.288288     37.837156     37.837156     75.674313
     -3.278278     39.272935     39.272935     78.545869
     -3.268268     38.413542     38.413542     76.827083
     -3.258258     35.232470     35.232470     70.464940
     -3.248248     30.184661     30.184661     60.369322
     -3.238238     24.083450     24.083450     48.166901
     -3.228228     17.855480     17.855480     35.710960
     -3.218218     12.282020     12.282020     24.564041
     -3.208208      7.832993      7.832993     15.665986
     -3.198198      4.640318      4.640318      9.280636
     -3.188188      2.585674      2.585674      5.171347
     -3.178178      1.437817      1.437817      2.875634
     -3.168168      0.978098      0.978098      1.956197
     -3.158158      1.081328      1.081328      2.162657
     -3.148148      1.746510      1.746510      3.493020
     -3.138138      3.084069      3.084069      6.168138
     -3.128128      5.266050      5.266050     10.532101
     -3.118118      8.445088      8.445088     16.890176
     -3.108108     12.656128     12.656128     25.312256
     -3.098098     17.730760     17.730760     35.461519
     -3.088088     23.265606     23.265606     46.531212
     -3.078078     28.677830     28.677830     57.355660
     -3.068068     33.345900     33.345900     66.691800
     -3.058058     36.785200     36.785200     73.570401
     -3.048048     38.776296     38.776296     77.552591
     -3.038038     39.378003     39.378003     78.756006
     -3.028028     38.820191     38.820191     77.640382
     -3.018018     37.346909     37.346909     74.693819
     -3.008008     35.115158     35.115158     70.230316
     -2.997998     32.217680     32.217680     64.435359
     -2.987988     28.811280     28.811280     57.622559
     -2.977978     25.256335     25.256335     50.512670
     -2.967968     22.161238     22.161238     44.322475
     -2.957958     20.281441     20.281441     40.562883
     -2.947948     20.303945     20.303945     40.607890
     -2.937938     22.604319     22.604319     45.208637
     -2.927928     27.072705     27.072705     54.145410
     -2.917918     33.076925     33.076925     66.153850
     -2.907908     39.584403     39.584403     79.168807
     -2.897898     45.413839     45.413839     90.827679
     -2.887888     49.542427     49.542427     99.084855
     -2.877878     51.369173     51.369173    102.738347
     -2.867868     50.844497     50.844497    101.688994
     -2.857858     48.423210     48.423210     96.846420
     -2.847848     44.864616     44.864616     89.729231
     -2.837838     40.960419     40.960419     81.920838
     -2.827828     37.293982     37.293982     74.587964
     -2.817818     34.115289     34.115289     68.230578
     -2.807808     31.364664     31.364664     62.729328
     -2.797798     28.816042     28.816042     57.632084
     -2.787788     26.262639     26.262639     52.525278
     -2.777778     23.654742     23.654742     47.309485
     -2.767768     21.128329     21.128329     42.256659
     -2.757758     18.922042     18.922042     37.844084
     -2.747748     17.239717     17.239717     34.479435
     -2.737738     16.143724     16.143724     32.287447
     -2.727728     15.543371     15.543371     31.086743
     -2.717718     15.282940     15.282940     30.565880
     -2.707708     15.270194     15.270194     30.540389
     -2.697698     15.558426     15.558426     31.116851
     -2.687688     16.322494     16.322494     32.644989
     -2.677678     17.736925     17.736925     35.473850
     -2.667668     19.829835     19.829835     39.659670
     -2.657658     22.407296     22.407296     44.814593
     -2.647648     25.102594     25.102594     50.205188
     -2.637638     27.527118     27.527118     55.054235
     -2.627628     29.434320     29.434320     58.868640
     -2.617618     30.800050     30.800050     61.600101
     -2.607608     31.778584     31.778584     63.557168
     -2.597598     32.574635     32.574635     65.149269
     -2.587588     33.318975     33.318975     66.637950
     -2.577578     34.016415     34.016415     68.032830
     -2.567568     34.570681     34.570681     69.141361
     -2.557558     34.837796     34.837796     69.675592
     -2.547548     34.660327     34.660327     69.320654
     -2.537538     33.879905     33.879905     67.759810
     -2.527528     32.364609     32.364609     64.729218
     -2.517518     30.079159     30.079159     60.158318
     -2.507508     27.176153     27.176153     54.352307
     -2.497497     24.043308     24.043308     48.086617
     -2.487487     21.248182     21.248182     42.496364
     -2.477477     19.378385     19.378385     38.756770
     -2.467467     18.841751     18.841751     37.683502
     -2.457457     19.721705     19.721705     39.443411
     -2.447447     21.759966     21.759966     43.519932
     -2.437437     24.477122     24.477122     48.954244
     -2.427427     27.374989     27.374989     54.749979
     -2.417417     30.125144     30.125144     60.250289
     -2.407407     32.653909     32.653909     65.307817
     -2.397397     35.083556     35.083556     70.167112
     -2.387387     37.560521     37.560521     75.121042
     -2.377377     40.059959     40.059959     80.119918
     -2.367367     42.272345     42.272345     84.544689
     -2.357357     43.641939     43.641939     87.283878
     -2.347347     43.554551     43.554551     87.109102
     -2.337337     41.597410     41.597410     83.194820
     -2.327327     37.774468     37.774468     75.548935
     -2.317317     32.577708     32.577708     65.155416
     -2.307307     26.881279     26.881279     53.762558
     -2.297297     21.705067     21.705067     43.410134
     -2.287287     17.945043     17.945043     35.890086
     -2.277277     16.166886     16.166886     32.333773
     -2.267267     16.517411     16.517411     33.034822
     -2.257257     18.755930     18.755930     37.511861
     -2.247247     22.370644     22.370644     44.741288
     -2.237237     26.730207     26.730207     53.460414
     -2.227227     31.221544     31.221544     62.443087
     -2.217217     35.336554     35.336554     70.673109
     -2.207207     38.693038     38.693038     77.386075
     -2.197197     41.006578     41.006578     82.013156
     -2.187187     42.056597     42.056597     84.113195
     -2.177177     41.691485     41.691485     83.382971
     -2.167167     39.886020     39.886020     79.772040
     -2.157157     36.815588     36.815588     73.631176
     -2.147147     32.881337     32.881337     65.762675
     -2.137137     28.636985     28.636985     57.273970
     -2.127127     24.627378     24.627378     49.254756
     -2.117117     21.211886     21.211886     42.423773
     -2.107107     18.465647     18.465647     36.931293
     -2.097097     16.210959     16.210959     32.421918
     -2.087087     14.156292     14.156292     28.312584
     -2.077077     12.062049     12.062049     24.124097
     -2.067067      9.847146      9.847146     19.694293
     -2.057057      7.595882      7.595882     15.191764
     -2.047047      5.484864      5.484864     10.969728
     -2.037037      3.685946      3.685946      7.371892
     -2.027027      2.297573      2.297573      4.595147
     -2.017017      1.326726      1.326726      2.653453
     -2.007007      0.712146      0.712146      1.424291
     -1.996997      0.364541      0.364541      0.729083
     -1.986987      0.202758      0.202758      0.405516
     -1.976977      0.176826      0.176826      0.353652
     -1.966967      0.278959      0.278959      0.557918
     -1.956957      0.546716      0.546716      1.093431
     -1.946947      1.059716      1.059716      2.119431
     -1.936937      1.926745      1.926745      3.853489
     -1.926927      3.258645      3.258645      6.517290
     -1.916917      5.127006      5.127006     10.254011
     -1.906907      7.518188      7.518188     15.036376
     -1.896897     10.301015     10.301015     20.602029
     -1.886887     13.227020     13.227020     26.454041
     -1.876877     15.971411     15.971411     31.942821
     -1.866867     18.205645     18.205645     36.411290
     -1.856857     19.679006     19.679006     39.358011
     -1.846847     20.283450     20.283450     40.566899
     -1.836837     20.081939     20.081939     40.163877
     -1.826827     19.289403     19.289403     38.578806
     -1.816817     18.205754     18.205754     36.411507
     -1.806807     17.115214     17.115214     34.230427
     -1.796797     16.185152     16.185152     32.370305
     -1.786787     15.408980     15.408980     30.817961
     -1.776777     14.626030     14.626030     29.252060
     -1.766767     13.614749     13.614749     27.229497
     -1.756757     12.214096     12.214096     24.428191
     -1.746747     10.411028     10.411028     20.822057
     -1.736737      8.353290      8.353290     16.706581
     -1.726727      6.291989      6.291989     12.583978
     -1.716717      4.496390      4.496390      8.992780
     -1.706707      3.190301      3.190301      6.380601
     -1.696697      2.535365      2.535365      5.070730
     -1.686687      2.650928      2.650928      5.301855
     -1.676677      3.635603      3.635603      7.271206
     -1.666667      5.555042      5.555042     11.110084
     -1.656657      8.383347      8.383347     16.766695
     -1.646647     11.921242     11.921242     23.842484
     -1.636637     15.743912     15.743912     31.487825
     -1.626627     19.234928     19.234928     38.469856
