# EIG2DOS: Utility for SIESTA to obtain the electronic density of states
#  E. Artacho, Apr 1999, A. Garcia, Apr 2012
#  Nick R. Papior, Feb 2017
# ------------------------------------------
# Eigenvalues calculated from a non-polarized calculation
# Eigenvalues read from siesta.EIG
# Kpoint weights read from siesta.KP
# Using smearing parameter:   0.0500
# Using 1000 points in the energy range
# Selected bands: 1 to: 2981
# Emin, Emax in file for selected band(s):    -27.0725886    218.3262140
# Nbands, Nspin, Nk   =   2981     1     1
# E_F                 =    -4.2807 eV --> (shifted to ZERO)
# Broadening          =     0.0500 eV
#
#        E            N(up)  (=)   N(down)         Ntot
     -5.000000     43.968754     43.968754     87.937508
     -4.989990     45.374559     45.374559     90.749118
     -4.979980     45.986760     45.986760     91.973519
     -4.969970     45.766408     45.766408     91.532816
     -4.959960     44.674925     44.674925     89.349850
     -4.949950     42.730942     42.730942     85.461885
     -4.939940     40.068400     40.068400     80.136800
     -4.929930     36.972647     36.972647     73.945295
     -4.919920     33.886724     33.886724     67.773448
     -4.909910     31.386338     31.386338     62.772675
     -4.899900     30.114636     30.114636     60.229272
     -4.889890     30.659648     30.659648     61.319297
     -4.879880     33.370645     33.370645     66.741291
     -4.869870     38.154106     38.154106     76.308212
     -4.859860     44.342809     44.342809     88.685618
     -4.849850     50.745271     50.745271    101.490541
     -4.839840     55.922368     55.922368    111.844736
     -4.829830     58.620041     58.620041    117.240082
     -4.819820     58.181882     58.181882    116.363764
     -4.809810     54.750933     54.750933    109.501867
     -4.799800     49.168703     49.168703     98.337405
     -4.789790     42.633738     42.633738     85.267477
     -4.779780     36.293727     36.293727     72.587453
     -4.769770     30.948363     30.948363     61.896725
     -4.759760     26.948838     26.948838     53.897675
     -4.749750     24.267112     24.267112     48.534224
     -4.739740     22.644649     22.644649     45.289298
     -4.729730     21.734762     21.734762     43.469524
     -4.719720     21.195585     21.195585     42.391171
     -4.709710     20.732475     20.732475     41.464949
     -4.699700     20.110901     20.110901     40.221801
     -4.689690     19.165522     19.165522     38.331044
     -4.679680     17.824194     17.824194     35.648388
     -4.669670     16.149814     16.149814     32.299627
     -4.659660     14.383022     14.383022     28.766044
     -4.649650     12.955482     12.955482     25.910965
     -4.639640     12.445587     12.445587     24.891175
     -4.629630     13.465235     13.465235     26.930470
     -4.619620     16.489901     16.489901     32.979802
     -4.609610     21.668780     21.668780     43.337560
     -4.599600     28.674542     28.674542     57.349083
     -4.589590     36.664919     36.664919     73.329837
     -4.579580     44.413339     44.413339     88.826678
     -4.569570     50.610219     50.610219    101.220437
     -4.559560     54.254047     54.254047    108.508094
     -4.549550     54.985895     54.985895    109.971790
     -4.539540     53.220429     53.220429    106.440858
     -4.529530     50.004638     50.004638    100.009276
     -4.519520     46.655686     46.655686     93.311373
     -4.509510     44.326325     44.326325     88.652650
     -4.499499     43.668728     43.668728     87.337456
     -4.489489     44.708733     44.708733     89.417467
     -4.479479     46.940150     46.940150     93.880299
     -4.469469     49.559179     49.559179     99.118357
     -4.459459     51.723774     51.723774    103.447549
     -4.449449     52.748734     52.748734    105.497469
     -4.439439     52.207303     52.207303    104.414605
     -4.429429     49.962649     49.962649     99.925298
     -4.419419     46.168207     46.168207     92.336414
     -4.409409     41.253902     41.253902     82.507803
     -4.399399     35.881827     35.881827     71.763654
     -4.389389     30.842703     30.842703     61.685406
     -4.379379     26.888246     26.888246     53.776492
     -4.369369     24.539898     24.539898     49.079796
     -4.359359     23.947513     23.947513     47.895026
     -4.349349     24.864829     24.864829     49.729659
     -4.339339     26.760606     26.760606     53.521211
     -4.329329     29.021609     29.021609     58.043219
     -4.319319     31.162428     31.162428     62.324857
     -4.309309     32.959551     32.959551     65.919102
     -4.299299     34.467998     34.467998     68.935996
     -4.289289     35.930958     35.930958     71.861916
     -4.279279     37.628148     37.628148     75.256297
     -4.269269     39.717350     39.717350     79.434701
     -4.259259     42.116611     42.116611     84.233221
     -4.249249     44.466218     44.466218     88.932436
     -4.239239     46.198541     46.198541     92.397083
     -4.229229     46.715419     46.715419     93.430837
     -4.219219     45.622190     45.622190     91.244380
     -4.209209     42.919237     42.919237     85.838473
     -4.199199     39.048309     39.048309     78.096618
     -4.189189     34.753041     34.753041     69.506083
     -4.179179     30.812015     30.812015     61.624030
     -4.169169     27.774699     27.774699     55.549398
     -4.159159     25.826349     25.826349     51.652698
     -4.149149     24.831946     24.831946     49.663892
     -4.139139     24.513054     24.513054     49.026107
     -4.129129     24.650947     24.650947     49.301893
     -4.119119     25.208676     25.208676     50.417353
     -4.109109     26.312803     26.312803     52.625606
     -4.099099     28.106123     28.106123     56.212247
     -4.089089     30.549374     30.549374     61.098748
     -4.079079     33.286319     33.286319     66.572638
     -4.069069     35.668922     35.668922     71.337844
     -4.059059     36.962416     36.962416     73.924833
     -4.049049     36.646619     36.646619     73.293239
     -4.039039     34.662049     34.662049     69.324098
     -4.029029     31.468182     31.468182     62.936364
     -4.019019     27.882627     27.882627     55.765255
     -4.009009     24.790569     24.790569     49.581138
     -3.998999     22.875129     22.875129     45.750258
     -3.988989     22.485629     22.485629     44.971257
     -3.978979     23.663680     23.663680     47.327361
     -3.968969     26.257736     26.257736     52.515472
     -3.958959     30.031637     30.031637     60.063273
     -3.948949     34.715346     34.715346     69.430692
     -3.938939     40.011351     40.011351     80.022702
     -3.928929     45.603991     45.603991     91.207983
     -3.918919     51.199906     51.199906    102.399812
     -3.908909     56.580076     56.580076    113.160153
     -3.898899     61.613248     61.613248    123.226495
     -3.888889     66.195979     66.195979    132.391958
     -3.878879     70.137221     70.137221    140.274443
     -3.868869     73.057368     73.057368    146.114736
     -3.858859     74.384436     74.384436    148.768872
     -3.848849     73.489274     73.489274    146.978548
     -3.838839     69.926424     69.926424    139.852849
     -3.828829     63.679310     63.679310    127.358621
     -3.818819     55.289189     55.289189    110.578378
     -3.808809     45.792279     45.792279     91.584557
     -3.798799     36.476140     36.476140     72.952279
     -3.788789     28.546833     28.546833     57.093666
     -3.778779     22.830271     22.830271     45.660542
     -3.768769     19.604496     19.604496     39.208992
     -3.758759     18.598526     18.598526     37.197051
     -3.748749     19.134141     19.134141     38.268282
     -3.738739     20.352840     20.352840     40.705679
     -3.728729     21.462603     21.462603     42.925207
     -3.718719     21.946894     21.946894     43.893788
     -3.708709     21.691075     21.691075     43.382149
     -3.698699     20.996686     20.996686     41.993372
     -3.688689     20.474608     20.474608     40.949216
     -3.678679     20.836712     20.836712     41.673423
     -3.668669     22.639105     22.639105     45.278209
     -3.658659     26.057221     26.057221     52.114442
     -3.648649     30.776926     30.776926     61.553853
     -3.638639     36.053341     36.053341     72.106681
     -3.628629     40.924486     40.924486     81.848972
     -3.618619     44.498094     44.498094     88.996189
     -3.608609     46.196669     46.196669     92.393338
     -3.598599     45.871568     45.871568     91.743137
     -3.588589     43.766662     43.766662     87.533325
     -3.578579     40.380279     40.380279     80.760558
     -3.568569     36.299917     36.299917     72.599834
     -3.558559     32.063642     32.063642     64.127283
     -3.548549     28.066417     28.066417     56.132834
     -3.538539     24.511369     24.511369     49.022738
     -3.528529     21.409125     21.409125     42.818249
     -3.518519     18.631221     18.631221     37.262442
     -3.508509     16.008270     16.008270     32.016540
     -3.498498     13.437639     13.437639     26.875278
     -3.488488     10.953448     10.953448     21.906896
     -3.478478      8.728330      8.728330     17.456661
     -3.468468      7.011078      7.011078     14.022156
     -3.458458      6.032227      6.032227     12.064453
     -3.448448      5.915547      5.915547     11.831093
     -3.438438      6.622276      6.622276     13.244551
     -3.428428      7.941815      7.941815     15.883630
     -3.418418      9.534665      9.534665     19.069329
     -3.408408     11.024775     11.024775     22.049549
     -3.398398     12.121585     12.121585     24.243169
     -3.388388     12.731285     12.731285     25.462570
     -3.378378     13.008973     13.008973     26.017945
     -3.368368     13.321826     13.321826     26.643652
     -3.358358     14.132558     14.132558     28.265115
     -3.348348     15.848281     15.848281     31.696563
     -3.338338     18.688861     18.688861     37.377721
     -3.328328     22.608124     22.608124     45.216247
     -3.318318     27.272102     27.272102     54.544203
     -3.308308     32.086261     32.086261     64.172521
     -3.298298     36.273523     36.273523     72.547045
     -3.288288     39.014677     39.014677     78.029353
     -3.278278     39.645523     39.645523     79.291046
     -3.268268     37.860786     37.860786     75.721572
     -3.258258     33.838629     33.838629     67.677258
     -3.248248     28.212749     28.212749     56.425498
     -3.238238     21.887122     21.887122     43.774245
     -3.228228     15.769750     15.769750     31.539500
     -3.218218     10.540228     10.540228     21.080456
     -3.208208      6.537913      6.537913     13.075826
     -3.198198      3.788011      3.788011      7.576023
     -3.188188      2.120632      2.120632      4.241264
     -3.178178      1.315234      1.315234      2.630468
     -3.168168      1.218129      1.218129      2.436257
     -3.158158      1.809365      1.809365      3.618729
     -3.148148      3.214780      3.214780      6.429560
     -3.138138      5.663724      5.663724     11.327448
     -3.128128      9.393522      9.393522     18.787044
     -3.118118     14.512370     14.512370     29.024740
     -3.108108     20.856913     20.856913     41.713826
     -3.098098     27.906260     27.906260     55.812521
     -3.088088     34.816593     34.816593     69.633186
     -3.078078     40.602535     40.602535     81.205070
     -3.068068     44.420958     44.420958     88.841917
     -3.058058     45.846256     45.846256     91.692512
     -3.048048     45.008563     45.008563     90.017126
     -3.038038     42.519937     42.519937     85.039875
     -3.028028     39.215965     39.215965     78.431931
     -3.018018     35.834816     35.834816     71.669632
     -3.008008     32.786268     32.786268     65.572535
     -2.997998     30.111358     30.111358     60.222717
     -2.987988     27.630576     27.630576     55.261152
     -2.977978     25.184489     25.184489     50.368977
     -2.967968     22.834731     22.834731     45.669463
     -2.957958     20.926418     20.926418     41.852836
     -2.947948     19.988216     19.988216     39.976433
     -2.937938     20.521128     20.521128     41.042255
     -2.927928     22.769578     22.769578     45.539156
     -2.917918     26.569345     26.569345     53.138691
     -2.907908     31.334249     31.334249     62.668498
     -2.897898     36.192339     36.192339     72.384678
     -2.887888     40.228098     40.228098     80.456195
     -2.877878     42.746017     42.746017     85.492035
     -2.867868     43.458747     43.458747     86.917495
     -2.857858     42.528983     42.528983     85.057966
     -2.847848     40.452327     40.452327     80.904654
     -2.837838     37.835134     37.835134     75.670267
     -2.827828     35.165603     35.165603     70.331206
     -2.817818     32.675425     32.675425     65.350850
     -2.807808     30.342178     30.342178     60.684357
     -2.797798     28.012454     28.012454     56.024907
     -2.787788     25.567966     25.567966     51.135933
     -2.777778     23.041492     23.041492     46.082985
     -2.767768     20.624032     20.624032     41.248065
     -2.757758     18.569822     18.569822     37.139645
     -2.747748     17.064942     17.064942     34.129884
     -2.737738     16.144123     16.144123     32.288246
     -2.727728     15.707268     15.707268     31.414537
     -2.717718     15.621520     15.621520     31.243040
     -2.707708     15.837321     15.837321     31.674642
     -2.697698     16.435503     16.435503     32.871005
     -2.687688     17.566842     17.566842     35.133684
     -2.677678     19.318770     19.318770     38.637541
     -2.667668     21.597801     21.597801     43.195601
     -2.657658     24.112578     24.112578     48.225156
     -2.647648     26.480053     26.480053     52.960105
     -2.637638     28.395765     28.395765     56.791531
     -2.627628     29.764419     29.764419     59.528838
     -2.617618     30.711750     30.711750     61.423501
     -2.607608     31.477114     31.477114     62.954228
     -2.597598     32.261746     32.261746     64.523493
     -2.587588     33.125942     33.125942     66.251884
     -2.577578     33.980140     33.980140     67.960280
     -2.567568     34.643987     34.643987     69.287974
     -2.557558     34.912573     34.912573     69.825146
     -2.547548     34.592793     34.592793     69.185587
     -2.537538     33.523565     33.523565     67.047129
     -2.527528     31.617925     31.617925     63.235849
     -2.517518     28.938579     28.938579     57.877158
     -2.507508     25.767692     25.767692     51.535383
     -2.497497     22.606842     22.606842     45.213684
     -2.487487     20.071063     20.071063     40.142125
     -2.477477     18.703601     18.703601     37.407201
     -2.467467     18.790838     18.790838     37.581676
     -2.457457     20.265179     20.265179     40.530357
     -2.447447     22.744389     22.744389     45.488778
     -2.437437     25.692093     25.692093     51.384186
     -2.427427     28.627729     28.627729     57.255458
     -2.417417     31.290714     31.290714     62.581428
     -2.407407     33.683519     33.683519     67.367038
     -2.397397     35.974112     35.974112     71.948224
     -2.387387     38.305605     38.305605     76.611209
     -2.377377     40.608822     40.608822     81.217645
     -2.367367     42.518136     42.518136     85.036271
     -2.357357     43.447011     43.447011     86.894023
     -2.347347     42.804450     42.804450     85.608900
     -2.337337     40.261220     40.261220     80.522439
     -2.327327     35.943488     35.943488     71.886976
     -2.317317     30.461645     30.461645     60.923290
     -2.307307     24.760183     24.760183     49.520365
     -2.297297     19.856688     19.856688     39.713377
     -2.287287     16.578396     16.578396     33.156793
     -2.277277     15.387070     15.387070     30.774139
     -2.267267     16.328867     16.328867     32.657735
     -2.257257     19.092819     19.092819     38.185638
     -2.247247     23.133544     23.133544     46.267088
     -2.237237     27.810654     27.810654     55.621307
     -2.227227     32.506520     32.506520     65.013040
     -2.217217     36.698076     36.698076     73.396152
     -2.207207     39.977544     39.977544     79.955088
     -2.197197     42.040287     42.040287     84.080575
     -2.187187     42.674768     42.674768     85.349536
     -2.177177     41.784694     41.784694     83.569389
     -2.167167     39.442877     39.442877     78.885754
     -2.157157     35.937466     35.937466     71.874932
     -2.147147     31.755140     31.755140     63.510281
     -2.137137     27.472762     27.472762     54.945524
     -2.127127     23.587319     23.587319     47.174638
     -2.117117     20.363542     20.363542     40.727083
     -2.107107     17.780026     17.780026     35.560052
     -2.097097     15.602230     15.602230     31.204460
     -2.087087     13.538681     13.538681     27.077363
     -2.077077     11.393814     11.393814     22.787627
     -2.067067      9.143133      9.143133     18.286266
     -2.057057      6.909969      6.909969     13.819937
     -2.047047      4.878521      4.878521      9.757041
     -2.037037      3.201656      3.201656      6.403311
     -2.027027      1.947778      1.947778      3.895556
     -2.017017      1.097989      1.097989      2.195979
     -2.007007      0.577368      0.577368      1.154736
     -1.996997      0.295533      0.295533      0.591066
     -1.986987      0.178896      0.178896      0.357792
     -1.976977      0.189330      0.189330      0.378660
     -1.966967      0.332154      0.332154      0.664309
     -1.956957      0.657327      0.657327      1.314654
     -1.946947      1.253823      1.253823      2.507646
     -1.936937      2.233114      2.233114      4.466229
     -1.926927      3.697886      3.697886      7.395772
     -1.916917      5.698522      5.698522     11.397045
     -1.906907      8.189950      8.189950     16.379901
     -1.896897     11.008280     11.008280     22.016559
     -1.886887     13.883620     13.883620     27.767239
     -1.876877     16.491568     16.491568     32.983135
     -1.866867     18.528773     18.528773     37.057545
     -1.856857     19.788012     19.788012     39.576023
     -1.846847     20.209718     20.209718     40.419436
     -1.836837     19.895201     19.895201     39.790403
     -1.826827     19.075453     19.075453     38.150905
     -1.816817     18.038466     18.038466     36.076933
     -1.806807     17.032245     17.032245     34.064490
     -1.796797     16.178367     16.178367     32.356735
     -1.786787     15.438653     15.438653     30.877307
     -1.776777     14.660190     14.660190     29.320380
     -1.766767     13.683883     13.683883     27.367766
     -1.756757     12.462285     12.462285     24.924569
     -1.746747     11.122081     11.122081     22.244162
     -1.736737      9.934798      9.934798     19.869596
     -1.726727      9.208689      9.208689     18.417377
     -1.716717      9.155508      9.155508     18.311015
     -1.706707      9.796806      9.796806     19.593611
     -1.696697     10.953189     10.953189     21.906378
     -1.686687     12.319377     12.319377     24.638754
     -1.676677     13.586390     13.586390     27.172780
     -1.666667     14.548913     14.548913     29.097826
     -1.656657     15.144407     15.144407     30.288815
     -1.646647     15.410365     15.410365     30.820730
     -1.636637     15.396322     15.396322     30.792644
     -1.626627     15.095543     15.095543     30.191087
