# EIG2DOS: Utility for SIESTA to obtain the electronic density of states
#  E. Artacho, Apr 1999, A. Garcia, Apr 2012
#  Nick R. Papior, Feb 2017
# ------------------------------------------
# Eigenvalues calculated from a non-polarized calculation
# Eigenvalues read from siesta.EIG
# Kpoint weights read from siesta.KP
# Using smearing parameter:   0.0500
# Using 1000 points in the energy range
# Selected bands: 1 to: 2981
# Emin, Emax in file for selected band(s):    -27.4344521    218.4148410
# Nbands, Nspin, Nk   =   2981     1     1
# E_F                 =    -4.1910 eV --> (shifted to ZERO)
# Broadening          =     0.0500 eV
#
#        E            N(up)  (=)   N(down)         Ntot
     -5.000000     34.661874     34.661874     69.323749
     -4.989990     39.542910     39.542910     79.085819
     -4.979980     43.653768     43.653768     87.307535
     -4.969970     46.253937     46.253937     92.507874
     -4.959960     46.873018     46.873018     93.746036
     -4.949950     45.476118     45.476118     90.952236
     -4.939940     42.489955     42.489955     84.979910
     -4.929930     38.702385     38.702385     77.404771
     -4.919920     35.095200     35.095200     70.190400
     -4.909910     32.666268     32.666268     65.332535
     -4.899900     32.258905     32.258905     64.517810
     -4.889890     34.388519     34.388519     68.777038
     -4.879880     39.072336     39.072336     78.144671
     -4.869870     45.716851     45.716851     91.433703
     -4.859860     53.150221     53.150221    106.300442
     -4.849850     59.856468     59.856468    119.712936
     -4.839840     64.375477     64.375477    128.750955
     -4.829830     65.731721     65.731721    131.463443
     -4.819820     63.715952     63.715952    127.431903
     -4.809810     58.900628     58.900628    117.801257
     -4.799800     52.391899     52.391899    104.783799
     -4.789790     45.437691     45.437691     90.875382
     -4.779780     39.059897     39.059897     78.119793
     -4.769770     33.841747     33.841747     67.683494
     -4.759760     29.911630     29.911630     59.823261
     -4.749750     27.075905     27.075905     54.151811
     -4.739740     25.006594     25.006594     50.013188
     -4.729730     23.395109     23.395109     46.790218
     -4.719720     22.024182     22.024182     44.048363
     -4.709710     20.761178     20.761178     41.522356
     -4.699700     19.514649     19.514649     39.029298
     -4.689690     18.207617     18.207617     36.415234
     -4.679680     16.801830     16.801830     33.603661
     -4.669670     15.367251     15.367251     30.734503
     -4.659660     14.153082     14.153082     28.306163
     -4.649650     13.603377     13.603377     27.206753
     -4.639640     14.279444     14.279444     28.558889
     -4.629630     16.692018     16.692018     33.384036
     -4.619620     21.089735     21.089735     42.179469
     -4.609610     27.280894     27.280894     54.561788
     -4.599600     34.571679     34.571679     69.143358
     -4.589590     41.876924     41.876924     83.753847
     -4.579580     47.997939     47.997939     95.995878
     -4.569570     51.984341     51.984341    103.968682
     -4.559560     53.442271     53.442271    106.884542
     -4.549550     52.657413     52.657413    105.314825
     -4.539540     50.474192     50.474192    100.948383
     -4.529530     47.977679     47.977679     95.955357
     -4.519520     46.107604     46.107604     92.215208
     -4.509510     45.355176     45.355176     90.710352
     -4.499499     45.649117     45.649117     91.298234
     -4.489489     46.454072     46.454072     92.908143
     -4.479479     47.020917     47.020917     94.041833
     -4.469469     46.677523     46.677523     93.355047
     -4.459459     45.047324     45.047324     90.094649
     -4.449449     42.127948     42.127948     84.255896
     -4.439439     38.230477     38.230477     76.460954
     -4.429429     33.838430     33.838430     67.676861
     -4.419419     29.466306     29.466306     58.932612
     -4.409409     25.572835     25.572835     51.145669
     -4.399399     22.533266     22.533266     45.066531
     -4.389389     20.633751     20.633751     41.267501
     -4.379379     20.047447     20.047447     40.094895
     -4.369369     20.785779     20.785779     41.571557
     -4.359359     22.659464     22.659464     45.318928
     -4.349349     25.296938     25.296938     50.593877
     -4.339339     28.239786     28.239786     56.479571
     -4.329329     31.085629     31.085629     62.171258
     -4.319319     33.614007     33.614007     67.228013
     -4.309309     35.833647     35.833647     71.667294
     -4.299299     37.926352     37.926352     75.852704
     -4.289289     40.109626     40.109626     80.219251
     -4.279279     42.474016     42.474016     84.948032
     -4.269269     44.862207     44.862207     89.724414
     -4.259259     46.846522     46.846522     93.693044
     -4.249249     47.831881     47.831881     95.663763
     -4.239239     47.264284     47.264284     94.528568
     -4.229229     44.872034     44.872034     89.744068
     -4.219219     40.834499     40.834499     81.668997
     -4.209209     35.789088     35.789088     71.578175
     -4.199199     30.655349     30.655349     61.310697
     -4.189189     26.343572     26.343572     52.687143
     -4.179179     23.473449     23.473449     46.946898
     -4.169169     22.222072     22.222072     44.444143
     -4.159159     22.355366     22.355366     44.710732
     -4.149149     23.410872     23.410872     46.821745
     -4.139139     24.935687     24.935687     49.871375
     -4.129129     26.666459     26.666459     53.332917
     -4.119119     28.570500     28.570500     57.141000
     -4.109109     30.734058     30.734058     61.468116
     -4.099099     33.160964     33.160964     66.321929
     -4.089089     35.599253     35.599253     71.198506
     -4.079079     37.511680     37.511680     75.023360
     -4.069069     38.236356     38.236356     76.472713
     -4.059059     37.274905     37.274905     74.549809
     -4.049049     34.561681     34.561681     69.123362
     -4.039039     30.566745     30.566745     61.133491
     -4.029029     26.173591     26.173591     52.347181
     -4.019019     22.394447     22.394447     44.788895
     -4.009009     20.063938     20.063938     40.127877
     -3.998999     19.643078     19.643078     39.286156
     -3.988989     21.187987     21.187987     42.375975
     -3.978979     24.448723     24.448723     48.897446
     -3.968969     29.016231     29.016231     58.032461
     -3.958959     34.445668     34.445668     68.891335
     -3.948949     40.329104     40.329104     80.658208
     -3.938939     46.330107     46.330107     92.660214
     -3.928929     52.200516     52.200516    104.401033
     -3.918919     57.780396     57.780396    115.560792
     -3.908909     62.964200     62.964200    125.928400
     -3.898899     67.625036     67.625036    135.250071
     -3.888889     71.522552     71.522552    143.045105
     -3.878879     74.249951     74.249951    148.499901
     -3.868869     75.272294     75.272294    150.544587
     -3.858859     74.066994     74.066994    148.133988
     -3.848849     70.321915     70.321915    140.643830
     -3.838839     64.110415     64.110415    128.220829
     -3.828829     55.965603     55.965603    111.931205
     -3.818819     46.814695     46.814695     93.629389
     -3.808809     37.788134     37.788134     75.576269
     -3.798799     29.963133     29.963133     59.926265
     -3.788789     24.120980     24.120980     48.241961
     -3.778779     20.588191     20.588191     41.176383
     -3.768769     19.201014     19.201014     38.402029
     -3.758759     19.394857     19.394857     38.789714
     -3.748749     20.387456     20.387456     40.774911
     -3.738739     21.404578     21.404578     42.809155
     -3.728729     21.891078     21.891078     43.782155
     -3.718719     21.656006     21.656006     43.312013
     -3.708709     20.915203     20.915203     41.830407
     -3.698699     20.216433     20.216433     40.432867
     -3.688689     20.259654     20.259654     40.519308
     -3.678679     21.655796     21.655796     43.311592
     -3.668669     24.694142     24.694142     49.388284
     -3.658659     29.198241     29.198241     58.396481
     -3.648649     34.530646     34.530646     69.061293
     -3.638639     39.755953     39.755953     79.511906
     -3.628629     43.907223     43.907223     87.814445
     -3.618619     46.255669     46.255669     92.511338
     -3.608609     46.485330     46.485330     92.970659
     -3.598599     44.724226     44.724226     89.448453
     -3.588589     41.450161     41.450161     82.900321
     -3.578579     37.332158     37.332158     74.664316
     -3.568569     33.068554     33.068554     66.137107
     -3.558559     29.254717     29.254717     58.509435
     -3.548549     26.288295     26.288295     52.576590
     -3.538539     24.314668     24.314668     48.629337
     -3.528529     23.221982     23.221982     46.443963
     -3.518519     22.694499     22.694499     45.388998
     -3.508509     22.317739     22.317739     44.635479
     -3.498498     21.708370     21.708370     43.416741
     -3.488488     20.630545     20.630545     41.261090
     -3.478478     19.063531     19.063531     38.127062
     -3.468468     17.199078     17.199078     34.398156
     -3.458458     15.366346     15.366346     30.732692
     -3.448448     13.905548     13.905548     27.811096
     -3.438438     13.034623     13.034623     26.069245
     -3.428428     12.764879     12.764879     25.529759
     -3.418418     12.908899     12.908899     25.817797
     -3.408408     13.185381     13.185381     26.370763
     -3.398398     13.377672     13.377672     26.755344
     -3.388388     13.472590     13.472590     26.945180
     -3.378378     13.713430     13.713430     27.426860
     -3.368368     14.542103     14.542103     29.084206
     -3.358358     16.455157     16.455157     32.910313
     -3.348348     19.827812     19.827812     39.655623
     -3.338338     24.758441     24.758441     49.516882
     -3.328328     30.967048     30.967048     61.934097
     -3.318318     37.768498     37.768498     75.536996
     -3.308308     44.142077     44.142077     88.284154
     -3.298298     48.915361     48.915361     97.830723
     -3.288288     51.047776     51.047776    102.095553
     -3.278278     49.939400     49.939400     99.878800
     -3.268268     45.643329     45.643329     91.286659
     -3.258258     38.874255     38.874255     77.748511
     -3.248248     30.792013     30.792013     61.584026
     -3.238238     22.649136     22.649136     45.298272
     -3.228228     15.454071     15.454071     30.908143
     -3.218218      9.778185      9.778185     19.556369
     -3.208208      5.748295      5.748295     11.496590
     -3.198198      3.177983      3.177983      6.355965
     -3.188188      1.749387      1.749387      3.498773
     -3.178178      1.169637      1.169637      2.339274
     -3.168168      1.265389      1.265389      2.530779
     -3.158158      2.012837      2.012837      4.025674
     -3.148148      3.514231      3.514231      7.028462
     -3.138138      5.931078      5.931078     11.862157
     -3.128128      9.383809      9.383809     18.767619
     -3.118118     13.838036     13.838036     27.676071
     -3.108108     19.015261     19.015261     38.030521
     -3.098098     24.375611     24.375611     48.751221
     -3.088088     29.204838     29.204838     58.409676
     -3.078078     32.794251     32.794251     65.588501
     -3.068068     34.649441     34.649441     69.298882
     -3.058058     34.635599     34.635599     69.271198
     -3.048048     32.989276     32.989276     65.978551
     -3.038038     30.193362     30.193362     60.386724
     -3.028028     26.784990     26.784990     53.569980
     -3.018018     23.197906     23.197906     46.395813
     -3.008008     19.710820     19.710820     39.421640
     -2.997998     16.503442     16.503442     33.006885
     -2.987988     13.760324     13.760324     27.520649
     -2.977978     11.746031     11.746031     23.492062
     -2.967968     10.804588     10.804588     21.609177
     -2.957958     11.283004     11.283004     22.566008
     -2.947948     13.412768     13.412768     26.825536
     -2.937938     17.194241     17.194241     34.388481
     -2.927928     22.324527     22.324527     44.649053
     -2.917918     28.199588     28.199588     56.399176
     -2.907908     34.006281     34.006281     68.012562
     -2.897898     38.894874     38.894874     77.789747
     -2.887888     42.189215     42.189215     84.378429
     -2.877878     43.564351     43.564351     87.128702
     -2.867868     43.119531     43.119531     86.239063
     -2.857858     41.308591     41.308591     82.617183
     -2.847848     38.749905     38.749905     77.499810
     -2.837838     35.995687     35.995687     71.991374
     -2.827828     33.362588     33.362588     66.725176
     -2.817818     30.895606     30.895606     61.791212
     -2.807808     28.468410     28.468410     56.936819
     -2.797798     25.952654     25.952654     51.905308
     -2.787788     23.357092     23.357092     46.714184
     -2.777778     20.862192     20.862192     41.724384
     -2.767768     18.741848     18.741848     37.483697
     -2.757758     17.230771     17.230771     34.461542
     -2.747748     16.424111     16.424111     32.848223
     -2.737738     16.268583     16.268583     32.537165
     -2.727728     16.639781     16.639781     33.279563
     -2.717718     17.441136     17.441136     34.882272
     -2.707708     18.646739     18.646739     37.293478
     -2.697698     20.254418     20.254418     40.508836
     -2.687688     22.187280     22.187280     44.374560
     -2.677678     24.228907     24.228907     48.457813
     -2.667668     26.061061     26.061061     52.122121
     -2.657658     27.400196     27.400196     54.800392
     -2.647648     28.151639     28.151639     56.303278
     -2.637638     28.477081     28.477081     56.954163
     -2.627628     28.722552     28.722552     57.445105
     -2.617618     29.244483     29.244483     58.488965
     -2.607608     30.234895     30.234895     60.469790
     -2.597598     31.639022     31.639022     63.278044
     -2.587588     33.191028     33.191028     66.382057
     -2.577578     34.521404     34.521404     69.042808
     -2.567568     35.265332     35.265332     70.530664
     -2.557558     35.132708     35.132708     70.265417
     -2.547548     33.949386     33.949386     67.898771
     -2.537538     31.699047     31.699047     63.398094
     -2.527528     28.572358     28.572358     57.144716
     -2.517518     24.992108     24.992108     49.984216
     -2.507508     21.569825     21.569825     43.139651
     -2.497497     18.976663     18.976663     37.953325
     -2.487487     17.760452     17.760452     35.520905
     -2.477477     18.177653     18.177653     36.355305
     -2.467467     20.111210     20.111210     40.222420
     -2.457457     23.113439     23.113439     46.226878
     -2.447447     26.563082     26.563082     53.126164
     -2.437437     29.878334     29.878334     59.756667
     -2.427427     32.701205     32.701205     65.402411
     -2.417417     34.975401     34.975401     69.950802
     -2.407407     36.881218     36.881218     73.762436
     -2.397397     38.653488     38.653488     77.306977
     -2.387387     40.366756     40.366756     80.733512
     -2.377377     41.797259     41.797259     83.594517
     -2.367367     42.444892     42.444892     84.889784
     -2.357357     41.724030     41.724030     83.448061
     -2.347347     39.242502     39.242502     78.485003
     -2.337337     35.033758     35.033758     70.067515
     -2.327327     29.625663     29.625663     59.251327
     -2.317317     23.913669     23.913669     47.827338
     -2.307307     18.904480     18.904480     37.808959
     -2.297297     15.448245     15.448245     30.896490
     -2.287287     14.058669     14.058669     28.117338
     -2.277277     14.857125     14.857125     29.714250
     -2.267267     17.617062     17.617062     35.234125
     -2.257257     21.860040     21.860040     43.720080
     -2.247247     26.962737     26.962737     53.925475
     -2.237237     32.253967     32.253967     64.507934
     -2.227227     37.094787     37.094787     74.189574
     -2.217217     40.940747     40.940747     81.881493
     -2.207207     43.389077     43.389077     86.778153
     -2.197197     44.217821     44.217821     88.435643
     -2.187187     43.422839     43.422839     86.845678
     -2.177177     41.245775     41.245775     82.491549
     -2.167167     38.165985     38.165985     76.331969
     -2.157157     34.821045     34.821045     69.642091
     -2.147147     31.843615     31.843615     63.687229
     -2.137137     29.654963     29.654963     59.309927
     -2.127127     28.304812     28.304812     56.609623
     -2.117117     27.450017     27.450017     54.900035
     -2.107107     26.504378     26.504378     53.008756
     -2.097097     24.898961     24.898961     49.797921
     -2.087087     22.327466     22.327466     44.654932
     -2.077077     18.859546     18.859546     37.719092
     -2.067067     14.881343     14.881343     29.762685
     -2.057057     10.915151     10.915151     21.830302
     -2.047047      7.421051      7.421051     14.842103
     -2.037037      4.669543      4.669543      9.339087
     -2.027027      2.717714      2.717714      5.435429
     -2.017017      1.465078      1.465078      2.930157
     -2.007007      0.739531      0.739531      1.479061
     -1.996997      0.371513      0.371513      0.743026
     -1.986987      0.238264      0.238264      0.476527
     -1.976977      0.280685      0.280685      0.561371
     -1.966967      0.503534      0.503534      1.007067
     -1.956957      0.966721      0.966721      1.933443
     -1.946947      1.768438      1.768438      3.536876
     -1.936937      3.016513      3.016513      6.033025
     -1.926927      4.787084      4.787084      9.574168
     -1.916917      7.078413      7.078413     14.156827
     -1.906907      9.776831      9.776831     19.553662
     -1.896897     12.653498     12.653498     25.306997
     -1.886887     15.400783     15.400783     30.801566
     -1.876877     17.700033     17.700033     35.400065
     -1.866867     19.298834     19.298834     38.597668
     -1.856857     20.073202     20.073202     40.146403
     -1.846847     20.057001     20.057001     40.114002
     -1.836837     19.429818     19.429818     38.859635
     -1.826827     18.462034     18.462034     36.924069
     -1.816817     17.426357     17.426357     34.852714
     -1.806807     16.501608     16.501608     33.003215
     -1.796797     15.708978     15.708978     31.417957
     -1.786787     14.916552     14.916552     29.833105
     -1.776777     13.917440     13.917440     27.834881
     -1.766767     12.545325     12.545325     25.090650
     -1.756757     10.767701     10.767701     21.535402
     -1.746747      8.710540      8.710540     17.421081
     -1.736737      6.609852      6.609852     13.219704
     -1.726727      4.726171      4.726171      9.452342
     -1.716717      3.271016      3.271016      6.542032
     -1.706707      2.375763      2.375763      4.751525
     -1.696697      2.100593      2.100593      4.201186
     -1.686687      2.457219      2.457219      4.914438
     -1.676677      3.416768      3.416768      6.833537
     -1.666667      4.891787      4.891787      9.783574
     -1.656657      6.706288      6.706288     13.412576
     -1.646647      8.584788      8.584788     17.169576
     -1.636637     10.188629     10.188629     20.377257
     -1.626627     11.204351     11.204351     22.408702
