# EIG2DOS: Utility for SIESTA to obtain the electronic density of states
#  E. Artacho, Apr 1999, A. Garcia, Apr 2012
#  Nick R. Papior, Feb 2017
# ------------------------------------------
# Eigenvalues calculated from a non-polarized calculation
# Eigenvalues read from siesta.EIG
# Kpoint weights read from siesta.KP
# Using smearing parameter:   0.0500
# Using 1000 points in the energy range
# Selected bands: 1 to: 2981
# Emin, Emax in file for selected band(s):    -27.1377842    218.3469010
# Nbands, Nspin, Nk   =   2981     1     1
# E_F                 =    -4.2590 eV --> (shifted to ZERO)
# Broadening          =     0.0500 eV
#
#        E            N(up)  (=)   N(down)         Ntot
     -5.000000     35.384318     35.384318     70.768636
     -4.989990     38.604351     38.604351     77.208703
     -4.979980     41.208659     41.208659     82.417318
     -4.969970     42.781607     42.781607     85.563214
     -4.959960     43.061994     43.061994     86.123987
     -4.949950     42.007914     42.007914     84.015828
     -4.939940     39.815296     39.815296     79.630592
     -4.929930     36.894254     36.894254     73.788507
     -4.919920     33.820775     33.820775     67.641551
     -4.909910     31.276296     31.276296     62.552592
     -4.899900     29.968063     29.968063     59.936125
     -4.889890     30.507765     30.507765     61.015530
     -4.879880     33.238209     33.238209     66.476419
     -4.869870     38.044162     38.044162     76.088325
     -4.859860     44.237381     44.237381     88.474763
     -4.849850     50.618689     50.618689    101.237379
     -4.839840     55.759139     55.759139    111.518278
     -4.829830     58.427076     58.427076    116.854153
     -4.819820     57.988231     57.988231    115.976463
     -4.809810     54.595640     54.595640    109.191281
     -4.799800     49.084244     49.084244     98.168488
     -4.789790     42.634036     42.634036     85.268071
     -4.779780     36.371452     36.371452     72.742903
     -4.769770     31.080045     31.080045     62.160089
     -4.759760     27.102817     27.102817     54.205633
     -4.749750     24.410333     24.410333     48.820665
     -4.739740     22.747477     22.747477     45.494955
     -4.729730     21.775025     21.775025     43.550051
     -4.719720     21.162437     21.162437     42.324875
     -4.709710     20.628988     20.628988     41.257977
     -4.699700     19.953860     19.953860     39.907720
     -4.689690     18.982523     18.982523     37.965046
     -4.679680     17.650204     17.650204     35.300407
     -4.669670     16.025578     16.025578     32.051156
     -4.659660     14.355465     14.355465     28.710930
     -4.649650     13.076984     13.076984     26.153967
     -4.639640     12.767340     12.767340     25.534681
     -4.629630     14.021818     14.021818     28.043636
     -4.619620     17.278109     17.278109     34.556218
     -4.609610     22.631552     22.631552     45.263104
     -4.599600     29.705855     29.705855     59.411710
     -4.589590     37.648428     37.648428     75.296856
     -4.579580     45.293953     45.293953     90.587906
     -4.569570     51.477865     51.477865    102.955729
     -4.559560     55.402527     55.402527    110.805055
     -4.549550     56.907605     56.907605    113.815209
     -4.539540     56.514259     56.514259    113.028518
     -4.529530     55.205421     55.205421    110.410843
     -4.519520     54.027874     54.027874    108.055749
     -4.509510     53.688483     53.688483    107.376965
     -4.499499     54.317000     54.317000    108.634000
     -4.489489     55.481856     55.481856    110.963712
     -4.479479     56.422791     56.422791    112.845582
     -4.469469     56.372671     56.372671    112.745343
     -4.459459     54.824291     54.824291    109.648582
     -4.449449     51.653053     51.653053    103.306105
     -4.439439     47.090729     47.090729     94.181459
     -4.429429     41.609275     41.609275     83.218549
     -4.419419     35.789753     35.789753     71.579506
     -4.409409     30.224818     30.224818     60.449635
     -4.399399     25.460069     25.460069     50.920139
     -4.389389     21.949390     21.949390     43.898779
     -4.379379     19.998942     19.998942     39.997884
     -4.369369     19.700558     19.700558     39.401116
     -4.359359     20.886312     20.886312     41.772624
     -4.349349     23.146304     23.146304     46.292607
     -4.339339     25.929030     25.929030     51.858060
     -4.329329     28.700072     28.700072     57.400144
     -4.319319     31.098682     31.098682     62.197364
     -4.309309     33.027557     33.027557     66.055113
     -4.299299     34.640816     34.640816     69.281631
     -4.289289     36.238905     36.238905     72.477811
     -4.279279     38.111791     38.111791     76.223581
     -4.269269     40.383131     40.383131     80.766263
     -4.259259     42.905095     42.905095     85.810191
     -4.249249     45.245143     45.245143     90.490286
     -4.239239     46.788908     46.788908     93.577816
     -4.229229     46.946030     46.946030     93.892060
     -4.219219     45.391859     45.391859     90.783718
     -4.209209     42.237750     42.237750     84.475499
     -4.199199     38.035336     38.035336     76.070672
     -4.189189     33.595453     33.595453     67.190907
     -4.179179     29.701267     29.701267     59.402535
     -4.169169     26.853661     26.853661     53.707323
     -4.159159     25.165807     25.165807     50.331613
     -4.149149     24.438930     24.438930     48.877861
     -4.139139     24.357981     24.357981     48.715962
     -4.129129     24.695418     24.695418     49.390835
     -4.119119     25.420330     25.420330     50.840661
     -4.109109     26.663121     26.663121     53.326242
     -4.099099     28.556615     28.556615     57.113231
     -4.089089     31.037648     31.037648     62.075296
     -4.079079     33.723870     33.723870     67.447739
     -4.069069     35.956388     35.956388     71.912776
     -4.059059     37.018017     37.018017     74.036035
     -4.049049     36.434985     36.434985     72.869971
     -4.039039     34.209284     34.209284     68.418568
     -4.029029     30.856057     30.856057     61.712114
     -4.019019     27.225605     27.225605     54.451211
     -4.009009     24.206826     24.206826     48.413652
     -3.998999     22.462652     22.462652     44.925304
     -3.988989     22.308650     22.308650     44.617300
     -3.978979     23.748526     23.748526     47.497051
     -3.968969     26.594841     26.594841     53.189681
     -3.958959     30.581987     30.581987     61.163974
     -3.948949     35.421632     35.421632     70.843264
     -3.938939     40.813541     40.813541     81.627082
     -3.928929     46.455581     46.455581     92.911161
     -3.918919     52.077554     52.077554    104.155107
     -3.908909     57.479505     57.479505    114.959011
     -3.898899     62.529989     62.529989    125.059978
     -3.888889     67.098747     67.098747    134.197494
     -3.878879     70.948983     70.948983    141.897966
     -3.868869     73.658696     73.658696    147.317391
     -3.858859     74.643761     74.643761    149.287522
     -3.848849     73.309835     73.309835    146.619670
     -3.838839     69.288858     69.288858    138.577716
     -3.828829     62.659261     62.659261    125.318521
     -3.818819     54.041167     54.041167    108.082335
     -3.808809     44.507125     44.507125     89.014251
     -3.798799     35.330350     35.330350     70.660700
     -3.788789     27.662576     27.662576     55.325152
     -3.778779     22.256936     22.256936     44.513872
     -3.768769     19.322267     19.322267     38.644535
     -3.758759     18.537443     18.537443     37.074887
     -3.748749     19.200170     19.200170     38.400340
     -3.738739     20.454018     20.454018     40.908037
     -3.728729     21.530704     21.530704     43.061409
     -3.718719     21.951623     21.951623     43.903246
     -3.708709     21.644687     21.644687     43.289375
     -3.698699     20.947817     20.947817     41.895633
     -3.688689     20.491857     20.491857     40.983715
     -3.678679     20.985231     20.985231     41.970462
     -3.668669     22.956372     22.956372     45.912744
     -3.658659     26.535970     26.535970     53.071940
     -3.648649     31.362045     31.362045     62.724091
     -3.638639     36.654878     36.654878     73.309757
     -3.628629     41.442191     41.442191     82.884381
     -3.618619     44.847754     44.847754     89.695508
     -3.608609     46.328290     46.328290     92.656579
     -3.598599     45.774490     45.774490     91.548979
     -3.588589     43.463615     43.463615     86.927230
     -3.578579     39.916460     39.916460     79.832919
     -3.568569     35.732350     35.732350     71.464700
     -3.558559     31.452481     31.452481     62.904962
     -3.548549     27.467244     27.467244     54.934488
     -3.538539     23.967966     23.967966     47.935931
     -3.528529     20.948180     20.948180     41.896361
     -3.518519     18.261260     18.261260     36.522520
     -3.508509     15.723553     15.723553     31.447105
     -3.498498     13.225198     13.225198     26.450396
     -3.488488     10.799943     10.799943     21.599886
     -3.478478      8.624063      8.624063     17.248126
     -3.468468      6.950453      6.950453     13.900905
     -3.458458      6.011675      6.011675     12.023350
     -3.448448      5.930614      5.930614     11.861228
     -3.438438      6.665407      6.665407     13.330813
     -3.428428      8.001900      8.001900     16.003799
     -3.418418      9.598867      9.598867     19.197735
     -3.408408     11.082402     11.082402     22.164803
     -3.398398     12.168765     12.168765     24.337530
     -3.388388     12.774525     12.774525     25.549051
     -3.378378     13.065810     13.065810     26.131620
     -3.368368     13.417973     13.417973     26.835947
     -3.358358     14.296349     14.296349     28.592698
     -3.348348     16.103841     16.103841     32.207682
     -3.338338     19.048915     19.048915     38.097829
     -3.328328     23.066697     23.066697     46.133393
     -3.318318     27.797911     27.797911     55.595821
     -3.308308     32.619751     32.619751     65.239502
     -3.298298     36.732248     36.732248     73.464496
     -3.288288     39.310218     39.310218     78.620437
     -3.278278     39.709514     39.709514     79.419028
     -3.268268     37.670973     37.670973     75.341946
     -3.258258     33.433846     33.433846     66.867691
     -3.248248     27.691304     27.691304     55.382609
     -3.238238     21.393607     21.393607     42.787214
     -3.228228     15.483077     15.483077     30.966154
     -3.218218     10.674152     10.674152     21.348305
     -3.208208      7.353512      7.353512     14.707024
     -3.198198      5.601963      5.601963     11.203926
     -3.188188      5.283588      5.283588     10.567175
     -3.178178      6.139958      6.139958     12.279917
     -3.168168      7.859842      7.859842     15.719684
     -3.158158     10.133555     10.133555     20.267110
     -3.148148     12.713855     12.713855     25.427710
     -3.138138     15.484220     15.484220     30.968440
     -3.128128     18.500863     18.500863     37.001727
     -3.118118     21.960282     21.960282     43.920565
     -3.108108     26.070971     26.070971     52.141942
     -3.098098     30.867003     30.867003     61.734005
     -3.088088     36.054922     36.054922     72.109844
     -3.078078     40.991812     40.991812     81.983624
     -3.068068     44.836128     44.836128     89.672256
     -3.058058     46.820270     46.820270     93.640541
     -3.048048     46.520340     46.520340     93.040680
     -3.038038     43.993371     43.993371     87.986741
     -3.028028     39.723472     39.723472     79.446944
     -3.018018     34.422568     34.422568     68.845137
     -3.008008     28.802333     28.802333     57.604666
     -2.997998     23.428822     23.428822     46.857644
     -2.987988     18.702023     18.702023     37.404046
     -2.977978     14.922532     14.922532     29.845064
     -2.967968     12.368233     12.368233     24.736465
     -2.957958     11.318381     11.318381     22.636761
     -2.947948     12.006619     12.006619     24.013238
     -2.937938     14.525383     14.525383     29.050766
     -2.927928     18.725717     18.725717     37.451435
     -2.917918     24.160232     24.160232     48.320463
     -2.907908     30.107554     30.107554     60.215109
     -2.897898     35.693666     35.693666     71.387333
     -2.887888     40.088998     40.088998     80.177997
     -2.877878     42.721007     42.721007     85.442013
     -2.867868     43.421300     43.421300     86.842600
     -2.857858     42.442194     42.442194     84.884387
     -2.847848     40.329303     40.329303     80.658606
     -2.837838     37.701458     37.701458     75.402916
     -2.827828     35.033146     35.033146     70.066293
     -2.817818     32.532865     32.532865     65.065730
     -2.807808     30.162121     30.162121     60.324242
     -2.797798     27.768961     27.768961     55.537922
     -2.787788     25.254230     25.254230     50.508460
     -2.777778     22.678077     22.678077     45.356153
     -2.767768     20.253810     20.253810     40.507620
     -2.757758     18.243597     18.243597     36.487195
     -2.747748     16.827042     16.827042     33.654084
     -2.737738     16.026496     16.026496     32.052992
     -2.727728     15.734016     15.734016     31.468032
     -2.717718     15.817485     15.817485     31.634970
     -2.707708     16.230022     16.230022     32.460044
     -2.697698     17.043080     17.043080     34.086161
     -2.687688     18.374740     18.374740     36.749479
     -2.677678     20.258611     20.258611     40.517222
     -2.667668     22.545567     22.545567     45.091134
     -2.657658     24.915271     24.915271     49.830542
     -2.647648     27.003645     27.003645     54.007291
     -2.637638     28.572589     28.572589     57.145177
     -2.627628     29.615866     29.615866     59.231732
     -2.617618     30.335164     30.335164     60.670328
     -2.607608     31.005539     31.005539     62.011079
     -2.597598     31.818208     31.818208     63.636416
     -2.587588     32.791889     32.791889     65.583777
     -2.577578     33.784681     33.784681     67.569362
     -2.567568     34.568261     34.568261     69.136521
     -2.557558     34.900839     34.900839     69.801678
     -2.547548     34.567198     34.567198     69.134395
     -2.537538     33.404395     33.404395     66.808791
     -2.527528     31.349104     31.349104     62.698209
     -2.517518     28.511136     28.511136     57.022273
     -2.507508     25.229786     25.229786     50.459572
     -2.497497     22.052980     22.052980     44.105960
     -2.487487     19.613423     19.613423     39.226846
     -2.477477     18.437572     18.437572     36.875144
     -2.467467     18.769024     18.769024     37.538047
     -2.457457     20.488794     20.488794     40.977588
     -2.447447     23.172349     23.172349     46.344698
     -2.437437     26.260933     26.260933     52.521865
     -2.427427     29.272461     29.272461     58.544922
     -2.417417     31.958054     31.958054     63.916109
     -2.407407     34.333409     34.333409     68.666818
     -2.397397     36.571240     36.571240     73.142480
     -2.387387     38.807462     38.807462     77.614924
     -2.377377     40.958777     40.958777     81.917554
     -2.367367     42.650078     42.650078     85.300156
     -2.357357     43.302710     43.302710     86.605420
     -2.347347     42.357759     42.357759     84.715518
     -2.337337     39.538090     39.538090     79.076180
     -2.327327     35.026749     35.026749     70.053498
     -2.317317     29.475875     29.475875     58.951749
     -2.307307     23.841661     23.841661     47.683323
     -2.297297     19.120730     19.120730     38.241460
     -2.287287     16.096824     16.096824     32.193647
     -2.277277     15.182465     15.182465     30.364930
     -2.267267     16.383747     16.383747     32.767494
     -2.257257     19.365888     19.365888     38.731776
     -2.247247     23.574060     23.574060     47.148119
     -2.237237     28.365099     28.365099     56.730199
     -2.227227     33.117203     33.117203     66.234406
     -2.217217     37.298423     37.298423     74.596846
     -2.207207     40.491318     40.491318     80.982636
     -2.197197     42.390171     42.390171     84.780342
     -2.187187     42.800119     42.800119     85.600238
     -2.177177     41.661723     41.661723     83.323447
     -2.167167     39.096956     39.096956     78.193913
     -2.157157     35.439344     35.439344     70.878689
     -2.147147     31.200003     31.200003     62.400006
     -2.137137     26.949699     26.949699     53.899399
     -2.127127     23.152149     23.152149     46.304298
     -2.117117     20.026745     20.026745     40.053490
     -2.107107     17.514140     17.514140     35.028279
     -2.097097     15.363395     15.363395     30.726790
     -2.087087     13.290640     13.290640     26.581280
     -2.077077     11.123004     11.123004     22.246008
     -2.067067      8.859833      8.859833     17.719667
     -2.057057      6.638337      6.638337     13.276674
     -2.047047      4.643103      4.643103      9.286206
     -2.037037      3.017534      3.017534      6.035068
     -2.027027      1.817551      1.817551      3.635102
     -2.017017      1.014488      1.014488      2.028976
     -2.007007      0.528834      0.528834      1.057669
     -1.996997      0.270282      0.270282      0.540564
     -1.986987      0.168057      0.168057      0.336113
     -1.976977      0.187744      0.187744      0.375489
     -1.966967      0.338180      0.338180      0.676360
     -1.956957      0.672221      0.672221      1.344443
     -1.946947      1.280986      1.280986      2.561973
     -1.936937      2.277137      2.277137      4.554273
     -1.926927      3.763266      3.763266      7.526532
     -1.916917      5.788129      5.788129     11.576259
     -1.906907      8.303596      8.303596     16.607193
     -1.896897     11.142053     11.142053     22.284106
     -1.886887     14.030828     14.030828     28.061656
     -1.876877     16.646457     16.646457     33.292914
     -1.866867     18.694646     18.694646     37.389293
     -1.856857     19.991652     19.991652     39.983304
     -1.846847     20.523025     20.523025     41.046050
     -1.836837     20.461596     20.461596     40.923192
     -1.826827     20.132594     20.132594     40.265187
     -1.816817     19.922140     19.922140     39.844279
     -1.806807     20.143326     20.143326     40.286651
     -1.796797     20.900916     20.900916     41.801832
     -1.786787     22.015017     22.015017     44.030034
     -1.776777     23.053816     23.053816     46.107632
     -1.766767     23.479778     23.479778     46.959556
     -1.756757     22.854226     22.854226     45.708451
     -1.746747     21.009635     21.009635     42.019271
     -1.736737     18.112800     18.112800     36.225600
     -1.726727     14.598466     14.598466     29.196933
     -1.716717     11.017109     11.017109     22.034219
     -1.706707      7.874034      7.874034     15.748069
     -1.696697      5.524492      5.524492     11.048984
     -1.686687      4.145666      4.145666      8.291331
     -1.676677      3.762297      3.762297      7.524595
     -1.666667      4.284088      4.284088      8.568176
     -1.656657      5.525682      5.525682     11.051363
     -1.646647      7.210232      7.210232     14.420465
     -1.636637      8.982420      8.982420     17.964840
     -1.626627     10.458622     10.458622     20.917245
