# EIG2DOS: Utility for SIESTA to obtain the electronic density of states
#  E. Artacho, Apr 1999, A. Garcia, Apr 2012
#  Nick R. Papior, Feb 2017
# ------------------------------------------
# Eigenvalues calculated from a non-polarized calculation
# Eigenvalues read from siesta.EIG
# Kpoint weights read from siesta.KP
# Using smearing parameter:   0.0500
# Using 1000 points in the energy range
# Selected bands: 1 to: 2981
# Emin, Emax in file for selected band(s):    -27.2454787    218.3994000
# Nbands, Nspin, Nk   =   2981     1     1
# E_F                 =    -4.1943 eV --> (shifted to ZERO)
# Broadening          =     0.0500 eV
#
#        E            N(up)  (=)   N(down)         Ntot
     -5.000000     32.068371     32.068371     64.136741
     -4.989990     37.250542     37.250542     74.501085
     -4.979980     42.077311     42.077311     84.154622
     -4.969970     45.694469     45.694469     91.388939
     -4.959960     47.408686     47.408686     94.817372
     -4.949950     46.920420     46.920420     93.840840
     -4.939940     44.427447     44.427447     88.854894
     -4.929930     40.573698     40.573698     81.147397
     -4.919920     36.288168     36.288168     72.576336
     -4.909910     32.586091     32.586091     65.172183
     -4.899900     30.382164     30.382164     60.764328
     -4.889890     30.326008     30.326008     60.652016
     -4.879880     32.656165     32.656165     65.312330
     -4.869870     37.093743     37.093743     74.187487
     -4.859860     42.831460     42.831460     85.662920
     -4.849850     48.673218     48.673218     97.346437
     -4.839840     53.324441     53.324441    106.648881
     -4.829830     55.751409     55.751409    111.502817
     -4.819820     55.473954     55.473954    110.947908
     -4.809810     52.671396     52.671396    105.342791
     -4.799800     48.063366     48.063366     96.126733
     -4.789790     42.628922     42.628922     85.257844
     -4.779780     37.291627     37.291627     74.583254
     -4.769770     32.693863     32.693863     65.387727
     -4.759760     29.122238     29.122238     58.244475
     -4.749750     26.569450     26.569450     53.138899
     -4.739740     24.867184     24.867184     49.734369
     -4.729730     23.815747     23.815747     47.631494
     -4.719720     23.259833     23.259833     46.519665
     -4.709710     23.096561     23.096561     46.193121
     -4.699700     23.235787     23.235787     46.471574
     -4.689690     23.553839     23.553839     47.107678
     -4.679680     23.883566     23.883566     47.767132
     -4.669670     24.063843     24.063843     48.127686
     -4.659660     24.037063     24.037063     48.074125
     -4.649650     23.948641     23.948641     47.897283
     -4.639640     24.185314     24.185314     48.370627
     -4.629630     25.301142     25.301142     50.602284
     -4.619620     27.823966     27.823966     55.647933
     -4.609610     31.998348     31.998348     63.996696
     -4.599600     37.575545     37.575545     75.151090
     -4.589590     43.770427     43.770427     87.540854
     -4.579580     49.447850     49.447850     98.895699
     -4.569570     53.493064     53.493064    106.986127
     -4.559560     55.217672     55.217672    110.435343
     -4.549550     54.617931     54.617931    109.235862
     -4.539540     52.363274     52.363274    104.726549
     -4.529530     49.519026     49.519026     99.038051
     -4.519520     47.129103     47.129103     94.258207
     -4.509510     45.839379     45.839379     91.678758
     -4.499499     45.709850     45.709850     91.419699
     -4.489489     46.269681     46.269681     92.539363
     -4.479479     46.763591     46.763591     93.527181
     -4.469469     46.467777     46.467777     92.935553
     -4.459459     44.943482     44.943482     89.886964
     -4.449449     42.142807     42.142807     84.285613
     -4.439439     38.357738     38.357738     76.715477
     -4.429429     34.071717     34.071717     68.143434
     -4.419419     29.801781     29.801781     59.603562
     -4.409409     25.998081     25.998081     51.996161
     -4.399399     23.013913     23.013913     46.027826
     -4.389389     21.110196     21.110196     42.220391
     -4.379379     20.446320     20.446320     40.892640
     -4.369369     21.039852     21.039852     42.079704
     -4.359359     22.723449     22.723449     45.446898
     -4.349349     25.149655     25.149655     50.299310
     -4.339339     27.873346     27.873346     55.746692
     -4.329329     30.492093     30.492093     60.984187
     -4.319319     32.782586     32.782586     65.565173
     -4.309309     34.765123     34.765123     69.530246
     -4.299299     36.659861     36.659861     73.319721
     -4.289289     38.747130     38.747130     77.494259
     -4.279279     41.185252     41.185252     82.370504
     -4.269269     43.859599     43.859599     87.719198
     -4.259259     46.332877     46.332877     92.665753
     -4.249249     47.937601     47.937601     95.875203
     -4.239239     47.998441     47.998441     95.996882
     -4.229229     46.108419     46.108419     92.216837
     -4.219219     42.340434     42.340434     84.680868
     -4.209209     37.287414     37.287414     74.574827
     -4.199199     31.897050     31.897050     63.794099
     -4.189189     27.165977     27.165977     54.331954
     -4.179179     23.826887     23.826887     47.653774
     -4.169169     22.161038     22.161038     44.322077
     -4.159159     22.002108     22.002108     44.004217
     -4.149149     22.906048     22.906048     45.812097
     -4.139139     24.392550     24.392550     48.785101
     -4.129129     26.143361     26.143361     52.286721
     -4.119119     28.071462     28.071462     56.142924
     -4.109109     30.237539     30.237539     60.475078
     -4.099099     32.663636     32.663636     65.327273
     -4.089089     35.150657     35.150657     70.301314
     -4.079079     37.216044     37.216044     74.432088
     -4.069069     38.213797     38.213797     76.427594
     -4.059059     37.598841     37.598841     75.197681
     -4.049049     35.206713     35.206713     70.413427
     -4.039039     31.398376     31.398376     62.796752
     -4.029029     26.988356     26.988356     53.976711
     -4.019019     22.990989     22.990989     45.981979
     -4.009009     20.309972     20.309972     40.619945
     -3.998999     19.508430     19.508430     39.016861
     -3.988989     20.734248     20.734248     41.468497
     -3.978979     23.787897     23.787897     47.575794
     -3.968969     28.262079     28.262079     56.524159
     -3.958959     33.678537     33.678537     67.357074
     -3.948949     39.583062     39.583062     79.166123
     -3.938939     45.599524     45.599524     91.199049
     -3.928929     51.458452     51.458452    102.916904
     -3.918919     57.002730     57.002730    114.005460
     -3.908909     62.155538     62.155538    124.311076
     -3.898899     66.840253     66.840253    133.680505
     -3.888889     70.873581     70.873581    141.747162
     -3.878879     73.887961     73.887961    147.775923
     -3.868869     75.344986     75.344986    150.689972
     -3.858859     74.665019     74.665019    149.330038
     -3.848849     71.437367     71.437367    142.874734
     -3.838839     65.626488     65.626488    131.252976
     -3.828829     57.681915     57.681915    115.363830
     -3.818819     48.496951     48.496951     96.993901
     -3.808809     39.222967     39.222967     78.445933
     -3.798799     31.001451     31.001451     62.002901
     -3.788789     24.701374     24.701374     49.402747
     -3.778779     20.739551     20.739551     41.479101
     -3.768769     19.027411     19.027411     38.054823
     -3.758759     19.046795     19.046795     38.093590
     -3.748749     20.024457     20.024457     40.048914
     -3.738739     21.155910     21.155910     42.311820
     -3.728729     21.823390     21.823390     43.646780
     -3.718719     21.756890     21.756890     43.513780
     -3.708709     21.098966     21.098966     42.197932
     -3.698699     20.352691     20.352691     40.705382
     -3.688689     20.217857     20.217857     40.435713
     -3.678679     21.351924     21.351924     42.703848
     -3.668669     24.122785     24.122785     48.245571
     -3.658659     28.437046     28.437046     56.874091
     -3.648649     33.714864     33.714864     67.429728
     -3.638639     39.034155     39.034155     78.068310
     -3.628629     43.397612     43.397612     86.795224
     -3.618619     46.020042     46.020042     92.040083
     -3.608609     46.525632     46.525632     93.051263
     -3.598599     44.992768     44.992768     89.985537
     -3.588589     41.858259     41.858259     83.716518
     -3.578579     37.746666     37.746666     75.493332
     -3.568569     33.296950     33.296950     66.593899
     -3.558559     29.029325     29.029325     58.058651
     -3.548549     25.264272     25.264272     50.528543
     -3.538539     22.095083     22.095083     44.190166
     -3.528529     19.418120     19.418120     38.836241
     -3.518519     17.019307     17.019307     34.038614
     -3.508509     14.693542     14.693542     29.387085
     -3.498498     12.351568     12.351568     24.703136
     -3.488488     10.069086     10.069086     20.138171
     -3.478478      8.060347      8.060347     16.120695
     -3.468468      6.594496      6.594496     13.188992
     -3.458458      5.893786      5.893786     11.787572
     -3.448448      6.050536      6.050536     12.101073
     -3.438438      6.985228      6.985228     13.970455
     -3.428428      8.456127      8.456127     16.912254
     -3.418418     10.123779     10.123779     20.247557
     -3.408408     11.662772     11.662772     23.325544
     -3.398398     12.892668     12.892668     25.785336
     -3.388388     13.878741     13.878741     27.757481
     -3.378378     14.950169     14.950169     29.900338
     -3.368368     16.609787     16.609787     33.219574
     -3.358358     19.356138     19.356138     38.712276
     -3.348348     23.479602     23.479602     46.959205
     -3.338338     28.906631     28.906631     57.813262
     -3.328328     35.145750     35.145750     70.291500
     -3.318318     41.352043     41.352043     82.704087
     -3.308308     46.493671     46.493671     92.987343
     -3.298298     49.583052     49.583052     99.166103
     -3.288288     49.921272     49.921272     99.842544
     -3.278278     47.292055     47.292055     94.584110
     -3.268268     42.039842     42.039842     84.079684
     -3.258258     34.992241     34.992241     69.984483
     -3.248248     27.243142     27.243142     54.486285
     -3.238238     19.874094     19.874094     39.748188
     -3.228228     13.718517     13.718517     27.437035
     -3.218218      9.245166      9.245166     18.490333
     -3.208208      6.571701      6.571701     13.143401
     -3.198198      5.559736      5.559736     11.119472
     -3.188188      5.924436      5.924436     11.848871
     -3.178178      7.317036      7.317036     14.634071
     -3.168168      9.379972      9.379972     18.759944
     -3.158158     11.797377     11.797377     23.594755
     -3.148148     14.352950     14.352950     28.705900
     -3.138138     16.975603     16.975603     33.951206
     -3.128128     19.732326     19.732326     39.464651
     -3.118118     22.742868     22.742868     45.485736
     -3.108108     26.039661     26.039661     52.079321
     -3.098098     29.445535     29.445535     58.891070
     -3.088088     32.550549     32.550549     65.101098
     -3.078078     34.821553     34.821553     69.643106
     -3.068068     35.799554     35.799554     71.599108
     -3.058058     35.282248     35.282248     70.564495
     -3.048048     33.393601     33.393601     66.787203
     -3.038038     30.508822     30.508822     61.017643
     -3.028028     27.088033     27.088033     54.176066
     -3.018018     23.519586     23.519586     47.039172
     -3.008008     20.055272     20.055272     40.110544
     -2.997998     16.852837     16.852837     33.705675
     -2.987988     14.074605     14.074605     28.149211
     -2.977978     11.966427     11.966427     23.932855
     -2.967968     10.864887     10.864887     21.729774
     -2.957958     11.126792     11.126792     22.253584
     -2.947948     13.011744     13.011744     26.023487
     -2.937938     16.562385     16.562385     33.124770
     -2.927928     21.523905     21.523905     43.047810
     -2.917918     27.334870     27.334870     54.669740
     -2.907908     33.207179     33.207179     66.414357
     -2.897898     38.289120     38.289120     76.578240
     -2.887888     41.872742     41.872742     83.745485
     -2.877878     43.577884     43.577884     87.155768
     -2.867868     43.439961     43.439961     86.879922
     -2.857858     41.858733     41.858733     83.717466
     -2.847848     39.423203     39.423203     78.846407
     -2.837838     36.686291     36.686291     73.372582
     -2.827828     33.989161     33.989161     67.978322
     -2.817818     31.410746     31.410746     62.821492
     -2.807808     28.853060     28.853060     57.706120
     -2.797798     26.202421     26.202421     52.404843
     -2.787788     23.470547     23.470547     46.941094
     -2.777778     20.838031     20.838031     41.676062
     -2.767768     18.584205     18.584205     37.168410
     -2.757758     16.955015     16.955015     33.910031
     -2.747748     16.054371     16.054371     32.108743
     -2.737738     15.824735     15.824735     31.649470
     -2.727728     16.121939     16.121939     32.243878
     -2.717718     16.825915     16.825915     33.651831
     -2.707708     17.905164     17.905164     35.810329
     -2.697698     19.386618     19.386618     38.773236
     -2.687688     21.253362     21.253362     42.506723
     -2.677678     23.351265     23.351265     46.702530
     -2.667668     25.387244     25.387244     50.774487
     -2.657658     27.040517     27.040517     54.081035
     -2.647648     28.125052     28.125052     56.250104
     -2.637638     28.697412     28.697412     57.394823
     -2.627628     29.034349     29.034349     58.068698
     -2.617618     29.488751     29.488751     58.977501
     -2.607608     30.309768     30.309768     60.619535
     -2.597598     31.528156     31.528156     63.056312
     -2.587588     32.954996     32.954996     65.909992
     -2.577578     34.266883     34.266883     68.533767
     -2.567568     35.111053     35.111053     70.222105
     -2.557558     35.181699     35.181699     70.363399
     -2.547548     34.266266     34.266266     68.532532
     -2.537538     32.289270     32.289270     64.578541
     -2.527528     29.367226     29.367226     58.734453
     -2.517518     25.850052     25.850052     51.700104
     -2.507508     22.302592     22.302592     44.605185
     -2.497497     19.398372     19.398372     38.796744
     -2.487487     17.744979     17.744979     35.489957
     -2.477477     17.703375     17.703375     35.406750
     -2.467467     19.275093     19.275093     38.550186
     -2.457457     22.107119     22.107119     44.214237
     -2.447447     25.617728     25.617728     51.235456
     -2.437437     29.197294     29.197294     58.394588
     -2.427427     32.404707     32.404707     64.809414
     -2.417417     35.076940     35.076940     70.153880
     -2.407407     37.302226     37.302226     74.604453
     -2.397397     39.267279     39.267279     78.534558
     -2.387387     41.051789     41.051789     82.103578
     -2.377377     42.477790     42.477790     84.955580
     -2.367367     43.104236     43.104236     86.208473
     -2.357357     42.388544     42.388544     84.777088
     -2.347347     39.947483     39.947483     79.894967
     -2.337337     35.789723     35.789723     71.579445
     -2.327327     30.401071     30.401071     60.802142
     -2.317317     24.639635     24.639635     49.279271
     -2.307307     19.494945     19.494945     38.989889
     -2.297297     15.823069     15.823069     31.646137
     -2.287287     14.159981     14.159981     28.319963
     -2.277277     14.657130     14.657130     29.314259
     -2.267267     17.121515     17.121515     34.243030
     -2.257257     21.111525     21.111525     42.223050
     -2.247247     26.042849     26.042849     52.085699
     -2.237237     31.278669     31.278669     62.557339
     -2.227227     36.197077     36.197077     72.394155
     -2.217217     40.239716     40.239716     80.479432
     -2.207207     42.950761     42.950761     85.901522
     -2.197197     44.016572     44.016572     88.033143
     -2.187187     43.311413     43.311413     86.622826
     -2.177177     40.941070     40.941070     81.882140
     -2.167167     37.258578     37.258578     74.517156
     -2.157157     32.819108     32.819108     65.638216
     -2.147147     28.259019     28.259019     56.518037
     -2.137137     24.125702     24.125702     48.251403
     -2.127127     20.725281     20.725281     41.450563
     -2.117117     18.061659     18.061659     36.123317
     -2.107107     15.899686     15.899686     31.799371
     -2.097097     13.919678     13.919678     27.839357
     -2.087087     11.883178     11.883178     23.766355
     -2.077077      9.731804      9.731804     19.463609
     -2.067067      7.587497      7.587497     15.174994
     -2.057057      5.678604      5.678604     11.357207
     -2.047047      4.245773      4.245773      8.491545
     -2.037037      3.472120      3.472120      6.944239
     -2.027027      3.450044      3.450044      6.900088
     -2.017017      4.170324      4.170324      8.340648
     -2.007007      5.515699      5.515699     11.031398
     -1.996997      7.258209      7.258209     14.516418
     -1.986987      9.078405      9.078405     18.156810
     -1.976977     10.625839     10.625839     21.251678
     -1.966967     11.618394     11.618394     23.236787
     -1.956957     11.946579     11.946579     23.893158
     -1.946947     11.731465     11.731465     23.462930
     -1.936937     11.297725     11.297725     22.595451
     -1.926927     11.062219     11.062219     22.124438
     -1.916917     11.381040     11.381040     22.762079
     -1.906907     12.418826     12.418826     24.837651
     -1.896897     14.092360     14.092360     28.184720
     -1.886887     16.104978     16.104978     32.209955
     -1.876877     18.049975     18.049975     36.099950
     -1.866867     19.539058     19.539058     39.078115
     -1.856857     20.312117     20.312117     40.624233
     -1.846847     20.299673     20.299673     40.599346
     -1.836837     19.626350     19.626350     39.252699
     -1.826827     18.556407     18.556407     37.112815
     -1.816817     17.394409     17.394409     34.788819
     -1.806807     16.370258     16.370258     32.740516
     -1.796797     15.552569     15.552569     31.105138
     -1.786787     14.832170     14.832170     29.664341
     -1.776777     13.988933     13.988933     27.977865
     -1.766767     12.811496     12.811496     25.622993
     -1.756757     11.208932     11.208932     22.417864
     -1.746747      9.258941      9.258941     18.517882
     -1.736737      7.176079      7.176079     14.352158
     -1.726727      5.228672      5.228672     10.457344
     -1.716717      3.654883      3.654883      7.309765
     -1.706707      2.616484      2.616484      5.232968
     -1.696697      2.196833      2.196833      4.393666
     -1.686687      2.421037      2.421037      4.842074
     -1.676677      3.268182      3.268182      6.536363
     -1.666667      4.659340      4.659340      9.318679
     -1.656657      6.430055      6.430055     12.860110
     -1.646647      8.315921      8.315921     16.631841
     -1.636637      9.981372      9.981372     19.962743
     -1.626627     11.101355     11.101355     22.202710
