# EIG2DOS: Utility for SIESTA to obtain the electronic density of states
#  E. Artacho, Apr 1999, A. Garcia, Apr 2012
#  Nick R. Papior, Feb 2017
# ------------------------------------------
# Eigenvalues calculated from a non-polarized calculation
# Eigenvalues read from siesta.EIG
# Kpoint weights read from siesta.KP
# Using smearing parameter:   0.0500
# Using 1000 points in the energy range
# Selected bands: 1 to: 2981
# Emin, Emax in file for selected band(s):    -27.0802586    218.3202250
# Nbands, Nspin, Nk   =   2981     1     1
# E_F                 =    -4.2880 eV --> (shifted to ZERO)
# Broadening          =     0.0500 eV
#
#        E            N(up)  (=)   N(down)         Ntot
     -5.000000     45.641773     45.641773     91.283546
     -4.989990     49.252997     49.252997     98.505994
     -4.979980     51.279627     51.279627    102.559254
     -4.969970     51.537932     51.537932    103.075864
     -4.959960     50.107282     50.107282    100.214564
     -4.949950     47.292117     47.292117     94.584235
     -4.939940     43.547574     43.547574     87.095148
     -4.929930     39.409824     39.409824     78.819647
     -4.919920     35.457059     35.457059     70.914118
     -4.909910     32.295882     32.295882     64.591764
     -4.899900     30.538309     30.538309     61.076617
     -4.889890     30.724647     30.724647     61.449294
     -4.879880     33.171027     33.171027     66.342055
     -4.869870     37.776342     37.776342     75.552685
     -4.859860     43.884329     43.884329     87.768657
     -4.849850     50.315313     50.315313    100.630627
     -4.839840     55.624639     55.624639    111.249277
     -4.829830     58.526527     58.526527    117.053054
     -4.819820     58.312301     58.312301    116.624601
     -4.809810     55.069499     55.069499    110.138998
     -4.799800     49.600533     49.600533     99.201067
     -4.789790     43.092956     43.092956     86.185912
     -4.779780     36.710415     36.710415     73.420829
     -4.769770     31.284280     31.284280     62.568560
     -4.759760     27.199080     27.199080     54.398161
     -4.749750     24.451400     24.451400     48.902800
     -4.739740     22.794265     22.794265     45.588530
     -4.729730     21.879996     21.879996     43.759992
     -4.719720     21.356405     21.356405     42.712810
     -4.709710     20.913805     20.913805     41.827609
     -4.699700     20.303055     20.303055     40.606110
     -4.689690     19.349051     19.349051     38.698101
     -4.679680     17.976720     17.976720     35.953440
     -4.669670     16.251465     16.251465     32.502931
     -4.659660     14.417881     14.417881     28.835762
     -4.649650     12.908941     12.908941     25.817882
     -4.639640     12.300351     12.300351     24.600703
     -4.629630     13.200338     13.200338     26.400677
     -4.619620     16.086388     16.086388     32.172775
     -4.609610     21.122424     21.122424     42.244848
     -4.599600     28.011107     28.011107     56.022215
     -4.589590     35.949453     35.949453     71.898905
     -4.579580     43.744858     43.744858     87.489716
     -4.569570     50.098744     50.098744    100.197487
     -4.559560     53.986326     53.986326    107.972653
     -4.549550     54.993931     54.993931    109.987862
     -4.539540     53.467211     53.467211    106.934422
     -4.529530     50.392853     50.392853    100.785706
     -4.519520     47.052639     47.052639     94.105278
     -4.509510     44.590455     44.590455     89.180910
     -4.499499     43.665795     43.665795     87.331590
     -4.489489     44.317547     44.317547     88.635095
     -4.479479     46.060148     46.060148     92.120295
     -4.469469     48.134864     48.134864     96.269728
     -4.459459     49.789151     49.789151     99.578303
     -4.449449     50.473574     50.473574    100.947147
     -4.439439     49.910936     49.910936     99.821872
     -4.429429     48.065424     48.065424     96.130848
     -4.419419     45.079905     45.079905     90.159811
     -4.409409     41.237962     41.237962     82.475924
     -4.399399     36.957642     36.957642     73.915284
     -4.389389     32.775995     32.775995     65.551990
     -4.379379     29.275769     29.275769     58.551538
     -4.369369     26.946689     26.946689     53.893377
     -4.359359     26.032916     26.032916     52.065833
     -4.349349     26.448448     26.448448     52.896896
     -4.339339     27.816910     27.816910     55.633820
     -4.329329     29.626445     29.626445     59.252891
     -4.319319     31.428371     31.428371     62.856741
     -4.309309     32.989136     32.989136     65.978272
     -4.299299     34.335558     34.335558     68.671116
     -4.289289     35.687543     35.687543     71.375085
     -4.279279     37.316427     37.316427     74.632854
     -4.269269     39.384225     39.384225     78.768450
     -4.259259     41.816763     41.816763     83.633526
     -4.249249     44.255860     44.255860     88.511719
     -4.239239     46.122903     46.122903     92.245806
     -4.229229     46.795513     46.795513     93.591025
     -4.219219     45.846541     45.846541     91.693081
     -4.209209     43.244777     43.244777     86.489555
     -4.199199     39.411476     39.411476     78.822953
     -4.189189     35.087891     35.087891     70.175781
     -4.179179     31.068790     31.068790     62.137580
     -4.169169     27.931760     27.931760     55.863521
     -4.159159     25.891223     25.891223     51.782447
     -4.149149     24.831969     24.831969     49.663938
     -4.139139     24.480148     24.480148     48.960296
     -4.129129     24.606986     24.606986     49.213972
     -4.119119     25.157426     25.157426     50.314852
     -4.109109     26.241978     26.241978     52.483955
     -4.099099     27.999073     27.999073     55.998146
     -4.089089     30.401120     30.401120     60.802239
     -4.079079     33.115329     33.115329     66.230659
     -4.069069     35.516813     35.516813     71.033627
     -4.059059     36.879659     36.879659     73.759318
     -4.049049     36.670584     36.670584     73.341168
     -4.039039     34.799027     34.799027     69.598054
     -4.029029     31.689313     31.689313     63.378626
     -4.019019     28.135611     28.135611     56.271222
     -4.009009     25.020031     25.020031     50.040062
     -3.998999     23.040493     23.040493     46.080986
     -3.988989     22.568571     22.568571     45.137141
     -3.978979     23.664616     23.664616     47.329232
     -3.968969     26.186869     26.186869     52.373739
     -3.958959     29.901171     29.901171     59.802342
     -3.948949     34.536035     34.536035     69.072070
     -3.938939     39.792219     39.792219     79.584437
     -3.928929     45.352295     45.352295     90.704590
     -3.918919     50.920113     50.920113    101.840226
     -3.908909     56.273586     56.273586    112.547171
     -3.898899     61.281748     61.281748    122.563496
     -3.888889     65.849183     65.849183    131.698366
     -3.878879     69.801581     69.801581    139.603162
     -3.868869     72.779472     72.779472    145.558943
     -3.858859     74.223875     74.223875    148.447750
     -3.848849     73.501015     73.501015    147.002031
     -3.838839     70.139219     70.139219    140.278439
     -3.828829     64.080176     64.080176    128.160351
     -3.818819     55.821972     55.821972    111.643945
     -3.808809     46.371737     46.371737     92.743474
     -3.798799     37.011769     37.011769     74.023539
     -3.788789     28.966959     28.966959     57.933918
     -3.778779     23.098075     23.098075     46.196151
     -3.768769     19.722128     19.722128     39.444256
     -3.758759     18.600175     18.600175     37.200351
     -3.748749     19.071907     19.071907     38.143814
     -3.738739     20.280052     20.280052     40.560103
     -3.728729     21.418788     21.418788     42.837577
     -3.718719     21.947640     21.947640     43.895279
     -3.708709     21.724936     21.724936     43.449871
     -3.698699     21.029938     21.029938     42.059875
     -3.688689     20.462959     20.462959     40.925917
     -3.678679     20.741134     20.741134     41.482267
     -3.668669     22.441149     22.441149     44.882299
     -3.658659     25.768444     25.768444     51.536887
     -3.648649     30.438314     30.438314     60.876628
     -3.638639     35.724205     35.724205     71.448410
     -3.628629     40.664857     40.664857     81.329715
     -3.618619     44.351761     44.351761     88.703523
     -3.608609     46.181452     46.181452     92.362905
     -3.598599     45.979392     45.979392     91.958783
     -3.588589     43.971057     43.971057     87.942114
     -3.578579     40.646380     40.646380     81.292761
     -3.568569     36.592888     36.592888     73.185776
     -3.558559     32.354211     32.354211     64.708422
     -3.548549     28.334144     28.334144     56.668288
     -3.538539     24.746217     24.746217     49.492433
     -3.528529     21.610900     21.610900     43.221801
     -3.518519     18.806278     18.806278     37.612556
     -3.508509     16.164086     16.164086     32.328172
     -3.498498     13.577402     13.577402     27.154805
     -3.488488     11.073097     11.073097     22.146194
     -3.478478      8.817277      8.817277     17.634554
     -3.468468      7.056110      7.056110     14.112220
     -3.458458      6.022979      6.022979     12.045958
     -3.448448      5.849789      5.849789     11.699578
     -3.438438      6.509493      6.509493     13.018985
     -3.428428      7.803678      7.803678     15.607357
     -3.418418      9.401304      9.401304     18.802608
     -3.408408     10.926883     10.926883     21.853766
     -3.398398     12.080327     12.080327     24.160654
     -3.388388     12.749628     12.749628     25.499256
     -3.378378     13.068021     13.068021     26.136041
     -3.368368     13.383773     13.383773     26.767546
     -3.358358     14.149238     14.149238     28.298475
     -3.348348     15.772792     15.772792     31.545585
     -3.338338     18.487946     18.487946     36.975891
     -3.328328     22.273698     22.273698     44.547397
     -3.318318     26.829889     26.829889     53.659778
     -3.308308     31.597881     31.597881     63.195763
     -3.298298     35.827800     35.827800     71.655599
     -3.288288     38.706815     38.706815     77.413630
     -3.278278     39.549115     39.549115     79.098229
     -3.268268     38.003443     38.003443     76.006885
     -3.258258     34.192608     34.192608     68.385215
     -3.248248     28.705481     28.705481     57.410962
     -3.238238     22.426649     22.426649     44.853298
     -3.228228     16.273063     16.273063     32.546127
     -3.218218     10.952601     10.952601     21.905203
     -3.208208      6.837470      6.837470     13.674940
     -3.198198      3.977278      3.977278      7.954556
     -3.188188      2.211190      2.211190      4.422380
     -3.178178      1.311707      1.311707      2.623414
     -3.168168      1.105692      1.105692      2.211384
     -3.158158      1.547611      1.547611      3.095222
     -3.148148      2.741115      2.741115      5.482231
     -3.138138      4.909935      4.909935      9.819871
     -3.128128      8.316570      8.316570     16.633141
     -3.118118     13.133070     13.133070     26.266139
     -3.108108     19.290437     19.290437     38.580875
     -3.098098     26.363457     26.363457     52.726913
     -3.088088     33.562330     33.562330     67.124660
     -3.078078     39.877445     39.877445     79.754890
     -3.068068     44.356043     44.356043     88.712085
     -3.058058     46.410237     46.410237     92.820475
     -3.048048     46.015892     46.015892     92.031784
     -3.038038     43.698107     43.698107     87.396214
     -3.028028     40.301747     40.301747     80.603494
     -3.018018     36.657188     36.657188     73.314376
     -3.008008     33.304049     33.304049     66.608099
     -2.997998     30.397353     30.397353     60.794706
     -2.987988     27.817330     27.817330     55.634661
     -2.977978     25.399418     25.399418     50.798836
     -2.967968     23.151437     23.151437     46.302874
     -2.957958     21.347642     21.347642     42.695283
     -2.947948     20.460381     20.460381     40.920763
     -2.937938     20.967669     20.967669     41.935339
     -2.927928     23.125399     23.125399     46.250797
     -2.917918     26.802550     26.802550     53.605100
     -2.907908     31.450268     31.450268     62.900537
     -2.897898     36.224092     36.224092     72.448185
     -2.887888     40.220048     40.220048     80.440095
     -2.877878     42.739383     42.739383     85.478767
     -2.867868     43.481913     43.481913     86.963827
     -2.857858     42.593904     42.593904     85.187808
     -2.847848     40.555850     40.555850     81.111700
     -2.837838     37.963499     37.963499     75.926999
     -2.827828     35.300298     35.300298     70.600597
     -2.817818     32.798582     32.798582     65.597164
     -2.807808     30.440069     30.440069     60.880139
     -2.797798     28.076532     28.076532     56.153064
     -2.787788     25.594134     25.594134     51.188268
     -2.777778     23.029074     23.029074     46.058148
     -2.767768     20.575629     20.575629     41.151258
     -2.757758     18.491862     18.491862     36.983724
     -2.747748     16.967377     16.967377     33.934754
     -2.737738     16.037612     16.037612     32.075224
     -2.727728     15.597845     15.597845     31.195690
     -2.717718     15.505314     15.505314     31.010628
     -2.707708     15.699394     15.699394     31.398788
     -2.697698     16.255612     16.255612     32.511224
     -2.687688     17.330987     17.330987     34.661975
     -2.677678     19.030907     19.030907     38.061813
     -2.667668     21.284335     21.284335     42.568670
     -2.657658     23.815205     23.815205     47.630411
     -2.647648     26.239111     26.239111     52.478222
     -2.637638     28.232572     28.232572     56.465143
     -2.627628     29.672501     29.672501     59.345003
     -2.617618     30.661956     30.661956     61.323911
     -2.607608     31.433251     31.433251     62.866503
     -2.597598     32.197556     32.197556     64.395112
     -2.587588     33.034741     33.034741     66.069483
     -2.577578     33.874539     33.874539     67.749078
     -2.567568     34.549334     34.549334     69.098667
     -2.557558     34.859520     34.859520     69.719040
     -2.547548     34.611267     34.611267     69.222534
     -2.537538     33.636635     33.636635     67.273271
     -2.527528     31.833841     31.833841     63.667682
     -2.517518     29.242716     29.242716     58.485432
     -2.507508     26.119590     26.119590     52.239180
     -2.497497     22.946887     22.946887     45.893775
     -2.487487     20.336478     20.336478     40.672957
     -2.477477     18.847738     18.847738     37.695477
     -2.467467     18.797387     18.797387     37.594774
     -2.457457     20.151281     20.151281     40.302562
     -2.447447     22.552049     22.552049     45.104097
     -2.437437     25.472479     25.472479     50.944958
     -2.427427     28.425396     28.425396     56.850791
     -2.417417     31.133599     31.133599     62.267198
     -2.407407     33.581021     33.581021     67.162042
     -2.397397     35.921836     35.921836     71.843673
     -2.387387     38.293399     38.293399     76.586798
     -2.377377     40.628775     40.628775     81.257550
     -2.367367     42.570102     42.570102     85.140205
     -2.357357     43.539928     43.539928     87.079855
     -2.347347     42.952496     42.952496     85.904991
     -2.337337     40.475724     40.475724     80.951448
     -2.327327     36.224046     36.224046     72.448092
     -2.317317     30.791269     30.791269     61.582538
     -2.307307     25.107663     25.107663     50.215326
     -2.297297     20.185250     20.185250     40.370500
     -2.287287     16.856067     16.856067     33.712134
     -2.277277     15.593614     15.593614     31.187227
     -2.267267     16.456818     16.456818     32.913637
     -2.257257     19.143854     19.143854     38.287707
     -2.247247     23.113652     23.113652     46.227303
     -2.237237     27.727312     27.727312     55.454624
     -2.227227     32.369086     32.369086     64.738172
     -2.217217     36.520371     36.520371     73.040743
     -2.207207     39.780209     39.780209     79.560417
     -2.197197     41.850441     41.850441     83.700881
     -2.187187     42.521742     42.521742     85.043485
     -2.177177     41.692697     41.692697     83.385394
     -2.167167     39.423473     39.423473     78.846946
     -2.157157     35.985605     35.985605     71.971210
     -2.147147     31.851286     31.851286     63.702572
     -2.137137     27.590718     27.590718     55.181436
     -2.127127     23.704252     23.704252     47.408504
     -2.117117     20.467365     20.467365     40.934730
     -2.107107     17.870812     17.870812     35.741623
     -2.097097     15.687746     15.687746     31.375491
     -2.087087     13.627273     13.627273     27.254546
     -2.077077     11.488789     11.488789     22.977579
     -2.067067      9.241198      9.241198     18.482396
     -2.057057      7.003528      7.003528     14.007056
     -2.047047      4.959661      4.959661      9.919321
     -2.037037      3.265353      3.265353      6.530706
     -2.027027      1.993034      1.993034      3.986069
     -2.017017      1.127026      1.127026      2.254053
     -2.007007      0.593864      0.593864      1.187728
     -1.996997      0.302852      0.302852      0.605703
     -1.986987      0.178778      0.178778      0.357555
     -1.976977      0.181055      0.181055      0.362110
     -1.966967      0.312063      0.312063      0.624125
     -1.956957      0.618802      0.618802      1.237604
     -1.946947      1.188175      1.188175      2.376350
     -1.936937      2.131890      2.131890      4.263780
     -1.926927      3.556654      3.556654      7.113308
     -1.916917      5.521188      5.521188     11.042376
     -1.906907      7.991563      7.991563     15.983126
     -1.896897     10.814084     10.814084     21.628167
     -1.886887     13.723325     13.723325     27.446651
     -1.876877     16.390210     16.390210     32.780420
     -1.866867     18.497697     18.497697     36.995394
     -1.856857     19.820011     19.820011     39.640022
     -1.846847     20.280675     20.280675     40.561349
     -1.836837     19.971807     19.971807     39.943614
     -1.826827     19.126174     19.126174     38.252349
     -1.816817     18.043844     18.043844     36.087688
     -1.806807     16.990708     16.990708     33.981416
     -1.796797     16.104706     16.104706     32.209412
     -1.786787     15.354123     15.354123     30.708245
     -1.776777     14.576119     14.576119     29.152239
     -1.766767     13.584122     13.584122     27.168243
     -1.756757     12.292408     12.292408     24.584816
     -1.746747     10.793442     10.793442     21.586885
     -1.736737      9.348161      9.348161     18.696322
     -1.726727      8.295181      8.295181     16.590362
     -1.716717      7.923225      7.923225     15.846450
     -1.706707      8.363023      8.363023     16.726045
     -1.696697      9.540861      9.540861     19.081722
     -1.686687     11.207542     11.207542     22.415083
     -1.676677     13.025863     13.025863     26.051725
     -1.666667     14.676317     14.676317     29.352634
     -1.656657     15.934021     15.934021     31.868041
     -1.646647     16.687003     16.687003     33.374007
     -1.636637     16.901734     16.901734     33.803469
     -1.626627     16.574843     16.574843     33.149686
