# EIG2DOS: Utility for SIESTA to obtain the electronic density of states
#  E. Artacho, Apr 1999, A. Garcia, Apr 2012
#  Nick R. Papior, Feb 2017
# ------------------------------------------
# Eigenvalues calculated from a non-polarized calculation
# Eigenvalues read from siesta.EIG
# Kpoint weights read from siesta.KP
# Using smearing parameter:   0.0500
# Using 1000 points in the energy range
# Selected bands: 1 to: 2981
# Emin, Emax in file for selected band(s):    -27.3125115    218.3831520
# Nbands, Nspin, Nk   =   2981     1     1
# E_F                 =    -4.2255 eV --> (shifted to ZERO)
# Broadening          =     0.0500 eV
#
#        E            N(up)  (=)   N(down)         Ntot
     -5.000000     36.196571     36.196571     72.393142
     -4.989990     40.096646     40.096646     80.193292
     -4.979980     43.051554     43.051554     86.103108
     -4.969970     44.590575     44.590575     89.181150
     -4.959960     44.477121     44.477121     88.954242
     -4.949950     42.785829     42.785829     85.571658
     -4.939940     39.891675     39.891675     79.783350
     -4.929930     36.394609     36.394609     72.789217
     -4.919920     33.021321     33.021321     66.042642
     -4.909910     30.529799     30.529799     61.059597
     -4.899900     29.609812     29.609812     59.219623
     -4.889890     30.755541     30.755541     61.511082
     -4.879880     34.107881     34.107881     68.215762
     -4.869870     39.314777     39.314777     78.629554
     -4.859860     45.497994     45.497994     90.995987
     -4.849850     51.400158     51.400158    102.800315
     -4.839840     55.707524     55.707524    111.415048
     -4.829830     57.442567     57.442567    114.885134
     -4.819820     56.263475     56.263475    112.526950
     -4.809810     52.539558     52.539558    105.079116
     -4.799800     47.178896     47.178896     94.357792
     -4.789790     41.302018     41.302018     82.604035
     -4.779780     35.912456     35.912456     71.824911
     -4.769770     31.685270     31.685270     63.370540
     -4.759760     28.910440     28.910440     57.820880
     -4.749750     27.550090     27.550090     55.100180
     -4.739740     27.339144     27.339144     54.678288
     -4.729730     27.877831     27.877831     55.755662
     -4.719720     28.701526     28.701526     57.403052
     -4.709710     29.339478     29.339478     58.678957
     -4.699700     29.378969     29.378969     58.757937
     -4.689690     28.541256     28.541256     57.082513
     -4.679680     26.760119     26.760119     53.520237
     -4.669670     24.240479     24.240479     48.480957
     -4.659660     21.469143     21.469143     42.938286
     -4.649650     19.155480     19.155480     38.310960
     -4.639640     18.096173     18.096173     36.192346
     -4.629630     18.980397     18.980397     37.960793
     -4.619620     22.175250     22.175250     44.350500
     -4.609610     27.552114     27.552114     55.104228
     -4.599600     34.424808     34.424808     68.849616
     -4.589590     41.655427     41.655427     83.310854
     -4.579580     47.932779     47.932779     95.865558
     -4.569570     52.152029     52.152029    104.304058
     -4.559560     53.760471     53.760471    107.520942
     -4.549550     52.927273     52.927273    105.854547
     -4.539540     50.460307     50.460307    100.920614
     -4.529530     47.500922     47.500922     95.001845
     -4.519520     45.120852     45.120852     90.241705
     -4.509510     43.978010     43.978010     87.956019
     -4.499499     44.150629     44.150629     88.301259
     -4.489489     45.187884     45.187884     90.375769
     -4.479479     46.330056     46.330056     92.660112
     -4.469469     46.796543     46.796543     93.593086
     -4.459459     46.031929     46.031929     92.063859
     -4.449449     43.835663     43.835663     87.671326
     -4.439439     40.359666     40.359666     80.719331
     -4.429429     36.012313     36.012313     72.024626
     -4.419419     31.332250     31.332250     62.664501
     -4.409409     26.883165     26.883165     53.766330
     -4.399399     23.184210     23.184210     46.368421
     -4.389389     20.658232     20.658232     41.316463
     -4.379379     19.574990     19.574990     39.149980
     -4.369369     19.990627     19.990627     39.981253
     -4.359359     21.714597     21.714597     43.429195
     -4.349349     24.342234     24.342234     48.684468
     -4.339339     27.363985     27.363985     54.727970
     -4.329329     30.318181     30.318181     60.636363
     -4.319319     32.924261     32.924261     65.848522
     -4.309309     35.138904     35.138904     70.277807
     -4.299299     37.113780     37.113780     74.227560
     -4.289289     39.076406     39.076406     78.152811
     -4.279279     41.182156     41.182156     82.364311
     -4.269269     43.390688     43.390688     86.781375
     -4.259259     45.412325     45.412325     90.824651
     -4.249249     46.755288     46.755288     93.510577
     -4.239239     46.877692     46.877692     93.755384
     -4.229229     45.404513     45.404513     90.809026
     -4.219219     42.324008     42.324008     84.648016
     -4.209209     38.063959     38.063959     76.127918
     -4.199199     33.390692     33.390692     66.781384
     -4.189189     29.160342     29.160342     58.320684
     -4.179179     26.032365     26.032365     52.064731
     -4.169169     24.277846     24.277846     48.555693
     -4.159159     23.765044     23.765044     47.530088
     -4.149149     24.113406     24.113406     48.226813
     -4.139139     24.927080     24.927080     49.854159
     -4.129129     25.987778     25.987778     51.975557
     -4.119119     27.313041     27.313041     54.626082
     -4.109109     29.053687     29.053687     58.107374
     -4.099099     31.285973     31.285973     62.571945
     -4.089089     33.815557     33.815557     67.631115
     -4.079079     36.118105     36.118105     72.236209
     -4.069069     37.478918     37.478918     74.957835
     -4.059059     37.284056     37.284056     74.568112
     -4.049049     35.319413     35.319413     70.638826
     -4.039039     31.917048     31.917048     63.834097
     -4.029029     27.867905     27.867905     55.735809
     -4.019019     24.148616     24.148616     48.297233
     -4.009009     21.604886     21.604886     43.209771
     -3.998999     20.738350     20.738350     41.476700
     -3.988989     21.665482     21.665482     43.330965
     -3.978979     24.215631     24.215631     48.431261
     -3.968969     28.075993     28.075993     56.151987
     -3.958959     32.901024     32.901024     65.802047
     -3.948949     38.359521     38.359521     76.719042
     -3.938939     44.144988     44.144988     88.289977
     -3.928929     49.986260     49.986260     99.972520
     -3.918919     55.666924     55.666924    111.333847
     -3.908909     61.028024     61.028024    122.056047
     -3.898899     65.925102     65.925102    131.850205
     -3.888889     70.144338     70.144338    140.288676
     -3.878879     73.325963     73.325963    146.651925
     -3.868869     74.959245     74.959245    149.918490
     -3.858859     74.485471     74.485471    148.970943
     -3.848849     71.488300     71.488300    142.976601
     -3.838839     65.898133     65.898133    131.796266
     -3.828829     58.118671     58.118671    116.237341
     -3.818819     49.009802     49.009802     98.019604
     -3.808809     39.718524     39.718524     79.437048
     -3.798799     31.410895     31.410895     62.821790
     -3.788789     24.994941     24.994941     49.989882
     -3.778779     20.922818     20.922818     41.845636
     -3.768769     19.126187     19.126187     38.252375
     -3.758759     19.091332     19.091332     38.182664
     -3.748749     20.040408     20.040408     40.080817
     -3.738739     21.163131     21.163131     42.326262
     -3.728729     21.838878     21.838878     43.677757
     -3.718719     21.796890     21.796890     43.593779
     -3.708709     21.176923     21.176923     42.353846
     -3.698699     20.472848     20.472848     40.945695
     -3.688689     20.367538     20.367538     40.735076
     -3.678679     21.497873     21.497873     42.995746
     -3.668669     24.216788     24.216788     48.433577
     -3.658659     28.432377     28.432377     56.864753
     -3.648649     33.588478     33.588478     67.176955
     -3.638639     38.803766     38.803766     77.607533
     -3.628629     43.122601     43.122601     86.245201
     -3.618619     45.782483     45.782483     91.564967
     -3.608609     46.399055     46.399055     92.798111
     -3.598599     45.014002     45.014002     90.028005
     -3.588589     42.016251     42.016251     84.032502
     -3.578579     37.992227     37.992227     75.984453
     -3.568569     33.565796     33.565796     67.131592
     -3.558559     29.265184     29.265184     58.530369
     -3.548549     25.431888     25.431888     50.863777
     -3.538539     22.181225     22.181225     44.362450
     -3.528529     19.425721     19.425721     38.851442
     -3.518519     16.961543     16.961543     33.923086
     -3.508509     14.591381     14.591381     29.182761
     -3.498498     12.233873     12.233873     24.467745
     -3.488488      9.972111      9.972111     19.944223
     -3.478478      8.024040      8.024040     16.048080
     -3.468468      6.654987      6.654987     13.309974
     -3.458458      6.073354      6.073354     12.146708
     -3.448448      6.347873      6.347873     12.695746
     -3.438438      7.370423      7.370423     14.740847
     -3.428428      8.875544      8.875544     17.751087
     -3.418418     10.518037     10.518037     21.036074
     -3.408408     11.995296     11.995296     23.990591
     -3.398398     13.178427     13.178427     26.356854
     -3.388388     14.197674     14.197674     28.395347
     -3.378378     15.431918     15.431918     30.863835
     -3.368368     17.387159     17.387159     34.774318
     -3.358358     20.500365     20.500365     41.000729
     -3.348348     24.943616     24.943616     49.887231
     -3.338338     30.505377     30.505377     61.010753
     -3.328328     36.590899     36.590899     73.181798
     -3.318318     42.335528     42.335528     84.671055
     -3.308308     46.791128     46.791128     93.582256
     -3.298298     49.137898     49.137898     98.275797
     -3.288288     48.879763     48.879763     97.759525
     -3.278278     45.983677     45.983677     91.967353
     -3.268268     40.920254     40.920254     81.840508
     -3.258258     34.572972     34.572972     69.145943
     -3.248248     28.020661     28.020661     56.041322
     -3.238238     22.252439     22.252439     44.504877
     -3.228228     17.912671     17.912671     35.825342
     -3.218218     15.168076     15.168076     30.336151
     -3.208208     13.739881     13.739881     27.479761
     -3.198198     13.077687     13.077687     26.155373
     -3.188188     12.600568     12.600568     25.201136
     -3.178178     11.914780     11.914780     23.829560
     -3.168168     10.937653     10.937653     21.875305
     -3.158158      9.900613      9.900613     19.801226
     -3.148148      9.249362      9.249362     18.498723
     -3.138138      9.486628      9.486628     18.973255
     -3.128128     11.006079     11.006079     22.012157
     -3.118118     13.954430     13.954430     27.908859
     -3.108108     18.148432     18.148432     36.296864
     -3.098098     23.070216     23.070216     46.140432
     -3.088088     27.958287     27.958287     55.916575
     -3.078078     31.987724     31.987724     63.975447
     -3.068068     34.492261     34.492261     68.984522
     -3.058058     35.146423     35.146423     70.292845
     -3.048048     34.028783     34.028783     68.057565
     -3.038038     31.538882     31.538882     63.077765
     -3.028028     28.215011     28.215011     56.430022
     -3.018018     24.550331     24.550331     49.100662
     -3.008008     20.896111     20.896111     41.792222
     -2.997998     17.479887     17.479887     34.959774
     -2.987988     14.496379     14.496379     28.992758
     -2.977978     12.195136     12.195136     24.390272
     -2.967968     10.904955     10.904955     21.809910
     -2.957958     10.979451     10.979451     21.958902
     -2.947948     12.688109     12.688109     25.376218
     -2.937938     16.095535     16.095535     32.191070
     -2.927928     20.972247     20.972247     41.944494
     -2.917918     26.773168     26.773168     53.546335
     -2.907908     32.707059     32.707059     65.414119
     -2.897898     37.896211     37.896211     75.792421
     -2.887888     41.590525     41.590525     83.181050
     -2.877878     43.367014     43.367014     86.734029
     -2.867868     43.235972     43.235972     86.471944
     -2.857858     41.602962     41.602962     83.205925
     -2.847848     39.094953     39.094953     78.189905
     -2.837838     36.322030     36.322030     72.644061
     -2.827828     33.678676     33.678676     67.357352
     -2.817818     31.269507     31.269507     62.539013
     -2.807808     28.980890     28.980890     57.961781
     -2.797798     26.645399     26.645399     53.290799
     -2.787788     24.201997     24.201997     48.403993
     -2.777778     21.765584     21.765584     43.531168
     -2.767768     19.577938     19.577938     39.155876
     -2.757758     17.883148     17.883148     35.766296
     -2.747748     16.812194     16.812194     33.624389
     -2.737738     16.348690     16.348690     32.697380
     -2.727728     16.389494     16.389494     32.778988
     -2.717718     16.847857     16.847857     33.695714
     -2.707708     17.717494     17.717494     35.434988
     -2.697698     19.045401     19.045401     38.090802
     -2.687688     20.830928     20.830928     41.661855
     -2.677678     22.929628     22.929628     45.859256
     -2.667668     25.046143     25.046143     50.092286
     -2.657658     26.841925     26.841925     53.683850
     -2.647648     28.099916     28.099916     56.199831
     -2.637638     28.840528     28.840528     57.681057
     -2.627628     29.309184     29.309184     58.618367
     -2.617618     29.838888     29.838888     59.677776
     -2.607608     30.671644     30.671644     61.343288
     -2.597598     31.841931     31.841931     63.683861
     -2.587588     33.173999     33.173999     66.347997
     -2.577578     34.366941     34.366941     68.733882
     -2.567568     35.098234     35.098234     70.196468
     -2.557558     35.094007     35.094007     70.188014
     -2.547548     34.165588     34.165588     68.331176
     -2.537538     32.244894     32.244894     64.489789
     -2.527528     29.437391     29.437391     58.874783
     -2.517518     26.068789     26.068789     52.137578
     -2.507508     22.674645     22.674645     45.349290
     -2.497497     19.899266     19.899266     39.798533
     -2.487487     18.321338     18.321338     36.642675
     -2.477477     18.272039     18.272039     36.544078
     -2.467467     19.725291     19.725291     39.450582
     -2.457457     22.312274     22.312274     44.624548
     -2.447447     25.459513     25.459513     50.919026
     -2.437437     28.596559     28.596559     57.193119
     -2.427427     31.348031     31.348031     62.696062
     -2.417417     33.628586     33.628586     67.257172
     -2.407407     35.598444     35.598444     71.196888
     -2.397397     37.497188     37.497188     74.994375
     -2.387387     39.430877     39.430877     78.861754
     -2.377377     41.216576     41.216576     82.433152
     -2.367367     42.371917     42.371917     84.743834
     -2.357357     42.274866     42.274866     84.549733
     -2.347347     40.433883     40.433883     80.867767
     -2.337337     36.744710     36.744710     73.489421
     -2.327327     31.608261     31.608261     63.216522
     -2.317317     25.851974     25.851974     51.703949
     -2.307307     20.495617     20.495617     40.991233
     -2.297297     16.471193     16.471193     32.942386
     -2.287287     14.408060     14.408060     28.816119
     -2.277277     14.540160     14.540160     29.080319
     -2.267267     16.727299     16.727299     33.454598
     -2.257257     20.545316     20.545316     41.090631
     -2.247247     25.398603     25.398603     50.797205
     -2.237237     30.625464     30.625464     61.250928
     -2.227227     35.582952     35.582952     71.165904
     -2.217217     39.707165     39.707165     79.414331
     -2.207207     42.551859     42.551859     85.103718
     -2.197197     43.815525     43.815525     87.631049
     -2.187187     43.369772     43.369772     86.739543
     -2.177177     41.292020     41.292020     82.584039
     -2.167167     37.884764     37.884764     75.769527
     -2.157157     33.647893     33.647893     67.295786
     -2.147147     29.179945     29.179945     58.359889
     -2.137137     25.022761     25.022761     50.045521
     -2.127127     21.508967     21.508967     43.017933
     -2.117117     18.686908     18.686908     37.373816
     -2.107107     16.364297     16.364297     32.728593
     -2.097097     14.247481     14.247481     28.494962
     -2.087087     12.101186     12.101186     24.202372
     -2.077077      9.848834      9.848834     19.697669
     -2.067067      7.576067      7.576067     15.152134
     -2.057057      5.457533      5.457533     10.915065
     -2.047047      3.661719      3.661719      7.323438
     -2.037037      2.285118      2.285118      4.570235
     -2.027027      1.337486      1.337486      2.674973
     -2.017017      0.769195      0.769195      1.538391
     -2.007007      0.516729      0.516729      1.033457
     -1.996997      0.544545      0.544545      1.089090
     -1.986987      0.871084      0.871084      1.742169
     -1.976977      1.574146      1.574146      3.148293
     -1.966967      2.773550      2.773550      5.547099
     -1.956957      4.590706      4.590706      9.181411
     -1.946947      7.090659      7.090659     14.181319
     -1.936937     10.222803     10.222803     20.445607
     -1.926927     13.785703     13.785703     27.571406
     -1.916917     17.439877     17.439877     34.879754
     -1.906907     20.775143     20.775143     41.550287
     -1.896897     23.412432     23.412432     46.824864
     -1.886887     25.099647     25.099647     50.199295
     -1.876877     25.762292     25.762292     51.524585
     -1.866867     25.493790     25.493790     50.987581
     -1.856857     24.502242     24.502242     49.004483
     -1.846847     23.047244     23.047244     46.094487
     -1.836837     21.391390     21.391390     42.782781
     -1.826827     19.766880     19.766880     39.533759
     -1.816817     18.342417     18.342417     36.684835
     -1.806807     17.184480     17.184480     34.368960
     -1.796797     16.230665     16.230665     32.461329
     -1.786787     15.304934     15.304934     30.609869
     -1.776777     14.187355     14.187355     28.374710
     -1.766767     12.714167     12.714167     25.428334
     -1.756757     10.857928     10.857928     21.715857
     -1.746747      8.745271      8.745271     17.490541
     -1.736737      6.606970      6.606970     13.213940
     -1.726727      4.693792      4.693792      9.387585
     -1.716717      3.205110      3.205110      6.410220
     -1.706707      2.260177      2.260177      4.520354
     -1.696697      1.910279      1.910279      3.820557
     -1.686687      2.165908      2.165908      4.331816
     -1.676677      3.009414      3.009414      6.018827
     -1.666667      4.379132      4.379132      8.758265
     -1.656657      6.135249      6.135249     12.270497
     -1.646647      8.036685      8.036685     16.073370
     -1.636637      9.760483      9.760483     19.520966
     -1.626627     10.976295     10.976295     21.952590
