# EIG2DOS: Utility for SIESTA to obtain the electronic density of states
#  E. Artacho, Apr 1999, A. Garcia, Apr 2012
#  Nick R. Papior, Feb 2017
# ------------------------------------------
# Eigenvalues calculated from a non-polarized calculation
# Eigenvalues read from siesta.EIG
# Kpoint weights read from siesta.KP
# Using smearing parameter:   0.0500
# Using 1000 points in the energy range
# Selected bands: 1 to: 2981
# Emin, Emax in file for selected band(s):    -27.0979414    218.3398960
# Nbands, Nspin, Nk   =   2981     1     1
# E_F                 =    -4.2688 eV --> (shifted to ZERO)
# Broadening          =     0.0500 eV
#
#        E            N(up)  (=)   N(down)         Ntot
     -5.000000     34.934845     34.934845     69.869689
     -4.989990     38.313414     38.313414     76.626829
     -4.979980     41.048147     41.048147     82.096294
     -4.969970     42.734829     42.734829     85.469657
     -4.959960     43.113710     43.113710     86.227420
     -4.949950     42.138454     42.138454     84.276909
     -4.939940     39.999635     39.999635     79.999270
     -4.929930     37.103841     37.103841     74.207681
     -4.919920     34.025406     34.025406     68.050812
     -4.909910     31.444890     31.444890     62.889780
     -4.899900     30.069433     30.069433     60.138865
     -4.889890     30.513768     30.513768     61.027536
     -4.879880     33.130822     33.130822     66.261643
     -4.869870     37.825067     37.825067     75.650133
     -4.859860     43.935259     43.935259     87.870519
     -4.849850     50.288280     50.288280    100.576559
     -4.839840     55.469057     55.469057    110.938114
     -4.829830     58.239475     58.239475    116.478951
     -4.819820     57.938873     57.938873    115.877746
     -4.809810     54.683806     54.683806    109.367611
     -4.799800     49.277024     49.277024     98.554049
     -4.789790     42.881970     42.881970     85.763939
     -4.779780     36.627230     36.627230     73.254460
     -4.769770     31.312095     31.312095     62.624191
     -4.759760     27.299907     27.299907     54.599813
     -4.749750     24.578224     24.578224     49.156449
     -4.739740     22.901210     22.901210     45.802420
     -4.729730     21.930335     21.930335     43.860669
     -4.719720     21.328766     21.328766     42.657532
     -4.709710     20.805666     20.805666     41.611333
     -4.699700     20.130309     20.130309     40.260617
     -4.689690     19.142099     19.142099     38.284198
     -4.679680     17.775742     17.775742     35.551485
     -4.669670     16.103744     16.103744     32.207489
     -4.659660     14.377576     14.377576     28.755152
     -4.649650     13.035968     13.035968     26.071936
     -4.639640     12.652899     12.652899     25.305798
     -4.629630     13.817343     13.817343     27.634686
     -4.619620     16.962529     16.962529     33.925058
     -4.609610     22.186657     22.186657     44.373315
     -4.599600     29.125590     29.125590     58.251179
     -4.589590     36.943212     36.943212     73.886425
     -4.579580     44.483449     44.483449     88.966899
     -4.569570     50.571835     50.571835    101.143669
     -4.559560     54.379890     54.379890    108.759780
     -4.549550     55.711800     55.711800    111.423600
     -4.539540     55.080200     55.080200    110.160401
     -4.529530     53.516286     53.516286    107.032572
     -4.519520     52.176237     52.176237    104.352473
     -4.509510     51.902180     51.902180    103.804361
     -4.499499     52.920141     52.920141    105.840282
     -4.489489     54.794989     54.794989    109.589977
     -4.479479     56.644281     56.644281    113.288561
     -4.469469     57.499551     57.499551    114.999103
     -4.459459     56.652107     56.652107    113.304214
     -4.449449     53.851789     53.851789    107.703577
     -4.439439     49.315619     49.315619     98.631239
     -4.429429     43.594369     43.594369     87.188739
     -4.419419     37.390905     37.390905     74.781810
     -4.409409     31.410425     31.410425     62.820850
     -4.399399     26.271543     26.271543     52.543087
     -4.389389     22.458531     22.458531     44.917062
     -4.379379     20.279597     20.279597     40.559193
     -4.369369     19.817664     19.817664     39.635327
     -4.359359     20.895723     20.895723     41.791447
     -4.349349     23.096743     23.096743     46.193485
     -4.339339     25.861024     25.861024     51.722049
     -4.329329     28.641737     28.641737     57.283473
     -4.319319     31.061344     31.061344     62.122688
     -4.309309     33.004526     33.004526     66.009052
     -4.299299     34.611012     34.611012     69.222024
     -4.289289     36.175085     36.175085     72.350171
     -4.279279     37.991693     37.991693     75.983386
     -4.269269     40.200745     40.200745     80.401490
     -4.259259     42.678222     42.678222     85.356445
     -4.249249     45.015132     45.015132     90.030265
     -4.239239     46.610277     46.610277     93.220553
     -4.229229     46.868051     46.868051     93.736102
     -4.219219     45.439189     45.439189     90.878379
     -4.209209     42.399254     42.399254     84.798509
     -4.199199     38.267123     38.267123     76.534246
     -4.189189     33.837107     33.837107     67.674215
     -4.179179     29.897646     29.897646     59.795292
     -4.169169     26.972445     26.972445     53.944890
     -4.159159     25.204063     25.204063     50.408127
     -4.149149     24.417722     24.417722     48.835443
     -4.139139     24.309028     24.309028     48.618055
     -4.129129     24.646253     24.646253     49.292506
     -4.119119     25.384110     25.384110     50.768221
     -4.109109     26.637028     26.637028     53.274056
     -4.099099     28.529116     28.529116     57.058232
     -4.089089     31.000640     31.000640     62.001281
     -4.079079     33.682870     33.682870     67.365740
     -4.069069     35.932474     35.932474     71.864949
     -4.059059     37.039703     37.039703     74.079406
     -4.049049     36.524197     36.524197     73.048393
     -4.039039     34.369274     34.369274     68.738548
     -4.029029     31.067837     31.067837     62.135673
     -4.019019     27.454247     27.454247     54.908494
     -4.009009     24.413438     24.413438     48.826876
     -3.998999     22.615553     22.615553     45.231107
     -3.988989     22.389132     22.389132     44.778264
     -3.978979     23.750534     23.750534     47.501069
     -3.968969     26.520975     26.520975     53.041951
     -3.958959     30.438769     30.438769     60.877539
     -3.948949     35.215672     35.215672     70.431343
     -3.938939     40.548769     40.548769     81.097538
     -3.928929     46.131542     46.131542     92.263084
     -3.918919     51.689762     51.689762    103.379523
     -3.908909     57.023665     57.023665    114.047330
     -3.898899     62.010933     62.010933    124.021865
     -3.888889     66.541812     66.541812    133.083624
     -3.878879     70.407927     70.407927    140.815853
     -3.868869     73.213019     73.213019    146.426038
     -3.858859     74.381794     74.381794    148.763587
     -3.848849     73.301369     73.301369    146.602738
     -3.838839     69.558361     69.558361    139.116722
     -3.828829     63.172573     63.172573    126.345145
     -3.818819     54.712948     54.712948    109.425895
     -3.808809     45.226179     45.226179     90.452358
     -3.798799     35.991602     35.991602     71.983203
     -3.788789     28.192701     28.192701     56.385402
     -3.778779     22.625617     22.625617     45.251233
     -3.768769     19.538644     19.538644     39.077289
     -3.758759     18.636923     18.636923     37.273845
     -3.748749     19.228257     19.228257     38.456514
     -3.738739     20.452206     20.452206     40.904412
     -3.728729     21.526863     21.526863     43.053727
     -3.718719     21.955434     21.955434     43.910868
     -3.708709     21.647798     21.647798     43.295595
     -3.698699     20.928185     20.928185     41.856370
     -3.688689     20.421550     20.421550     40.843101
     -3.678679     20.840414     20.840414     41.680827
     -3.668669     22.727289     22.727289     45.454577
     -3.658659     26.233853     26.233853     52.467705
     -3.648649     31.019967     31.019967     62.039934
     -3.638639     36.321267     36.321267     72.642534
     -3.628629     41.168716     41.168716     82.337431
     -3.618619     44.676021     44.676021     89.352042
     -3.608609     46.280397     46.280397     92.560793
     -3.598599     45.850415     45.850415     91.700829
     -3.588589     43.644939     43.644939     87.289878
     -3.578579     40.173441     40.173441     80.346883
     -3.568569     36.031166     36.031166     72.062332
     -3.558559     31.760964     31.760964     63.521928
     -3.548549     27.758977     27.758977     55.517955
     -3.538539     24.224945     24.224945     48.449890
     -3.528529     21.161806     21.161806     42.323611
     -3.518519     18.431213     18.431213     36.862425
     -3.508509     15.854730     15.854730     31.709460
     -3.498498     13.323827     13.323827     26.647654
     -3.488488     10.870438     10.870438     21.740875
     -3.478478      8.667724      8.667724     17.335447
     -3.468468      6.966197      6.966197     13.932394
     -3.458458      5.998214      5.998214     11.996428
     -3.448448      5.889142      5.889142     11.778283
     -3.438438      6.601776      6.601776     13.203552
     -3.428428      7.927280      7.927280     15.854560
     -3.418418      9.528129      9.528129     19.056259
     -3.408408     11.030241     11.030241     22.060481
     -3.398398     12.144702     12.144702     24.289404
     -3.388388     12.778787     12.778787     25.557574
     -3.378378     13.087962     13.087962     26.175924
     -3.368368     13.438961     13.438961     26.877922
     -3.358358     14.293111     14.293111     28.586222
     -3.348348     16.054882     16.054882     32.109764
     -3.338338     18.939619     18.939619     37.879237
     -3.328328     22.893941     22.893941     45.787882
     -3.318318     27.573685     27.573685     55.147370
     -3.308308     32.372554     32.372554     64.745108
     -3.298298     36.504110     36.504110     73.008219
     -3.288288     39.147783     39.147783     78.295565
     -3.278278     39.650310     39.650310     79.300620
     -3.268268     37.729136     37.729136     75.458272
     -3.258258     33.590372     33.590372     67.180744
     -3.248248     27.890901     27.890901     55.781803
     -3.238238     21.544893     21.544893     43.089786
     -3.228228     15.455469     15.455469     30.910938
     -3.218218     10.287134     10.287134     20.574267
     -3.208208      6.362855      6.362855     12.725710
     -3.198198      3.698937      3.698937      7.397874
     -3.188188      2.129722      2.129722      4.259444
     -3.178178      1.453266      1.453266      2.906532
     -3.168168      1.544975      1.544975      3.089949
     -3.158158      2.414408      2.414408      4.828816
     -3.148148      4.200525      4.200525      8.401050
     -3.138138      7.109084      7.109084     14.218168
     -3.128128     11.302803     11.302803     22.605605
     -3.118118     16.769711     16.769711     33.539421
     -3.108108     23.215591     23.215591     46.431181
     -3.098098     30.036814     30.036814     60.073628
     -3.088088     36.412869     36.412869     72.825739
     -3.078078     41.509794     41.509794     83.019588
     -3.068068     44.725713     44.725713     89.451425
     -3.058058     45.872548     45.872548     91.745096
     -3.048048     45.203058     45.203058     90.406115
     -3.038038     43.261995     43.261995     86.523991
     -3.028028     40.631612     40.631612     81.263224
     -3.018018     37.702006     37.702006     75.404012
     -3.008008     34.585081     34.585081     69.170163
     -2.997998     31.208672     31.208672     62.417344
     -2.987988     27.523460     27.523460     55.046921
     -2.977978     23.694809     23.694809     47.389619
     -2.967968     20.169719     20.169719     40.339437
     -2.957958     17.586482     17.586482     35.172965
     -2.947948     16.576336     16.576336     33.152672
     -2.937938     17.546238     17.546238     35.092476
     -2.927928     20.522689     20.522689     41.045379
     -2.917918     25.102116     25.102116     50.204232
     -2.907908     30.519349     30.519349     61.038699
     -2.897898     35.818918     35.818918     71.637836
     -2.887888     40.088383     40.088383     80.176766
     -2.877878     42.688337     42.688337     85.376674
     -2.867868     43.402889     43.402889     86.805779
     -2.857858     42.453216     42.453216     84.906433
     -2.847848     40.366497     40.366497     80.732994
     -2.837838     37.753529     37.753529     75.507058
     -2.827828     35.089383     35.089383     70.178766
     -2.817818     32.588870     32.588870     65.177740
     -2.807808     30.221118     30.221118     60.442236
     -2.797798     27.838520     27.838520     55.677040
     -2.787788     25.340474     25.340474     50.680947
     -2.777778     22.780724     22.780724     45.561448
     -2.767768     20.364701     20.364701     40.729403
     -2.757758     18.348987     18.348987     36.697973
     -2.747748     16.911638     16.911638     33.823276
     -2.737738     16.076552     16.076552     32.153103
     -2.727728     15.738112     15.738112     31.476225
     -2.717718     15.765941     15.765941     31.531881
     -2.707708     16.115260     16.115260     32.230520
     -2.697698     16.862671     16.862671     33.725341
     -2.687688     18.136382     18.136382     36.272764
     -2.677678     19.983760     19.983760     39.967520
     -2.667668     22.267783     22.267783     44.535566
     -2.657658     24.671790     24.671790     49.343580
     -2.647648     26.822965     26.822965     53.645930
     -2.637638     28.464205     28.464205     56.928409
     -2.627628     29.567869     29.567869     59.135738
     -2.617618     30.321079     30.321079     60.642159
     -2.607608     30.996406     30.996406     61.992812
     -2.597598     31.793394     31.793394     63.586787
     -2.587588     32.744214     32.744214     65.488428
     -2.577578     33.719948     33.719948     67.439896
     -2.567568     34.502298     34.502298     69.004596
     -2.557558     34.856508     34.856508     69.713015
     -2.547548     34.570929     34.570929     69.141859
     -2.537538     33.480299     33.480299     66.960599
     -2.527528     31.510404     31.510404     63.020808
     -2.517518     28.752121     28.752121     57.504243
     -2.507508     25.523086     25.523086     51.046173
     -2.497497     22.354848     22.354848     44.709696
     -2.487487     19.875276     19.875276     39.750552
     -2.477477     18.618624     18.618624     37.237248
     -2.467467     18.844742     18.844742     37.689483
     -2.457457     20.452780     20.452780     40.905561
     -2.447447     23.032768     23.032768     46.065536
     -2.437437     26.034632     26.034632     52.069265
     -2.427427     28.979852     28.979852     57.959704
     -2.417417     31.620350     31.620350     63.240699
     -2.407407     33.972280     33.972280     67.944561
     -2.397397     36.210106     36.210106     72.420212
     -2.387387     38.473411     38.473411     76.946822
     -2.377377     40.683906     40.683906     81.367813
     -2.367367     42.470495     42.470495     84.940991
     -2.357357     43.253372     43.253372     86.506743
     -2.347347     42.462890     42.462890     84.925779
     -2.337337     39.800088     39.800088     79.600176
     -2.327327     35.419179     35.419179     70.838359
     -2.317317     29.945649     29.945649     59.891297
     -2.307307     24.321208     24.321208     48.642416
     -2.297297     19.545450     19.545450     39.090900
     -2.287287     16.420235     16.420235     32.840471
     -2.277277     15.383120     15.383120     30.766239
     -2.267267     16.462765     16.462765     32.925531
     -2.257257     19.338615     19.338615     38.677230
     -2.247247     23.461276     23.461276     46.922552
     -2.237237     28.188049     28.188049     56.376098
     -2.227227     32.897564     32.897564     65.795128
     -2.217217     37.061176     37.061176     74.122352
     -2.207207     40.266778     40.266778     80.533555
     -2.197197     42.212011     42.212011     84.424023
     -2.187187     42.698726     42.698726     85.397453
     -2.177177     41.655280     41.655280     83.310561
     -2.167167     39.184592     39.184592     78.369184
     -2.157157     35.600317     35.600317     71.200634
     -2.147147     31.400243     31.400243     62.800486
     -2.137137     27.153389     27.153389     54.306777
     -2.127127     23.333336     23.333336     46.666671
     -2.117117     20.175839     20.175839     40.351678
     -2.107107     17.636782     17.636782     35.273564
     -2.097097     15.473153     15.473153     30.946306
     -2.087087     13.399923     13.399923     26.799846
     -2.077077     11.236853     11.236853     22.473707
     -2.067067      8.974902      8.974902     17.949804
     -2.057057      6.746235      6.746235     13.492471
     -2.047047      4.735284      4.735284      9.470568
     -2.037037      3.088930      3.088930      6.177860
     -2.027027      1.867685      1.867685      3.735371
     -2.017017      1.046435      1.046435      2.092869
     -2.007007      0.547257      0.547257      1.094514
     -1.996997      0.279673      0.279673      0.559346
     -1.986987      0.171694      0.171694      0.343387
     -1.976977      0.187329      0.187329      0.374659
     -1.966967      0.333889      0.333889      0.667777
     -1.956957      0.662946      0.662946      1.325892
     -1.946947      1.264735      1.264735      2.529470
     -1.936937      2.251661      2.251661      4.503322
     -1.926927      3.726944      3.726944      7.453887
     -1.916917      5.740922      5.740922     11.481844
     -1.906907      8.247635      8.247635     16.495270
     -1.896897     11.081235     11.081235     22.162470
     -1.886887     13.968812     13.968812     27.937625
     -1.876877     16.582515     16.582515     33.165029
     -1.866867     18.616881     18.616881     37.233762
     -1.856857     19.867300     19.867300     39.734601
     -1.846847     20.286621     20.286621     40.573243
     -1.836837     20.004603     20.004603     40.009207
     -1.826827     19.302495     19.302495     38.604989
     -1.816817     18.542558     18.542558     37.085117
     -1.806807     18.064655     18.064655     36.129309
     -1.796797     18.078783     18.078783     36.157565
     -1.786787     18.592951     18.592951     37.185902
     -1.776777     19.407361     19.407361     38.814722
     -1.766767     20.178889     20.178889     40.357778
     -1.756757     20.530045     20.530045     41.060090
     -1.746747     20.162082     20.162082     40.324164
     -1.736737     18.937704     18.937704     37.875409
     -1.726727     16.915616     16.915616     33.831233
     -1.716717     14.335133     14.335133     28.670266
     -1.706707     11.560025     11.560025     23.120051
     -1.696697      8.998205      8.998205     17.996409
     -1.686687      7.017667      7.017667     14.035334
     -1.676677      5.876627      5.876627     11.753254
     -1.666667      5.677343      5.677343     11.354686
     -1.656657      6.345435      6.345435     12.690870
     -1.646647      7.636176      7.636176     15.272353
     -1.636637      9.174330      9.174330     18.348660
     -1.626627     10.533918     10.533918     21.067836
