# EIG2DOS: Utility for SIESTA to obtain the electronic density of states
#  E. Artacho, Apr 1999, A. Garcia, Apr 2012
#  Nick R. Papior, Feb 2017
# ------------------------------------------
# Eigenvalues calculated from a non-polarized calculation
# Eigenvalues read from siesta.EIG
# Kpoint weights read from siesta.KP
# Using smearing parameter:   0.0500
# Using 1000 points in the energy range
# Selected bands: 1 to: 2981
# Emin, Emax in file for selected band(s):    -27.2915408    218.4018380
# Nbands, Nspin, Nk   =   2981     1     1
# E_F                 =    -4.1916 eV --> (shifted to ZERO)
# Broadening          =     0.0500 eV
#
#        E            N(up)  (=)   N(down)         Ntot
     -5.000000     31.410092     31.410092     62.820184
     -4.989990     36.691504     36.691504     73.383007
     -4.979980     41.725973     41.725973     83.451946
     -4.969970     45.626302     45.626302     91.252604
     -4.959960     47.639805     47.639805     95.279611
     -4.949950     47.400602     47.400602     94.801204
     -4.939940     45.055996     45.055996     90.111991
     -4.929930     41.230653     41.230653     82.461306
     -4.919920     36.866790     36.866790     73.733580
     -4.909910     33.014111     33.014111     66.028222
     -4.899900     30.626992     30.626992     61.253983
     -4.889890     30.387626     30.387626     60.775252
     -4.879880     32.555791     32.555791     65.111583
     -4.869870     36.865201     36.865201     73.730403
     -4.859860     42.517544     42.517544     85.035088
     -4.849850     48.324686     48.324686     96.649372
     -4.839840     52.997414     52.997414    105.994829
     -4.829830     55.500749     55.500749    111.001497
     -4.819820     55.344336     55.344336    110.688671
     -4.809810     52.691749     52.691749    105.383497
     -4.799800     48.251408     48.251408     96.502816
     -4.789790     43.009648     43.009648     86.019296
     -4.779780     37.927667     37.927667     75.855334
     -4.769770     33.718361     33.718361     67.436721
     -4.759760     30.758188     30.758188     61.516376
     -4.749750     29.115344     29.115344     58.230688
     -4.739740     28.631429     28.631429     57.262858
     -4.729730     28.996800     28.996800     57.993600
     -4.719720     29.796709     29.796709     59.593419
     -4.709710     30.546125     30.546125     61.092250
     -4.699700     30.748898     30.748898     61.497795
     -4.689690     30.001677     30.001677     60.003354
     -4.679680     28.125608     28.125608     56.251216
     -4.669670     25.275093     25.275093     50.550185
     -4.659660     21.967141     21.967141     43.934282
     -4.649650     19.002202     19.002202     38.004405
     -4.639640     17.289393     17.289393     34.578786
     -4.629630     17.619925     17.619925     35.239849
     -4.619620     20.442121     20.442121     40.884241
     -4.609610     25.690163     25.690163     51.380325
     -4.599600     32.719123     32.719123     65.438246
     -4.589590     40.394123     40.394123     80.788246
     -4.579580     47.349792     47.349792     94.699584
     -4.569570     52.369332     52.369332    104.738665
     -4.559560     54.758659     54.758659    109.517319
     -4.549550     54.562204     54.562204    109.124409
     -4.539540     52.517085     52.517085    105.034169
     -4.529530     49.754494     49.754494     99.508988
     -4.519520     47.371352     47.371352     94.742704
     -4.509510     46.049328     46.049328     92.098657
     -4.499499     45.867660     45.867660     91.735320
     -4.489489     46.362878     46.362878     92.725756
     -4.479479     46.782173     46.782173     93.564346
     -4.469469     46.405868     46.405868     92.811737
     -4.459459     44.804487     44.804487     89.608974
     -4.449449     41.943832     41.943832     83.887663
     -4.439439     38.129738     38.129738     76.259476
     -4.429429     33.854018     33.854018     67.708037
     -4.419419     29.632381     29.632381     59.264762
     -4.409409     25.903271     25.903271     51.806541
     -4.399399     23.001407     23.001407     46.002813
     -4.389389     21.168579     21.168579     42.337157
     -4.379379     20.550814     20.550814     41.101628
     -4.369369     21.161530     21.161530     42.323061
     -4.359359     22.837722     22.837722     45.675445
     -4.349349     25.240843     25.240843     50.481686
     -4.339339     27.934698     27.934698     55.869395
     -4.329329     30.523133     30.523133     61.046267
     -4.319319     32.786636     32.786636     65.573272
     -4.309309     34.748822     34.748822     69.497643
     -4.299299     36.634286     36.634286     73.268572
     -4.289289     38.728215     38.728215     77.456431
     -4.279279     41.191054     41.191054     82.382108
     -4.269269     43.903933     43.903933     87.807866
     -4.259259     46.417808     46.417808     92.835615
     -4.249249     48.049030     48.049030     96.098060
     -4.239239     48.108066     48.108066     96.216132
     -4.229229     46.181963     46.181963     92.363925
     -4.219219     42.348509     42.348509     84.697018
     -4.209209     37.214217     37.214217     74.428433
     -4.199199     31.743839     31.743839     63.487679
     -4.189189     26.949426     26.949426     53.898851
     -4.179179     23.574535     23.574535     47.149070
     -4.169169     21.906135     21.906135     43.812271
     -4.159159     21.778781     21.778781     43.557563
     -4.149149     22.744606     22.744606     45.489212
     -4.139139     24.314697     24.314697     48.629393
     -4.129129     26.157927     26.157927     52.315854
     -4.119119     28.172056     28.172056     56.344113
     -4.109109     30.403460     30.403460     60.806919
     -4.099099     32.864406     32.864406     65.728812
     -4.089089     35.353002     35.353002     70.706005
     -4.079079     37.390934     37.390934     74.781867
     -4.069069     38.341032     38.341032     76.682064
     -4.059059     37.667876     37.667876     75.335752
     -4.049049     35.214374     35.214374     70.428748
     -4.039039     31.345776     31.345776     62.691551
     -4.029029     26.879566     26.879566     53.759132
     -4.019019     22.834588     22.834588     45.669177
     -4.009009     20.122258     20.122258     40.244515
     -3.998999     19.315288     19.315288     38.630576
     -3.988989     20.568751     20.568751     41.137501
     -3.978979     23.682936     23.682936     47.365872
     -3.968969     28.240508     28.240508     56.481015
     -3.958959     33.745331     33.745331     67.490662
     -3.948949     39.723463     39.723463     79.446926
     -3.938939     45.784186     45.784186     91.568372
     -3.928929     51.653137     51.653137    103.306275
     -3.918919     57.178177     57.178177    114.356354
     -3.908909     62.293574     62.293574    124.587148
     -3.898899     66.934568     66.934568    133.869136
     -3.888889     70.926271     70.926271    141.852543
     -3.878879     73.904725     73.904725    147.809449
     -3.868869     75.331915     75.331915    150.663830
     -3.858859     74.628359     74.628359    149.256717
     -3.848849     71.385295     71.385295    142.770591
     -3.838839     65.570459     65.570459    131.140918
     -3.828829     57.635448     57.635448    115.270896
     -3.818819     48.471805     48.471805     96.943611
     -3.808809     39.224819     39.224819     78.449637
     -3.798799     31.027798     31.027798     62.055596
     -3.788789     24.743009     24.743009     49.486018
     -3.778779     20.784704     20.784704     41.569409
     -3.768769     19.066235     19.066235     38.132471
     -3.758759     19.074069     19.074069     38.148138
     -3.748749     20.039724     20.039724     40.079448
     -3.738739     21.161648     21.161648     42.323296
     -3.728729     21.822498     21.822498     43.644996
     -3.718719     21.750709     21.750709     43.501418
     -3.708709     21.086590     21.086590     42.173180
     -3.698699     20.331763     20.331763     40.663526
     -3.688689     20.186497     20.186497     40.372993
     -3.678679     21.310904     21.310904     42.621808
     -3.668669     24.076758     24.076758     48.153517
     -3.658659     28.393857     28.393857     56.787713
     -3.648649     33.682869     33.682869     67.365737
     -3.638639     39.018687     39.018687     78.037375
     -3.628629     43.398530     43.398530     86.797060
     -3.618619     46.031915     46.031915     92.063831
     -3.608609     46.540654     46.540654     93.081308
     -3.598599     45.004770     45.004770     90.009540
     -3.588589     41.865509     41.865509     83.731018
     -3.578579     37.751963     37.751963     75.503925
     -3.568569     33.305275     33.305275     66.610551
     -3.558559     29.044779     29.044779     58.089557
     -3.548549     25.288118     25.288118     50.576237
     -3.538539     22.125711     22.125711     44.251421
     -3.528529     19.452337     19.452337     38.904673
     -3.518519     17.053818     17.053818     34.107636
     -3.508509     14.725804     14.725804     29.451607
     -3.498498     12.380120     12.380120     24.760240
     -3.488488     10.094332     10.094332     20.188664
     -3.478478      8.087294      8.087294     16.174589
     -3.468468      6.639261      6.639261     13.278523
     -3.458458      5.995677      5.995677     11.991354
     -3.448448      6.290424      6.290424     12.580848
     -3.438438      7.507684      7.507684     15.015367
     -3.428428      9.486709      9.486709     18.973417
     -3.418418     11.965554     11.965554     23.931107
     -3.408408     14.652552     14.652552     29.305103
     -3.398398     17.304476     17.304476     34.608953
     -3.388388     19.784127     19.784127     39.568253
     -3.378378     22.077334     22.077334     44.154668
     -3.368368     24.269493     24.269493     48.538986
     -3.358358     26.499821     26.499821     52.999641
     -3.348348     28.911965     28.911965     57.823930
     -3.338338     31.603516     31.603516     63.207033
     -3.328328     34.564762     34.564762     69.129524
     -3.318318     37.608680     37.608680     75.217360
     -3.308308     40.326029     40.326029     80.652057
     -3.298298     42.120684     42.120684     84.241367
     -3.288288     42.358665     42.358665     84.717329
     -3.278278     40.599048     40.599048     81.198097
     -3.268268     36.807884     36.807884     73.615768
     -3.258258     31.441681     31.441681     62.883363
     -3.248248     25.345218     25.345218     50.690435
     -3.238238     19.503955     19.503955     39.007909
     -3.228228     14.760424     14.760424     29.520848
     -3.218218     11.606198     11.606198     23.212395
     -3.208208     10.108199     10.108199     20.216398
     -3.198198      9.965214      9.965214     19.930428
     -3.188188     10.653696     10.653696     21.307392
     -3.178178     11.614201     11.614201     23.228403
     -3.168168     12.432435     12.432435     24.864870
     -3.158158     12.969091     12.969091     25.938182
     -3.148148     13.396200     13.396200     26.792400
     -3.138138     14.117932     14.117932     28.235863
     -3.128128     15.592891     15.592891     31.185782
     -3.118118     18.117799     18.117799     36.235598
     -3.108108     21.656546     21.656546     43.313092
     -3.098098     25.788822     25.788822     51.577645
     -3.088088     29.808925     29.808925     59.617851
     -3.078078     32.943254     32.943254     65.886509
     -3.068068     34.600457     34.600457     69.200913
     -3.058058     34.548956     34.548956     69.097912
     -3.048048     32.948070     32.948070     65.896141
     -3.038038     30.230319     30.230319     60.460637
     -3.028028     26.906553     26.906553     53.813106
     -3.018018     23.398568     23.398568     46.797137
     -3.008008     19.975908     19.975908     39.951817
     -2.997998     16.804543     16.804543     33.609087
     -2.987988     14.050928     14.050928     28.101856
     -2.977978     11.963737     11.963737     23.927474
     -2.967968     10.881607     10.881607     21.763214
     -2.957958     11.162131     11.162131     22.324263
     -2.947948     13.063978     13.063978     26.127955
     -2.937938     16.627339     16.627339     33.254678
     -2.927928     21.594438     21.594438     43.188876
     -2.917918     27.401842     27.401842     54.803684
     -2.907908     33.261760     33.261760     66.523521
     -2.897898     38.325606     38.325606     76.651212
     -2.887888     41.890627     41.890627     83.781253
     -2.877878     43.582128     43.582128     87.164256
     -2.867868     43.439094     43.439094     86.878189
     -2.857858     41.861379     41.861379     83.722759
     -2.847848     39.434344     39.434344     78.868689
     -2.837838     36.704795     36.704795     73.409591
     -2.827828     34.007666     34.007666     68.015332
     -2.817818     31.418059     31.418059     62.836118
     -2.807808     28.838199     28.838199     57.676397
     -2.797798     26.158696     26.158696     52.317393
     -2.787788     23.398084     23.398084     46.796167
     -2.777778     20.743852     20.743852     41.487704
     -2.767768     18.480094     18.480094     36.960187
     -2.757758     16.854227     16.854227     33.708454
     -2.747748     15.968483     15.968483     31.936965
     -2.737738     15.761520     15.761520     31.523039
     -2.727728     16.084538     16.084538     32.169076
     -2.717718     16.813110     16.813110     33.626220
     -2.707708     17.912389     17.912389     35.824777
     -2.697698     19.407369     19.407369     38.814737
     -2.687688     21.280688     21.280688     42.561375
     -2.677678     23.379062     23.379062     46.758124
     -2.667668     25.411123     25.411123     50.822247
     -2.657658     27.058139     27.058139     54.116277
     -2.647648     28.135956     28.135956     56.271913
     -2.637638     28.702542     28.702542     57.405083
     -2.627628     29.035508     29.035508     58.071016
     -2.617618     29.488191     29.488191     58.976382
     -2.607608     30.309931     30.309931     60.619861
     -2.597598     31.531379     31.531379     63.062759
     -2.587588     32.962975     32.962975     65.925950
     -2.577578     34.279893     34.279893     68.559786
     -2.567568     35.127268     35.127268     70.254536
     -2.557558     35.197118     35.197118     70.394235
     -2.547548     34.275484     34.275484     68.550968
     -2.537538     32.286854     32.286854     64.573707
     -2.527528     29.349021     29.349021     58.698042
     -2.517518     25.813899     25.813899     51.627798
     -2.507508     22.248440     22.248440     44.496880
     -2.497497     19.328321     19.328321     38.656642
     -2.487487     17.663830     17.663830     35.327660
     -2.477477     17.619632     17.619632     35.239264
     -2.467467     19.201580     19.201580     38.403159
     -2.457457     22.060050     22.060050     44.120100
     -2.447447     25.613651     25.613651     51.227302
     -2.437437     29.248543     29.248543     58.497086
     -2.427427     32.515077     32.515077     65.030154
     -2.417417     35.239391     35.239391     70.478783
     -2.407407     37.499489     37.499489     74.998978
     -2.397397     39.474943     39.474943     78.949885
     -2.387387     41.242725     41.242725     82.485450
     -2.377377     42.626882     42.626882     85.253765
     -2.367367     43.192851     43.192851     86.385702
     -2.357357     42.408267     42.408267     84.816533
     -2.347347     39.902273     39.902273     79.804546
     -2.337337     35.695401     35.695401     71.390802
     -2.327327     30.281671     30.281671     60.563342
     -2.317317     24.521408     24.521408     49.042816
     -2.307307     19.399953     19.399953     38.799905
     -2.297297     15.764474     15.764474     31.528947
     -2.287287     14.140335     14.140335     28.280669
     -2.277277     14.669810     14.669810     29.339620
     -2.267267     17.154504     17.154504     34.309007
     -2.257257     21.152139     21.152139     42.304277
     -2.247247     26.081812     26.081812     52.163625
     -2.237237     31.312063     31.312063     62.624127
     -2.227227     36.225476     36.225476     72.450951
     -2.217217     40.265096     40.265096     80.530192
     -2.207207     42.972991     42.972991     85.945982
     -2.197197     44.031564     44.031564     88.063128
     -2.187187     43.312091     43.312091     86.624181
     -2.177177     40.920621     40.920621     81.841241
     -2.167167     37.214129     37.214129     74.428258
     -2.157157     32.753772     32.753772     65.507545
     -2.147147     28.181352     28.181352     56.362703
     -2.137137     24.047219     24.047219     48.094439
     -2.127127     20.657988     20.657988     41.315976
     -2.117117     18.017921     18.017921     36.035842
     -2.107107     15.896422     15.896422     31.792843
     -2.097097     13.988002     13.988002     27.976003
     -2.087087     12.083200     12.083200     24.166401
     -2.077077     10.169505     10.169505     20.339010
     -2.067067      8.425744      8.425744     16.851488
     -2.057057      7.128912      7.128912     14.257823
     -2.047047      6.525675      6.525675     13.051349
     -2.037037      6.721618      6.721618     13.443236
     -2.027027      7.622446      7.622446     15.244893
     -2.017017      8.940845      8.940845     17.881689
     -2.007007     10.266951     10.266951     20.533901
     -1.996997     11.185115     11.185115     22.370229
     -1.986987     11.402525     11.402525     22.805049
     -1.976977     10.844742     10.844742     21.689485
     -1.966967      9.681238      9.681238     19.362475
     -1.956957      8.271948      8.271948     16.543897
     -1.946947      7.058861      7.058861     14.117723
     -1.936937      6.444742      6.444742     12.889484
     -1.926927      6.696340      6.696340     13.392681
     -1.916917      7.890693      7.890693     15.781386
     -1.906907      9.906240      9.906240     19.812480
     -1.896897     12.453131     12.453131     24.906261
     -1.886887     15.135434     15.135434     30.270868
     -1.876877     17.534872     17.534872     35.069744
     -1.866867     19.300093     19.300093     38.600185
     -1.856857     20.221837     20.221837     40.443675
     -1.846847     20.275798     20.275798     40.551596
     -1.836837     19.620191     19.620191     39.240381
     -1.826827     18.542770     18.542770     37.085540
     -1.816817     17.364689     17.364689     34.729379
     -1.806807     16.327576     16.327576     32.655152
     -1.796797     15.507341     15.507341     31.014682
     -1.786787     14.797339     14.797339     29.594679
     -1.776777     13.975240     13.975240     27.950480
     -1.766767     12.823916     12.823916     25.647832
     -1.756757     11.245401     11.245401     22.490802
     -1.746747      9.311712      9.311712     18.623425
     -1.736737      7.234902      7.234902     14.469803
     -1.726727      5.284287      5.284287     10.568574
     -1.716717      3.701423      3.701423      7.402847
     -1.706707      2.652139      2.652139      5.304279
     -1.696697      2.223021      2.223021      4.446042
     -1.686687      2.440834      2.440834      4.881668
     -1.676677      3.284748      3.284748      6.569496
     -1.666667      4.674795      4.674795      9.349589
     -1.656657      6.444971      6.444971     12.889941
     -1.646647      8.329445      8.329445     16.658890
     -1.636637      9.991901      9.991901     19.983803
     -1.626627     11.107567     11.107567     22.215134
