# EIG2DOS: Utility for SIESTA to obtain the electronic density of states
#  E. Artacho, Apr 1999, A. Garcia, Apr 2012
#  Nick R. Papior, Feb 2017
# ------------------------------------------
# Eigenvalues calculated from a non-polarized calculation
# Eigenvalues read from siesta.EIG
# Kpoint weights read from siesta.KP
# Using smearing parameter:   0.0500
# Using 1000 points in the energy range
# Selected bands: 1 to: 2981
# Emin, Emax in file for selected band(s):    -27.4643416    218.3924780
# Nbands, Nspin, Nk   =   2981     1     1
# E_F                 =    -4.2148 eV --> (shifted to ZERO)
# Broadening          =     0.0500 eV
#
#        E            N(up)  (=)   N(down)         Ntot
     -5.000000     34.930545     34.930545     69.861089
     -4.989990     39.221637     39.221637     78.443274
     -4.979980     42.743809     42.743809     85.487618
     -4.969970     44.909593     44.909593     89.819186
     -4.959960     45.347968     45.347968     90.695936
     -4.949950     44.028179     44.028179     88.056358
     -4.939940     41.282025     41.282025     82.564049
     -4.929930     37.735863     37.735863     75.471726
     -4.919920     34.197211     34.197211     68.394422
     -4.909910     31.535598     31.535598     63.071197
     -4.899900     30.564171     30.564171     61.128342
     -4.889890     31.901447     31.901447     63.802894
     -4.879880     35.802448     35.802448     71.604897
     -4.869870     41.995534     41.995534     83.991068
     -4.859860     49.609774     49.609774     99.219547
     -4.849850     57.280337     57.280337    114.560674
     -4.839840     63.455205     63.455205    126.910411
     -4.829830     66.822962     66.822962    133.645925
     -4.819820     66.700601     66.700601    133.401202
     -4.809810     63.218182     63.218182    126.436363
     -4.799800     57.223625     57.223625    114.447251
     -4.789790     49.959536     49.959536     99.919072
     -4.779780     42.661264     42.661264     85.322529
     -4.769770     36.239561     36.239561     72.479122
     -4.759760     31.144616     31.144616     62.289232
     -4.749750     27.410336     27.410336     54.820672
     -4.739740     24.805383     24.805383     49.610765
     -4.729730     22.998895     22.998895     45.997791
     -4.719720     21.675779     21.675779     43.351558
     -4.709710     20.582605     20.582605     41.165209
     -4.699700     19.526050     19.526050     39.052100
     -4.689690     18.365670     18.365670     36.731339
     -4.679680     17.035129     17.035129     34.070258
     -4.669670     15.595895     15.595895     31.191790
     -4.659660     14.292678     14.292678     28.585356
     -4.649650     13.562970     13.562970     27.125940
     -4.639640     13.965090     13.965090     27.930180
     -4.629630     16.023702     16.023702     32.047403
     -4.619620     20.031385     20.031385     40.062770
     -4.609610     25.873807     25.873807     51.747614
     -4.599600     32.953963     32.953963     65.907926
     -4.589590     40.270748     40.270748     80.541497
     -4.579580     46.656707     46.656707     93.313414
     -4.569570     51.111932     51.111932    102.223864
     -4.559560     53.116163     53.116163    106.232326
     -4.549550     52.793272     52.793272    105.586543
     -4.539540     50.854302     50.854302    101.708604
     -4.529530     48.335715     48.335715     96.671430
     -4.519520     46.234306     46.234306     92.468612
     -4.509510     45.179351     45.179351     90.358701
     -4.499499     45.260849     45.260849     90.521697
     -4.489489     46.063954     46.063954     92.127908
     -4.479479     46.876084     46.876084     93.752167
     -4.469469     46.970229     46.970229     93.940457
     -4.459459     45.850389     45.850389     91.700778
     -4.449449     43.376818     43.376818     86.753636
     -4.439439     39.751602     39.751602     79.503204
     -4.429429     35.406784     35.406784     70.813569
     -4.419419     30.867388     30.867388     61.734775
     -4.409409     26.648229     26.648229     53.296459
     -4.399399     23.200323     23.200323     46.400647
     -4.389389     20.882214     20.882214     41.764429
     -4.379379     19.922679     19.922679     39.845358
     -4.369369     20.367662     20.367662     40.735325
     -4.359359     22.041374     22.041374     44.082748
     -4.349349     24.565413     24.565413     49.130825
     -4.339339     27.455649     27.455649     54.911298
     -4.329329     30.270072     30.270072     60.540144
     -4.319319     32.745246     32.745246     65.490493
     -4.309309     34.858896     34.858896     69.717792
     -4.299299     36.789858     36.789858     73.579716
     -4.289289     38.791794     38.791794     77.583588
     -4.279279     41.030291     41.030291     82.060583
     -4.269269     43.445325     43.445325     86.890650
     -4.259259     45.695651     45.695651     91.391303
     -4.249249     47.221303     47.221303     94.442606
     -4.239239     47.422388     47.422388     94.844775
     -4.229229     45.900119     45.900119     91.800239
     -4.219219     42.661046     42.661046     85.322092
     -4.209209     38.181356     38.181356     76.362711
     -4.199199     33.282801     33.282801     66.565602
     -4.189189     28.863744     28.863744     57.727487
     -4.179179     25.605042     25.605042     51.210083
     -4.169169     23.783185     23.783185     47.566369
     -4.159159     23.265105     23.265105     46.530210
     -4.149149     23.667125     23.667125     47.334251
     -4.139139     24.585987     24.585987     49.171975
     -4.129129     25.786034     25.786034     51.572067
     -4.119119     27.256032     27.256032     54.512064
     -4.109109     29.113838     29.113838     58.227677
     -4.099099     31.411704     31.411704     62.823409
     -4.089089     33.950996     33.950996     67.901992
     -4.079079     36.223286     36.223286     72.446573
     -4.069069     37.539017     37.539017     75.078034
     -4.059059     37.303162     37.303162     74.606324
     -4.049049     35.304825     35.304825     70.609651
     -4.039039     31.866455     31.866455     63.732911
     -4.029029     27.769421     27.769421     55.538842
     -4.019019     23.994054     23.994054     47.988108
     -4.009009     21.406650     21.406650     42.813301
     -3.998999     20.536970     20.536970     41.073939
     -3.988989     21.520392     21.520392     43.040783
     -3.978979     24.182608     24.182608     48.365216
     -3.968969     28.183299     28.183299     56.366597
     -3.958959     33.137116     33.137116     66.274231
     -3.948949     38.678060     38.678060     77.356119
     -3.938939     44.482820     44.482820     88.965639
     -3.928929     50.283864     50.283864    100.567728
     -3.918919     55.881751     55.881751    111.763501
     -3.908909     61.137461     61.137461    122.274921
     -3.898899     65.922602     65.922602    131.845203
     -3.888889     70.035183     70.035183    140.070365
     -3.878879     73.127043     73.127043    146.254086
     -3.868869     74.702125     74.702125    149.404250
     -3.858859     74.217699     74.217699    148.435398
     -3.848849     71.267537     71.267537    142.535073
     -3.838839     65.777875     65.777875    131.555750
     -3.828829     58.130483     58.130483    116.260965
     -3.818819     49.150763     49.150763     98.301526
     -3.808809     39.951038     39.951038     79.902077
     -3.798799     31.675882     31.675882     63.351764
     -3.788789     25.232595     25.232595     50.465191
     -3.778779     21.091780     21.091780     42.183559
     -3.768769     19.213567     19.213567     38.427134
     -3.758759     19.110947     19.110947     38.221894
     -3.748749     20.021683     20.021683     40.043366
     -3.738739     21.136139     21.136139     42.272278
     -3.728729     21.821386     21.821386     43.642772
     -3.718719     21.787834     21.787834     43.575668
     -3.708709     21.158471     21.158471     42.316941
     -3.698699     20.420512     20.420512     40.841025
     -3.688689     20.264970     20.264970     40.529939
     -3.678679     21.350372     21.350372     42.700745
     -3.668669     24.056786     24.056786     48.113572
     -3.658659     28.312518     28.312518     56.625036
     -3.648649     33.563701     33.563701     67.127402
     -3.638639     38.910332     38.910332     77.820664
     -3.628629     43.365384     43.365384     86.730767
     -3.618619     46.139355     46.139355     92.278710
     -3.608609     46.843945     46.843945     93.687890
     -3.598599     45.552561     45.552561     91.105122
     -3.588589     42.723746     42.723746     85.447492
     -3.578579     39.042734     39.042734     78.085468
     -3.568569     35.242191     35.242191     70.484383
     -3.558559     31.939205     31.939205     63.878410
     -3.548549     29.505040     29.505040     59.010080
     -3.538539     27.986059     27.986059     55.972119
     -3.528529     27.105244     27.105244     54.210488
     -3.518519     26.365629     26.365629     52.731259
     -3.508509     25.238430     25.238430     50.476861
     -3.498498     23.370671     23.370671     46.741342
     -3.488488     20.726178     20.726178     41.452356
     -3.478478     17.599641     17.599641     35.199282
     -3.468468     14.502144     14.502144     29.004288
     -3.458458     11.972502     11.972502     23.945004
     -3.448448     10.392617     10.392617     20.785234
     -3.438438      9.872568      9.872568     19.745136
     -3.428428     10.238290     10.238290     20.476579
     -3.418418     11.119671     11.119671     22.239342
     -3.408408     12.107933     12.107933     24.215866
     -3.398398     12.929619     12.929619     25.859239
     -3.388388     13.574741     13.574741     27.149483
     -3.378378     14.326907     14.326907     28.653814
     -3.368368     15.676523     15.676523     31.353045
     -3.358358     18.142858     18.142858     36.285716
     -3.348348     22.065541     22.065541     44.131081
     -3.338338     27.434676     27.434676     54.869353
     -3.328328     33.811949     33.811949     67.623899
     -3.318318     40.366803     40.366803     80.733605
     -3.308308     46.025339     46.025339     92.050677
     -3.298298     49.706401     49.706401     99.412803
     -3.288288     50.593799     50.593799    101.187598
     -3.278278     48.368154     48.368154     96.736308
     -3.268268     43.314323     43.314323     86.628646
     -3.258258     36.251200     36.251200     72.502401
     -3.248248     28.298737     28.298737     56.597475
     -3.238238     20.569181     20.569181     41.138363
     -3.228228     13.901476     13.901476     27.802953
     -3.218218      8.728663      8.728663     17.457325
     -3.208208      5.098264      5.098264     10.196528
     -3.198198      2.799576      2.799576      5.599153
     -3.188188      1.523994      1.523994      3.047987
     -3.178178      0.998303      0.998303      1.996606
     -3.168168      1.064123      1.064123      2.128245
     -3.158158      1.703778      1.703778      3.407555
     -3.148148      3.022311      3.022311      6.044622
     -3.138138      5.192176      5.192176     10.384352
     -3.128128      8.364922      8.364922     16.729844
     -3.118118     12.562889     12.562889     25.125779
     -3.108108     17.582265     17.582265     35.164529
     -3.098098     22.953545     22.953545     45.907090
     -3.088088     27.998766     27.998766     55.997533
     -3.078078     31.988876     31.988876     63.977752
     -3.068068     34.351942     34.351942     68.703884
     -3.058058     34.844548     34.844548     69.689097
     -3.048048     33.605140     33.605140     67.210279
     -3.038038     31.064279     31.064279     62.128557
     -3.028028     27.762660     27.762660     55.525321
     -3.018018     24.175048     24.175048     48.350096
     -3.008008     20.625595     20.625595     41.251191
     -2.997998     17.317279     17.317279     34.634557
     -2.987988     14.429414     14.429414     28.858828
     -2.977978     12.206182     12.206182     24.412364
     -2.967968     10.977639     10.977639     21.955278
     -2.957958     11.100192     11.100192     22.200384
     -2.947948     12.843470     12.843470     25.686941
     -2.937938     16.268185     16.268185     32.536369
     -2.927928     21.138955     21.138955     42.277909
     -2.917918     26.907323     26.907323     53.814646
     -2.907908     32.785821     32.785821     65.571642
     -2.897898     37.909529     37.909529     75.819058
     -2.887888     41.547485     41.547485     83.094971
     -2.877878     43.295451     43.295451     86.590901
     -2.867868     43.174162     43.174162     86.348325
     -2.857858     41.586012     41.586012     83.172024
     -2.847848     39.141193     39.141193     78.282387
     -2.837838     36.424975     36.424975     72.849949
     -2.827828     33.807769     33.807769     67.615539
     -2.817818     31.379329     31.379329     62.758657
     -2.807808     29.025278     29.025278     58.050555
     -2.797798     26.591461     26.591461     53.182922
     -2.787788     24.039552     24.039552     48.079104
     -2.777778     21.509685     21.509685     43.019369
     -2.767768     19.264748     19.264748     38.529496
     -2.757758     17.561344     17.561344     35.122687
     -2.747748     16.532654     16.532654     33.065308
     -2.737738     16.154765     16.154765     32.309529
     -2.727728     16.309364     16.309364     32.618728
     -2.717718     16.889855     16.889855     33.779710
     -2.707708     17.868894     17.868894     35.737789
     -2.697698     19.274707     19.274707     38.549415
     -2.687688     21.093182     21.093182     42.186365
     -2.677678     23.173815     23.173815     46.347629
     -2.667668     25.223491     25.223491     50.446983
     -2.657658     26.913748     26.913748     53.827495
     -2.647648     28.043606     28.043606     56.087212
     -2.637638     28.652707     28.652707     57.305414
     -2.627628     29.005768     29.005768     58.011536
     -2.617618     29.452575     29.452575     58.905150
     -2.607608     30.247412     30.247412     60.494824
     -2.597598     31.430789     31.430789     62.861577
     -2.587588     32.825132     32.825132     65.650265
     -2.577578     34.119188     34.119188     68.238375
     -2.567568     34.972903     34.972903     69.945806
     -2.557558     35.091251     35.091251     70.182502
     -2.547548     34.265263     34.265263     68.530527
     -2.537538     32.411091     32.411091     64.822181
     -2.527528     29.624952     29.624952     59.249903
     -2.517518     26.230675     26.230675     52.461351
     -2.507508     22.770009     22.770009     45.540017
     -2.497497     19.902128     19.902128     39.804255
     -2.487487     18.228481     18.228481     36.456962
     -2.477477     18.107098     18.107098     36.214196
     -2.467467     19.535759     19.535759     39.071519
     -2.457457     22.158380     22.158380     44.316760
     -2.447447     25.397752     25.397752     50.795504
     -2.437437     28.663829     28.663829     57.327658
     -2.427427     31.552350     31.552350     63.104701
     -2.417417     33.949008     33.949008     67.898016
     -2.407407     35.992326     35.992326     71.984652
     -2.397397     37.910630     37.910630     75.821261
     -2.387387     39.809069     39.809069     79.618138
     -2.377377     41.513148     41.513148     83.026296
     -2.367367     42.557398     42.557398     85.114796
     -2.357357     42.343094     42.343094     84.686187
     -2.347347     40.403708     40.403708     80.807416
     -2.337337     36.655026     36.655026     73.310053
     -2.327327     31.507491     31.507491     63.014982
     -2.317317     25.786170     25.786170     51.572340
     -2.307307     20.499678     20.499678     40.999356
     -2.297297     16.565138     16.565138     33.130275
     -2.287287     14.597031     14.597031     29.194061
     -2.277277     14.815534     14.815534     29.631069
     -2.267267     17.067423     17.067423     34.134845
     -2.257257     20.916668     20.916668     41.833335
     -2.247247     25.759672     25.759672     51.519344
     -2.237237     30.935433     30.935433     61.870865
     -2.227227     35.815976     35.815976     71.631952
     -2.217217     39.871664     39.871664     79.743329
     -2.207207     42.713187     42.713187     85.426373
     -2.197197     44.119117     44.119117     88.238234
     -2.187187     44.059035     44.059035     88.118070
     -2.177177     42.710624     42.710624     85.421247
     -2.167167     40.449109     40.449109     80.898217
     -2.157157     37.777837     37.777837     75.555673
     -2.147147     35.189379     35.189379     70.378757
     -2.137137     32.994906     32.994906     65.989812
     -2.127127     31.202915     31.202915     62.405830
     -2.117117     29.525194     29.525194     59.050389
     -2.107107     27.526175     27.526175     55.052350
     -2.097097     24.847105     24.847105     49.694210
     -2.087087     21.388670     21.388670     42.777339
     -2.077077     17.360456     17.360456     34.720911
     -2.067067     13.185308     13.185308     26.370615
     -2.057057      9.325098      9.325098     18.650195
     -2.047047      6.122720      6.122720     12.245440
     -2.037037      3.725552      3.725552      7.451104
     -2.027027      2.099228      2.099228      4.198456
     -2.017017      1.096937      1.096937      2.193874
     -2.007007      0.538270      0.538270      1.076540
     -1.996997      0.266855      0.266855      0.533711
     -1.986987      0.178951      0.178951      0.357903
     -1.976977      0.230660      0.230660      0.461320
     -1.966967      0.434875      0.434875      0.869750
     -1.956957      0.853958      0.853958      1.707915
     -1.946947      1.586814      1.586814      3.173627
     -1.936937      2.745023      2.745023      5.490046
     -1.926927      4.415252      4.415252      8.830503
     -1.916917      6.613872      6.613872     13.227743
     -1.906907      9.249666      9.249666     18.499331
     -1.896897     12.114061     12.114061     24.228122
     -1.886887     14.910428     14.910428     29.820856
     -1.876877     17.317470     17.317470     34.634941
     -1.866867     19.066533     19.066533     38.133067
     -1.856857     20.007787     20.007787     40.015575
     -1.846847     20.145908     20.145908     40.291815
     -1.836837     19.635101     19.635101     39.270201
     -1.826827     18.731211     18.731211     37.462421
     -1.816817     17.708265     17.708265     35.416530
     -1.806807     16.762320     16.762320     33.524640
     -1.796797     15.940893     15.940893     31.881787
     -1.786787     15.135696     15.135696     30.271392
     -1.776777     14.149887     14.149887     28.299774
     -1.766767     12.809900     12.809900     25.619801
     -1.756757     11.064109     11.064109     22.128218
     -1.746747      9.018184      9.018184     18.036369
     -1.736737      6.895799      6.895799     13.791597
     -1.726727      4.955833      4.955833      9.911666
     -1.716717      3.415195      3.415195      6.830391
     -1.706707      2.411880      2.411880      4.823759
     -1.696697      2.010910      2.010910      4.021821
     -1.686687      2.229257      2.229257      4.458514
     -1.676677      3.049554      3.049554      6.099108
     -1.666667      4.406805      4.406805      8.813609
     -1.656657      6.156743      6.156743     12.313485
     -1.646647      8.054462      8.054462     16.108924
     -1.636637      9.774780      9.774780     19.549559
     -1.626627     10.987162     10.987162     21.974325
