# EIG2DOS: Utility for SIESTA to obtain the electronic density of states
#  E. Artacho, Apr 1999, A. Garcia, Apr 2012
#  Nick R. Papior, Feb 2017
# ------------------------------------------
# Eigenvalues calculated from a non-polarized calculation
# Eigenvalues read from siesta.EIG
# Kpoint weights read from siesta.KP
# Using smearing parameter:   0.0500
# Using 1000 points in the energy range
# Selected bands: 1 to: 2981
# Emin, Emax in file for selected band(s):    -27.3627735    218.3792930
# Nbands, Nspin, Nk   =   2981     1     1
# E_F                 =    -4.2257 eV --> (shifted to ZERO)
# Broadening          =     0.0500 eV
#
#        E            N(up)  (=)   N(down)         Ntot
     -5.000000     32.113135     32.113135     64.226271
     -4.989990     36.579058     36.579058     73.158116
     -4.979980     40.728267     40.728267     81.456534
     -4.969970     43.900215     43.900215     87.800430
     -4.959960     45.522212     45.522212     91.044424
     -4.949950     45.298721     45.298721     90.597441
     -4.939940     43.320859     43.320859     86.641718
     -4.929930     40.061663     40.061663     80.123326
     -4.919920     36.275913     36.275913     72.551827
     -4.909910     32.852697     32.852697     65.705395
     -4.899900     30.659761     30.659761     61.319521
     -4.889890     30.389384     30.389384     60.778767
     -4.879880     32.401755     32.401755     64.803510
     -4.869870     36.583745     36.583745     73.167489
     -4.859860     42.280914     42.280914     84.561828
     -4.849850     48.375075     48.375075     96.750150
     -4.839840     53.537395     53.537395    107.074790
     -4.829830     56.600315     56.600315    113.200630
     -4.819820     56.913274     56.913274    113.826548
     -4.809810     54.533780     54.533780    109.067560
     -4.799800     50.173567     50.173567    100.347135
     -4.789790     44.931753     44.931753     89.863506
     -4.779780     39.936421     39.936421     79.872842
     -4.769770     36.034801     36.034801     72.069603
     -4.759760     33.622634     33.622634     67.245268
     -4.749750     32.629284     32.629284     65.258567
     -4.739740     32.622305     32.622305     65.244610
     -4.729730     32.977637     32.977637     65.955274
     -4.719720     33.064643     33.064643     66.129287
     -4.709710     32.402220     32.402220     64.804440
     -4.699700     30.752882     30.752882     61.505765
     -4.689690     28.143369     28.143369     56.286738
     -4.679680     24.828262     24.828262     49.656524
     -4.669670     21.229908     21.229908     42.459815
     -4.659660     17.880845     17.880845     35.761690
     -4.649650     15.371214     15.371214     30.742427
     -4.639640     14.283762     14.283762     28.567524
     -4.629630     15.098840     15.098840     30.197680
     -4.619620     18.071310     18.071310     36.142620
     -4.609610     23.109136     23.109136     46.218271
     -4.599600     29.704502     29.704502     59.409003
     -4.589590     36.969239     36.969239     73.938479
     -4.579580     43.799405     43.799405     87.598810
     -4.569570     49.143451     49.143451     98.286902
     -4.559560     52.294923     52.294923    104.589845
     -4.549550     53.102639     53.102639    106.205279
     -4.539540     52.009098     52.009098    104.018196
     -4.529530     49.889018     49.889018     99.778036
     -4.519520     47.739550     47.739550     95.479100
     -4.509510     46.336252     46.336252     92.672504
     -4.499499     45.985413     45.985413     91.970827
     -4.489489     46.464113     46.464113     92.928226
     -4.479479     47.160232     47.160232     94.320465
     -4.469469     47.341357     47.341357     94.682713
     -4.459459     46.433553     46.433553     92.867106
     -4.449449     44.200567     44.200567     88.401134
     -4.439439     40.772963     40.772963     81.545925
     -4.429429     36.551367     36.551367     73.102733
     -4.419419     32.057884     32.057884     64.115767
     -4.409409     27.811079     27.811079     55.622158
     -4.399399     24.259048     24.259048     48.518096
     -4.389389     21.754416     21.754416     43.508832
     -4.379379     20.531363     20.531363     41.062725
     -4.369369     20.662480     20.662480     41.324959
     -4.359359     22.013969     22.013969     44.027939
     -4.349349     24.244529     24.244529     48.489059
     -4.339339     26.881259     26.881259     53.762517
     -4.329329     29.461657     29.461657     58.923314
     -4.319319     31.686175     31.686175     63.372351
     -4.309309     33.511675     33.511675     67.023349
     -4.299299     35.140038     35.140038     70.280076
     -4.289289     36.901087     36.901087     73.802174
     -4.279279     39.071090     39.071090     78.142180
     -4.269269     41.693590     41.693590     83.387181
     -4.259259     44.475224     44.475224     88.950448
     -4.249249     46.813658     46.813658     93.627316
     -4.239239     47.973043     47.973043     95.946085
     -4.229229     47.358332     47.358332     94.716663
     -4.219219     44.779195     44.779195     89.558390
     -4.209209     40.577468     40.577468     81.154936
     -4.199199     35.544022     35.544022     71.088044
     -4.189189     30.652698     30.652698     61.305396
     -4.179179     26.732550     26.732550     53.465100
     -4.169169     24.227460     24.227460     48.454921
     -4.159159     23.139208     23.139208     46.278416
     -4.149149     23.152782     23.152782     46.305565
     -4.139139     23.859059     23.859059     47.718117
     -4.129129     24.959097     24.959097     49.918193
     -4.119119     26.358972     26.358972     52.717944
     -4.109109     28.122168     28.122168     56.244337
     -4.099099     30.312464     30.312464     60.624928
     -4.089089     32.813018     32.813018     65.626035
     -4.079079     35.227359     35.227359     70.454719
     -4.069069     36.938243     36.938243     73.876486
     -4.059059     37.322607     37.322607     74.645213
     -4.049049     36.029870     36.029870     72.059740
     -4.039039     33.182140     33.182140     66.364280
     -4.029029     29.386629     29.386629     58.773257
     -4.019019     25.549112     25.549112     51.098224
     -4.009009     22.581695     22.581695     45.163389
     -3.998999     21.143637     21.143637     42.287275
     -3.988989     21.517861     21.517861     43.035723
     -3.978979     23.639933     23.639933     47.279865
     -3.968969     27.219819     27.219819     54.439639
     -3.958959     31.872974     31.872974     63.745947
     -3.948949     37.207991     37.207991     74.415983
     -3.938939     42.868533     42.868533     85.737067
     -3.928929     48.555982     48.555982     97.111964
     -3.918919     54.049975     54.049975    108.099951
     -3.908909     59.214838     59.214838    118.429676
     -3.898899     63.965259     63.965259    127.930517
     -3.888889     68.183570     68.183570    136.367139
     -3.878879     71.621454     71.621454    143.242908
     -3.868869     73.848464     73.848464    147.696928
     -3.858859     74.302234     74.302234    148.604469
     -3.848849     72.449629     72.449629    144.899258
     -3.838839     68.007835     68.007835    136.015670
     -3.828829     61.132848     61.132848    122.265696
     -3.818819     52.484274     52.484274    104.968548
     -3.808809     43.122369     43.122369     86.244738
     -3.798799     34.263731     34.263731     68.527463
     -3.788789     26.980610     26.980610     53.961220
     -3.778779     21.947324     21.947324     43.894648
     -3.768769     19.311273     19.311273     38.622547
     -3.758759     18.714801     18.714801     37.429602
     -3.748749     19.444809     19.444809     38.889619
     -3.738739     20.657168     20.657168     41.314336
     -3.728729     21.614432     21.614432     43.228863
     -3.718719     21.880812     21.880812     43.761624
     -3.708709     21.430474     21.430474     42.860948
     -3.698699     20.641750     20.641750     41.283501
     -3.688689     20.172198     20.172198     40.344395
     -3.678679     20.738646     20.738646     41.477292
     -3.668669     22.858914     22.858914     45.717827
     -3.658659     26.636622     26.636622     53.273244
     -3.648649     31.671179     31.671179     63.342359
     -3.638639     37.139338     37.139338     74.278676
     -3.628629     42.028456     42.028456     84.056911
     -3.618619     45.434005     45.434005     90.868009
     -3.608609     46.804457     46.804457     93.608913
     -3.598599     46.046646     46.046646     92.093293
     -3.588589     43.476386     43.476386     86.952772
     -3.578579     39.666253     39.666253     79.332505
     -3.568569     35.266375     35.266375     70.532751
     -3.558559     30.853489     30.853489     61.706977
     -3.548549     26.829623     26.829623     53.659246
     -3.538539     23.374345     23.374345     46.748691
     -3.528529     20.455166     20.455166     40.910332
     -3.518519     17.898945     17.898945     35.797889
     -3.508509     15.508553     15.508553     31.017106
     -3.498498     13.183643     13.183643     26.367286
     -3.488488     10.995727     10.995727     21.991455
     -3.478478      9.187066      9.187066     18.374132
     -3.468468      8.097196      8.097196     16.194392
     -3.458458      8.047025      8.047025     16.094050
     -3.448448      9.217008      9.217008     18.434016
     -3.438438     11.551213     11.551213     23.102427
     -3.428428     14.715952     14.715952     29.431903
     -3.418418     18.139842     18.139842     36.279684
     -3.408408     21.147528     21.147528     42.295056
     -3.398398     23.162641     23.162641     46.325281
     -3.388388     23.910968     23.910968     47.821936
     -3.378378     23.534920     23.534920     47.069841
     -3.368368     22.559467     22.559467     45.118934
     -3.358358     21.717851     21.717851     43.435702
     -3.348348     21.710661     21.710661     43.421322
     -3.338338     22.992485     22.992485     45.984969
     -3.328328     25.648976     25.648976     51.297951
     -3.318318     29.375711     29.375711     58.751421
     -3.308308     33.539757     33.539757     67.079514
     -3.298298     37.307685     37.307685     74.615370
     -3.288288     39.834122     39.834122     79.668244
     -3.278278     40.489332     40.489332     80.978664
     -3.268268     39.061865     39.061865     78.123730
     -3.258258     35.843307     35.843307     71.686614
     -3.248248     31.530865     31.530865     63.061730
     -3.238238     26.970265     26.970265     53.940530
     -3.228228     22.852717     22.852717     45.705434
     -3.218218     19.509377     19.509377     39.018754
     -3.208208     16.891057     16.891057     33.782114
     -3.198198     14.717542     14.717542     29.435085
     -3.188188     12.697641     12.697641     25.395283
     -3.178178     10.705058     10.705058     21.410115
     -3.168168      8.843319      8.843319     17.686638
     -3.158158      7.402796      7.402796     14.805592
     -3.148148      6.758094      6.758094     13.516188
     -3.138138      7.256275      7.256275     14.512549
     -3.128128      9.121041      9.121041     18.242082
     -3.118118     12.375733     12.375733     24.751466
     -3.108108     16.788237     16.788237     33.576473
     -3.098098     21.857904     21.857904     43.715809
     -3.088088     26.874564     26.874564     53.749128
     -3.078078     31.062068     31.062068     62.124136
     -3.068068     33.775445     33.775445     67.550890
     -3.058058     34.678247     34.678247     69.356494
     -3.048048     33.819242     33.819242     67.638483
     -3.038038     31.569792     31.569792     63.139583
     -3.028028     28.454995     28.454995     56.909990
     -3.018018     24.967951     24.967951     49.935902
     -3.008008     21.459420     21.459420     42.918841
     -2.997998     18.142863     18.142863     36.285727
     -2.987988     15.183863     15.183863     30.367725
     -2.977978     12.799727     12.799727     25.599454
     -2.967968     11.301550     11.301550     22.603101
     -2.957958     11.052702     11.052702     22.105405
     -2.947948     12.362388     12.362388     24.724777
     -2.937938     15.357890     15.357890     30.715780
     -2.927928     19.882965     19.882965     39.765929
     -2.917918     25.462091     25.462091     50.924183
     -2.907908     31.355632     31.355632     62.711264
     -2.897898     36.706817     36.706817     73.413634
     -2.887888     40.747536     40.747536     81.495073
     -2.877878     42.997673     42.997673     85.995346
     -2.867868     43.381955     43.381955     86.763911
     -2.857858     42.212642     42.212642     84.425283
     -2.847848     40.040592     40.040592     80.081185
     -2.837838     37.436718     37.436718     74.873436
     -2.827828     34.798995     34.798995     69.597991
     -2.817818     32.267414     32.267414     64.534828
     -2.807808     29.774620     29.774620     59.549240
     -2.797798     27.191457     27.191457     54.382914
     -2.787788     24.480650     24.480650     48.961301
     -2.777778     21.773610     21.773610     43.547219
     -2.767768     19.333470     19.333470     38.666940
     -2.757758     17.434615     17.434615     34.869229
     -2.747748     16.236411     16.236411     32.472821
     -2.737738     15.728849     15.728849     31.457698
     -2.727728     15.779751     15.779751     31.559501
     -2.717718     16.246222     16.246222     32.492443
     -2.707708     17.069890     17.069890     34.139780
     -2.697698     18.286348     18.286348     36.572696
     -2.687688     19.939956     19.939956     39.879911
     -2.677678     21.966148     21.966148     43.932295
     -2.667668     24.133906     24.133906     48.267812
     -2.657658     26.105365     26.105365     52.210730
     -2.647648     27.588546     27.588546     55.177091
     -2.637638     28.489538     28.489538     56.979077
     -2.627628     28.963936     28.963936     57.927871
     -2.617618     29.331185     29.331185     58.662370
     -2.607608     29.904293     29.904293     59.808586
     -2.597598     30.836717     30.836717     61.673435
     -2.587588     32.065290     32.065290     64.130579
     -2.577578     33.356189     33.356189     66.712379
     -2.567568     34.399249     34.399249     68.798497
     -2.557558     34.888596     34.888596     69.777193
     -2.547548     34.569371     34.569371     69.138742
     -2.537538     33.274750     33.274750     66.549501
     -2.527528     30.982252     30.982252     61.964503
     -2.517518     27.881635     27.881635     55.763269
     -2.507508     24.406855     24.406855     48.813710
     -2.497497     21.181639     21.181639     42.363277
     -2.487487     18.869657     18.869657     37.739313
     -2.477477     17.977092     17.977092     35.954185
     -2.467467     18.689349     18.689349     37.378697
     -2.457457     20.815078     20.815078     41.630156
     -2.447447     23.865989     23.865989     47.731979
     -2.437437     27.242141     27.242141     54.484282
     -2.427427     30.445122     30.445122     60.890244
     -2.417417     33.226409     33.226409     66.452817
     -2.407407     35.604842     35.604842     71.209685
     -2.397397     37.747126     37.747126     75.494252
     -2.387387     39.772088     39.772088     79.544176
     -2.377377     41.580142     41.580142     83.160283
     -2.367367     42.801744     42.801744     85.603487
     -2.357357     42.903554     42.903554     85.807109
     -2.347347     41.413023     41.413023     82.826046
     -2.337337     38.159709     38.159709     76.319418
     -2.327327     33.418694     33.418694     66.837387
     -2.317317     27.887354     27.887354     55.774708
     -2.307307     22.506942     22.506942     45.013883
     -2.297297     18.209172     18.209172     36.418343
     -2.287287     15.688865     15.688865     31.377731
     -2.277277     15.273363     15.273363     30.546726
     -2.267267     16.905762     16.905762     33.811523
     -2.257257     20.215789     20.215789     40.431578
     -2.247247     24.635242     24.635242     49.270483
     -2.237237     29.519054     29.519054     59.038109
     -2.227227     34.245236     34.245236     68.490473
     -2.217217     38.279796     38.279796     76.559592
     -2.207207     41.206468     41.206468     82.412937
     -2.197197     42.735193     42.735193     85.470386
     -2.187187     42.711400     42.711400     85.422799
     -2.177177     41.141097     41.141097     82.282194
     -2.167167     38.223357     38.223357     76.446714
     -2.157157     34.356594     34.356594     68.713189
     -2.147147     30.081443     30.081443     60.162887
     -2.137137     25.953622     25.953622     51.907244
     -2.127127     22.389930     22.389930     44.779860
     -2.117117     19.562733     19.562733     39.125466
     -2.107107     17.402580     17.402580     34.805159
     -2.097097     15.708810     15.708810     31.417619
     -2.087087     14.302859     14.302859     28.605718
     -2.077077     13.133731     13.133731     26.267463
     -2.067067     12.277375     12.277375     24.554750
     -2.057057     11.839338     11.839338     23.678675
     -2.047047     11.828712     11.828712     23.657424
     -2.037037     12.085578     12.085578     24.171156
     -2.027027     12.308469     12.308469     24.616938
     -2.017017     12.167746     12.167746     24.335491
     -2.007007     11.442461     11.442461     22.884923
     -1.996997     10.109470     10.109470     20.218940
     -1.986987      8.345732      8.345732     16.691463
     -1.976977      6.454897      6.454897     12.909793
     -1.966967      4.765546      4.765546      9.531092
     -1.956957      3.551563      3.551563      7.103126
     -1.946947      2.999079      2.999079      5.998158
     -1.936937      3.210867      3.210867      6.421733
     -1.926927      4.220182      4.220182      8.440365
     -1.916917      5.990778      5.990778     11.981556
     -1.906907      8.400418      8.400418     16.800836
     -1.896897     11.225365     11.225365     22.450731
     -1.886887     14.149089     14.149089     28.298178
     -1.876877     16.807213     16.807213     33.614427
     -1.866867     18.861221     18.861221     37.722441
     -1.856857     20.078299     20.078299     40.156597
     -1.846847     20.390871     20.390871     40.781742
     -1.836837     19.914741     19.914741     39.829481
     -1.826827     18.914666     18.914666     37.829332
     -1.816817     17.719909     17.719909     35.439818
     -1.806807     16.611430     16.611430     33.222860
     -1.796797     15.721934     15.721934     31.443869
     -1.786787     14.995329     14.995329     29.990658
     -1.776777     14.230860     14.230860     28.461721
     -1.766767     13.194692     13.194692     26.389384
     -1.756757     11.743482     11.743482     23.486965
     -1.746747      9.897904      9.897904     19.795809
     -1.736737      7.835013      7.835013     15.670027
     -1.726727      5.815571      5.815571     11.631142
     -1.716717      4.094100      4.094100      8.188200
     -1.706707      2.857747      2.857747      5.715495
     -1.696697      2.211812      2.211812      4.423624
     -1.686687      2.197473      2.197473      4.394946
     -1.676677      2.811230      2.811230      5.622461
     -1.666667      4.002468      4.002468      8.004936
     -1.656657      5.648241      5.648241     11.296482
     -1.646647      7.528043      7.528043     15.056086
     -1.636637      9.331117      9.331117     18.662235
     -1.626627     10.716737     10.716737     21.433475
