# EIG2DOS: Utility for SIESTA to obtain the electronic density of states
#  E. Artacho, Apr 1999, A. Garcia, Apr 2012
#  Nick R. Papior, Feb 2017
# ------------------------------------------
# Eigenvalues calculated from a non-polarized calculation
# Eigenvalues read from siesta.EIG
# Kpoint weights read from siesta.KP
# Using smearing parameter:   0.0500
# Using 1000 points in the energy range
# Selected bands: 1 to: 2981
# Emin, Emax in file for selected band(s):    -27.1419066    218.3558040
# Nbands, Nspin, Nk   =   2981     1     1
# E_F                 =    -4.2495 eV --> (shifted to ZERO)
# Broadening          =     0.0500 eV
#
#        E            N(up)  (=)   N(down)         Ntot
     -5.000000     32.012066     32.012066     64.024131
     -4.989990     36.215212     36.215212     72.430424
     -4.979980     40.107740     40.107740     80.215480
     -4.969970     43.105705     43.105705     86.211410
     -4.959960     44.693011     44.693011     89.386021
     -4.949950     44.586347     44.586347     89.172693
     -4.939940     42.838611     42.838611     85.677223
     -4.929930     39.848241     39.848241     79.696482
     -4.919920     36.286456     36.286456     72.572911
     -4.909910     32.979598     32.979598     65.959196
     -4.899900     30.775792     30.775792     61.551585
     -4.889890     30.399135     30.399135     60.798271
     -4.879880     32.283678     32.283678     64.567356
     -4.869870     36.404934     36.404934     72.809868
     -4.859860     42.173537     42.173537     84.347074
     -4.849850     48.478670     48.478670     96.957339
     -4.839840     53.929222     53.929222    107.858443
     -4.829830     57.244515     57.244515    114.489030
     -4.819820     57.650117     57.650117    115.300233
     -4.809810     55.106956     55.106956    110.213912
     -4.799800     50.272570     50.272570    100.545141
     -4.789790     44.224007     44.224007     88.448014
     -4.779780     38.082191     38.082191     76.164382
     -4.769770     32.702511     32.702511     65.405021
     -4.759760     28.532031     28.532031     57.064062
     -4.749750     25.633912     25.633912     51.267825
     -4.739740     23.809050     23.809050     47.618101
     -4.729730     22.733065     22.733065     45.466130
     -4.719720     22.058018     22.058018     44.116035
     -4.709710     21.468581     21.468581     42.937161
     -4.699700     20.708637     20.708637     41.417273
     -4.689690     19.601732     19.601732     39.203463
     -4.679680     18.081632     18.081632     36.163265
     -4.669670     16.233130     16.233130     32.466260
     -4.659660     14.325914     14.325914     28.651828
     -4.649650     12.815632     12.815632     25.631265
     -4.639640     12.291694     12.291694     24.583388
     -4.629630     13.367478     13.367478     26.734956
     -4.619620     16.527104     16.527104     33.054207
     -4.609610     21.959494     21.959494     43.918989
     -4.599600     29.425048     29.425048     58.850096
     -4.589590     38.209078     38.209078     76.418156
     -4.579580     47.207526     47.207526     94.415053
     -4.569570     55.153998     55.153998    110.307996
     -4.559560     60.939229     60.939229    121.878458
     -4.549550     63.921217     63.921217    127.842433
     -4.539540     64.108384     64.108384    128.216768
     -4.529530     62.135221     62.135221    124.270442
     -4.519520     59.028269     59.028269    118.056538
     -4.509510     55.846523     55.846523    111.693046
     -4.499499     53.334503     53.334503    106.669006
     -4.489489     51.721013     51.721013    103.442026
     -4.479479     50.731374     50.731374    101.462747
     -4.469469     49.785897     49.785897     99.571794
     -4.459459     48.280269     48.280269     96.560538
     -4.449449     45.822756     45.822756     91.645512
     -4.439439     42.344751     42.344751     84.689503
     -4.429429     38.075679     38.075679     76.151358
     -4.419419     33.435581     33.435581     66.871161
     -4.409409     28.916631     28.916631     57.833262
     -4.399399     24.997349     24.997349     49.994699
     -4.389389     22.088659     22.088659     44.177318
     -4.379379     20.485271     20.485271     40.970542
     -4.369369     20.306602     20.306602     40.613204
     -4.359359     21.444934     21.444934     42.889869
     -4.349349     23.562170     23.562170     47.124341
     -4.339339     26.165827     26.165827     52.331655
     -4.329329     28.753874     28.753874     57.507748
     -4.319319     30.975095     30.975095     61.950191
     -4.309309     32.736514     32.736514     65.473028
     -4.299299     34.210498     34.210498     68.420996
     -4.289289     35.736019     35.736019     71.472037
     -4.279279     37.648031     37.648031     75.296063
     -4.269269     40.093146     40.093146     80.186292
     -4.259259     42.898362     42.898362     85.796724
     -4.249249     45.553110     45.553110     91.106220
     -4.239239     47.336351     47.336351     94.672702
     -4.229229     47.565262     47.565262     95.130524
     -4.219219     45.875960     45.875960     91.751921
     -4.209209     42.408978     42.408978     84.817955
     -4.199199     37.799566     37.799566     75.599132
     -4.189189     32.964116     32.964116     65.928232
     -4.179179     28.779539     28.779539     57.559078
     -4.169169     25.806471     25.806471     51.612942
     -4.159159     24.176349     24.176349     48.352699
     -4.149149     23.670145     23.670145     47.340290
     -4.139139     23.921761     23.921761     47.843522
     -4.129129     24.631742     24.631742     49.263484
     -4.119119     25.689637     25.689637     51.379275
     -4.109109     27.156799     27.156799     54.313598
     -4.099099     29.127823     29.127823     58.255647
     -4.089089     31.546144     31.546144     63.092288
     -4.079079     34.078340     34.078340     68.156679
     -4.069069     36.134402     36.134402     72.268803
     -4.059059     37.053006     37.053006     74.106011
     -4.049049     36.378274     36.378274     72.756547
     -4.039039     34.091220     34.091220     68.182439
     -4.029029     30.671371     30.671371     61.342742
     -4.019019     26.951943     26.951943     53.903886
     -4.009009     23.842370     23.842370     47.684741
     -3.998999     22.055127     22.055127     44.110253
     -3.988989     21.953524     21.953524     43.907049
     -3.978979     23.554901     23.554901     47.109801
     -3.968969     26.638526     26.638526     53.277051
     -3.958959     30.872324     30.872324     61.744649
     -3.948949     35.898234     35.898234     71.796468
     -3.938939     41.370363     41.370363     82.740726
     -3.928929     46.976307     46.976307     93.952615
     -3.918919     52.465595     52.465595    104.931189
     -3.908909     57.674906     57.674906    115.349811
     -3.898899     62.515152     62.515152    125.030305
     -3.888889     66.898257     66.898257    133.796514
     -3.878879     70.625963     70.625963    141.251926
     -3.868869     73.305954     73.305954    146.611909
     -3.858859     74.367063     74.367063    148.734127
     -3.848849     73.203994     73.203994    146.407988
     -3.838839     69.412425     69.412425    138.824851
     -3.828829     63.016662     63.016662    126.033324
     -3.818819     54.579864     54.579864    109.159728
     -3.808809     45.132054     45.132054     90.264108
     -3.798799     35.931163     35.931163     71.862326
     -3.788789     28.144343     28.144343     56.288685
     -3.778779     22.564173     22.564173     45.128346
     -3.768769     19.449286     19.449286     38.898572
     -3.758759     18.523138     18.523138     37.046276
     -3.748749     19.110277     19.110277     38.220554
     -3.738739     20.357025     20.357025     40.714050
     -3.728729     21.474628     21.474628     42.949256
     -3.718719     21.948111     21.948111     43.896222
     -3.708709     21.664886     21.664886     43.329772
     -3.698699     20.931689     20.931689     41.863377
     -3.688689     20.369299     20.369299     40.738599
     -3.678679     20.703626     20.703626     41.407252
     -3.668669     22.505758     22.505758     45.011516
     -3.658659     25.961599     25.961599     51.923198
     -3.648649     30.756965     30.756965     61.513929
     -3.638639     36.132901     36.132901     72.265802
     -3.628629     41.101292     41.101292     82.202585
     -3.618619     44.739760     44.739760     89.479520
     -3.608609     46.448040     46.448040     92.896080
     -3.598599     46.071262     46.071262     92.142524
     -3.588589     43.866048     43.866048     87.732096
     -3.578579     40.357196     40.357196     80.714393
     -3.568569     36.162557     36.162557     72.325114
     -3.558559     31.844966     31.844966     63.689931
     -3.548549     27.813043     27.813043     55.626086
     -3.538539     24.271446     24.271446     48.542892
     -3.528529     21.222105     21.222105     42.444210
     -3.518519     18.520625     18.520625     37.041251
     -3.508509     15.977811     15.977811     31.955622
     -3.498498     13.471103     13.471103     26.942206
     -3.488488     11.018542     11.018542     22.037085
     -3.478478      8.783921      8.783921     17.567841
     -3.468468      7.016459      7.016459     14.032919
     -3.458458      5.956888      5.956888     11.913775
     -3.448448      5.748047      5.748047     11.496094
     -3.438438      6.376611      6.376611     12.753221
     -3.428428      7.658827      7.658827     15.317655
     -3.418418      9.275899      9.275899     18.551799
     -3.408408     10.858040     10.858040     21.716080
     -3.398398     12.101242     12.101242     24.202484
     -3.388388     12.879724     12.879724     25.759448
     -3.378378     13.306148     13.306148     26.612295
     -3.368368     13.706631     13.706631     27.413262
     -3.358358     14.515402     14.515402     29.030804
     -3.348348     16.131368     16.131368     32.262736
     -3.338338     18.790091     18.790091     37.580183
     -3.328328     22.484366     22.484366     44.968731
     -3.318318     26.936107     26.936107     53.872215
     -3.308308     31.609997     31.609997     63.219994
     -3.298298     35.772584     35.772584     71.545167
     -3.288288     38.615716     38.615716     77.231433
     -3.278278     39.448407     39.448407     78.896814
     -3.268268     37.912867     37.912867     75.825734
     -3.258258     34.135374     34.135374     68.270748
     -3.248248     28.727947     28.727947     57.455893
     -3.238238     22.623287     22.623287     45.246573
     -3.228228     16.811268     16.811268     33.622535
     -3.218218     12.089810     12.089810     24.179620
     -3.208208      8.918704      8.918704     17.837409
     -3.198198      7.397941      7.397941     14.795882
     -3.188188      7.334767      7.334767     14.669534
     -3.178178      8.349376      8.349376     16.698752
     -3.168168      9.989948      9.989948     19.979897
     -3.158158     11.850241     11.850241     23.700482
     -3.148148     13.681672     13.681672     27.363345
     -3.138138     15.470919     15.470919     30.941838
     -3.128128     17.440320     17.440320     34.880640
     -3.118118     19.945901     19.945901     39.891803
     -3.108108     23.295062     23.295062     46.590124
     -3.098098     27.555067     27.555067     55.110133
     -3.088088     32.440673     32.440673     64.881345
     -3.078078     37.339591     37.339591     74.679182
     -3.068068     41.472120     41.472120     82.944241
     -3.058058     44.119665     44.119665     88.239330
     -3.048048     44.827996     44.827996     89.655992
     -3.038038     43.508631     43.508631     87.017262
     -3.028028     40.414393     40.414393     80.828786
     -3.018018     36.023924     36.023924     72.047849
     -3.008008     30.903416     30.903416     61.806833
     -2.997998     25.606768     25.606768     51.213537
     -2.987988     20.637549     20.637549     41.275098
     -2.977978     16.454530     16.454530     32.909060
     -2.967968     13.481879     13.481879     26.963758
     -2.957958     12.091593     12.091593     24.183187
     -2.947948     12.548156     12.548156     25.096312
     -2.937938     14.928434     14.928434     29.856868
     -2.927928     19.045834     19.045834     38.091668
     -2.917918     24.415281     24.415281     48.830562
     -2.907908     30.292282     30.292282     60.584564
     -2.897898     35.800130     35.800130     71.600261
     -2.887888     40.124297     40.124297     80.248593
     -2.877878     42.715208     42.715208     85.430416
     -2.867868     43.422046     43.422046     86.844092
     -2.857858     42.497904     42.497904     84.995808
     -2.847848     40.468237     40.468237     80.936473
     -2.837838     37.916315     37.916315     75.832629
     -2.827828     35.278787     35.278787     70.557573
     -2.817818     32.738897     32.738897     65.477795
     -2.807808     30.255440     30.255440     60.510881
     -2.797798     27.697191     27.697191     55.394382
     -2.787788     25.001310     25.001310     50.002621
     -2.777778     22.267362     22.267362     44.534724
     -2.767768     19.739508     19.739508     39.479016
     -2.757758     17.695289     17.695289     35.390577
     -2.747748     16.312942     16.312942     32.625884
     -2.737738     15.599644     15.599644     31.199287
     -2.727728     15.423514     15.423514     30.847029
     -2.717718     15.625696     15.625696     31.251391
     -2.707708     16.136004     16.136004     32.272009
     -2.697698     17.011586     17.011586     34.023171
     -2.687688     18.368108     18.368108     36.736215
     -2.677678     20.247096     20.247096     40.494192
     -2.667668     22.511688     22.511688     45.023376
     -2.657658     24.850648     24.850648     49.701296
     -2.647648     26.901164     26.901164     53.802328
     -2.637638     28.419889     28.419889     56.839778
     -2.627628     29.395641     29.395641     58.791283
     -2.617618     30.033474     30.033474     60.066948
     -2.607608     30.623799     30.623799     61.247599
     -2.597598     31.381455     31.381455     62.762909
     -2.587588     32.347659     32.347659     64.695317
     -2.577578     33.392330     33.392330     66.784661
     -2.567568     34.283907     34.283907     68.567814
     -2.557558     34.764498     34.764498     69.528996
     -2.547548     34.595558     34.595558     69.191117
     -2.537538     33.588299     33.588299     67.176598
     -2.527528     31.653190     31.653190     63.306381
     -2.517518     28.875345     28.875345     57.750689
     -2.507508     25.575637     25.575637     51.151275
     -2.497497     22.297875     22.297875     44.595750
     -2.487487     19.692358     19.692358     39.384717
     -2.477477     18.326044     18.326044     36.652088
     -2.467467     18.497496     18.497496     36.994992
     -2.457457     20.140680     20.140680     40.281359
     -2.447447     22.863698     22.863698     45.727396
     -2.437437     26.107897     26.107897     52.215795
     -2.427427     29.357921     29.357921     58.715842
     -2.417417     32.308662     32.308662     64.617324
     -2.407407     34.913268     34.913268     69.826536
     -2.397397     37.292035     37.292035     74.584071
     -2.387387     39.550784     39.550784     79.101568
     -2.377377     41.605219     41.605219     83.210439
     -2.367367     43.109179     43.109179     86.218359
     -2.357357     43.536287     43.536287     87.072574
     -2.347347     42.388508     42.388508     84.777016
     -2.337337     39.438831     39.438831     78.877661
     -2.327327     34.893741     34.893741     69.787482
     -2.317317     29.397446     29.397446     58.794893
     -2.307307     23.875063     23.875063     47.750126
     -2.297297     19.284193     19.284193     38.568387
     -2.287287     16.375024     16.375024     32.750047
     -2.277277     15.538318     15.538318     31.076635
     -2.267267     16.770189     16.770189     33.540378
     -2.257257     19.735204     19.735204     39.470408
     -2.247247     23.885074     23.885074     47.770148
     -2.237237     28.588480     28.588480     57.176961
     -2.227227     33.237944     33.237944     66.475887
     -2.217217     37.314693     37.314693     74.629385
     -2.207207     40.410601     40.410601     80.821202
     -2.197197     42.225086     42.225086     84.450171
     -2.187187     42.565954     42.565954     85.131908
     -2.177177     41.375889     41.375889     82.751778
     -2.167167     38.779011     38.779011     77.558021
     -2.157157     35.110299     35.110299     70.220599
     -2.147147     30.880770     30.880770     61.761540
     -2.137137     26.659432     26.659432     53.318863
     -2.127127     22.907060     22.907060     45.814119
     -2.117117     19.839176     19.839176     39.678352
     -2.107107     17.391314     17.391314     34.782629
     -2.097097     15.305842     15.305842     30.611683
     -2.087087     13.291190     13.291190     26.582379
     -2.077077     11.167544     11.167544     22.335088
     -2.067067      8.930218      8.930218     17.860435
     -2.057057      6.716578      6.716578     13.433156
     -2.047047      4.715173      4.715173      9.430346
     -2.037037      3.075351      3.075351      6.150701
     -2.027027      1.858743      1.858743      3.717487
     -2.017017      1.040560      1.040560      2.081121
     -2.007007      0.542749      0.542749      1.085499
     -1.996997      0.274222      0.274222      0.548444
     -1.986987      0.161592      0.161592      0.323185
     -1.976977      0.166296      0.166296      0.332591
     -1.966967      0.291814      0.291814      0.583629
     -1.956957      0.585467      0.585467      1.170934
     -1.946947      1.135125      1.135125      2.270250
     -1.936937      2.056774      2.056774      4.113548
     -1.926927      3.468265      3.468265      6.936530
     -1.916917      5.450108      5.450108     10.900217
     -1.906907      8.003937      8.003937     16.007875
     -1.896897     11.026927     11.026927     22.053853
     -1.886887     14.318594     14.318594     28.637188
     -1.876877     17.622616     17.622616     35.245231
     -1.866867     20.687634     20.687634     41.375269
     -1.856857     23.320122     23.320122     46.640245
     -1.846847     25.407534     25.407534     50.815067
     -1.836837     26.907514     26.907514     53.815027
     -1.826827     27.816196     27.816196     55.632392
     -1.816817     28.134982     28.134982     56.269964
     -1.806807     27.850349     27.850349     55.700698
     -1.796797     26.932636     26.932636     53.865271
     -1.786787     25.353465     25.353465     50.706931
     -1.776777     23.117089     23.117089     46.234179
     -1.766767     20.295224     20.295224     40.590447
     -1.756757     17.049104     17.049104     34.098208
     -1.746747     13.622912     13.622912     27.245823
     -1.736737     10.304153     10.304153     20.608307
     -1.726727      7.364595      7.364595     14.729190
     -1.716717      5.007794      5.007794     10.015589
     -1.706707      3.346178      3.346178      6.692355
     -1.696697      2.412940      2.412940      4.825881
     -1.686687      2.193293      2.193293      4.386587
     -1.676677      2.649075      2.649075      5.298149
     -1.666667      3.716923      3.716923      7.433846
     -1.656657      5.279728      5.279728     10.559456
     -1.646647      7.133093      7.133093     14.266186
     -1.636637      8.979872      8.979872     17.959745
     -1.626627     10.477147     10.477147     20.954293
