# EIG2DOS: Utility for SIESTA to obtain the electronic density of states
#  E. Artacho, Apr 1999, A. Garcia, Apr 2012
#  Nick R. Papior, Feb 2017
# ------------------------------------------
# Eigenvalues calculated from a non-polarized calculation
# Eigenvalues read from siesta.EIG
# Kpoint weights read from siesta.KP
# Using smearing parameter:   0.0500
# Using 1000 points in the energy range
# Selected bands: 1 to: 2981
# Emin, Emax in file for selected band(s):    -27.1267914    218.3721450
# Nbands, Nspin, Nk   =   2981     1     1
# E_F                 =    -4.2262 eV --> (shifted to ZERO)
# Broadening          =     0.0500 eV
#
#        E            N(up)  (=)   N(down)         Ntot
     -5.000000     33.776992     33.776992     67.553984
     -4.989990     38.085576     38.085576     76.171152
     -4.979980     41.803469     41.803469     83.606937
     -4.969970     44.327891     44.327891     88.655781
     -4.959960     45.218993     45.218993     90.437986
     -4.949950     44.343545     44.343545     88.687090
     -4.939940     41.927055     41.927055     83.854109
     -4.929930     38.509061     38.509061     77.018122
     -4.919920     34.837457     34.837457     69.674915
     -4.909910     31.744902     31.744902     63.489804
     -4.899900     30.025185     30.025185     60.050371
     -4.889890     30.298415     30.298415     60.596830
     -4.879880     32.854475     32.854475     65.708950
     -4.869870     37.502740     37.502740     75.005481
     -4.859860     43.502953     43.502953     87.005906
     -4.849850     49.659721     49.659721     99.319441
     -4.839840     54.605139     54.605139    109.210279
     -4.829830     57.193829     57.193829    114.387658
     -4.819820     56.855249     56.855249    113.710497
     -4.809810     53.748380     53.748380    107.496761
     -4.799800     48.653178     48.653178     97.306355
     -4.789790     42.660357     42.660357     85.320715
     -4.779780     36.809129     36.809129     73.618259
     -4.769770     31.822841     31.822841     63.645682
     -4.759760     28.017241     28.017241     56.034481
     -4.749750     25.362023     25.362023     50.724046
     -4.739740     23.619028     23.619028     47.238056
     -4.729730     22.478073     22.478073     44.956146
     -4.719720     21.644966     21.644966     43.289932
     -4.709710     20.876197     20.876197     41.752394
     -4.699700     19.982426     19.982426     39.964851
     -4.689690     18.832345     18.832345     37.664691
     -4.679680     17.379725     17.379725     34.759451
     -4.669670     15.713647     15.713647     31.427294
     -4.659660     14.106820     14.106820     28.213640
     -4.649650     13.024677     13.024677     26.049355
     -4.639640     13.066644     13.066644     26.133288
     -4.629630     14.835309     14.835309     29.670617
     -4.619620     18.757285     18.757285     37.514570
     -4.609610     24.902857     24.902857     49.805714
     -4.599600     32.865725     32.865725     65.731450
     -4.589590     41.762643     41.762643     83.525285
     -4.579580     50.385903     50.385903    100.771806
     -4.569570     57.488421     57.488421    114.976841
     -4.559560     62.120048     62.120048    124.240097
     -4.549550     63.896986     63.896986    127.793971
     -4.539540     63.098747     63.098747    126.197495
     -4.529530     60.548707     60.548707    121.097413
     -4.519520     57.318435     57.318435    114.636870
     -4.509510     54.365992     54.365992    108.731984
     -4.499499     52.243713     52.243713    104.487426
     -4.489489     50.980099     50.980099    101.960198
     -4.479479     50.165260     50.165260    100.330520
     -4.469469     49.183722     49.183722     98.367443
     -4.459459     47.483255     47.483255     94.966510
     -4.449449     44.769650     44.769650     89.539301
     -4.439439     41.069901     41.069901     82.139803
     -4.429429     36.676756     36.676756     73.353512
     -4.419419     32.035607     32.035607     64.071215
     -4.409409     27.637437     27.637437     55.274874
     -4.399399     23.946825     23.946825     47.893649
     -4.389389     21.353264     21.353264     42.706527
     -4.379379     20.119165     20.119165     40.238329
     -4.369369     20.317827     20.317827     40.635653
     -4.359359     21.788734     21.788734     43.577469
     -4.349349     24.152850     24.152850     48.305701
     -4.339339     26.909333     26.909333     53.818665
     -4.329329     29.589403     29.589403     59.178805
     -4.319319     31.905028     31.905028     63.810055
     -4.309309     33.826085     33.826085     67.652171
     -4.299299     35.551229     35.551229     71.102459
     -4.289289     37.383603     37.383603     74.767206
     -4.279279     39.558507     39.558507     79.117013
     -4.269269     42.085673     42.085673     84.171347
     -4.259259     44.666903     44.666903     89.333806
     -4.249249     46.733442     46.733442     93.466883
     -4.239239     47.612691     47.612691     95.225381
     -4.229229     46.779999     46.779999     93.559999
     -4.219219     44.097704     44.097704     88.195409
     -4.209209     39.926609     39.926609     79.853218
     -4.199199     35.040861     35.040861     70.081721
     -4.189189     30.371556     30.371556     60.743113
     -4.179179     26.693900     26.693900     53.387800
     -4.169169     24.400968     24.400968     48.801935
     -4.159159     23.457273     23.457273     46.914546
     -4.149149     23.530786     23.530786     47.061572
     -4.139139     24.218806     24.218806     48.437611
     -4.129129     25.250641     25.250641     50.501282
     -4.119119     26.573595     26.573595     53.147189
     -4.109109     28.289035     28.289035     56.578070
     -4.099099     30.476781     30.476781     60.953563
     -4.089089     33.003785     33.003785     66.007570
     -4.079079     35.431915     35.431915     70.863831
     -4.069069     37.100638     37.100638     74.201277
     -4.059059     37.370486     37.370486     74.740972
     -4.049049     35.916495     35.916495     71.832990
     -4.039039     32.918940     32.918940     65.837880
     -4.029029     29.046061     29.046061     58.092122
     -4.019019     25.235464     25.235464     50.470927
     -4.009009     22.386677     22.386677     44.773354
     -3.998999     21.111418     21.111418     42.222836
     -3.988989     21.636346     21.636346     43.272692
     -3.978979     23.858307     23.858307     47.716615
     -3.968969     27.478363     27.478363     54.956726
     -3.958959     32.128176     32.128176     64.256352
     -3.948949     37.443618     37.443618     74.887236
     -3.938939     43.094035     43.094035     86.188070
     -3.928929     48.799343     48.799343     97.598685
     -3.918919     54.350018     54.350018    108.700036
     -3.908909     59.612114     59.612114    119.224228
     -3.898899     64.487621     64.487621    128.975242
     -3.888889     68.825957     68.825957    137.651914
     -3.878879     72.327001     72.327001    144.654001
     -3.868869     74.503529     74.503529    149.007057
     -3.858859     74.755618     74.755618    149.511235
     -3.848849     72.555448     72.555448    145.110896
     -3.838839     67.677730     67.677730    135.355461
     -3.828829     60.375028     60.375028    120.750055
     -3.818819     51.410473     51.410473    102.820946
     -3.808809     41.918025     41.918025     83.836050
     -3.798799     33.133434     33.133434     66.266869
     -3.788789     26.090752     26.090752     52.181504
     -3.778779     21.386375     21.386375     42.772750
     -3.768769     19.078145     19.078145     38.156291
     -3.758759     18.734108     18.734108     37.468216
     -3.748749     19.600057     19.600057     39.200113
     -3.738739     20.830447     20.830447     41.660894
     -3.728729     21.722258     21.722258     43.444516
     -3.718719     21.898003     21.898003     43.796006
     -3.708709     21.396376     21.396376     42.792751
     -3.698699     20.646111     20.646111     41.292222
     -3.688689     20.322513     20.322513     40.645026
     -3.678679     21.116961     21.116961     42.233923
     -3.668669     23.482073     23.482073     46.964146
     -3.658659     27.436262     27.436262     54.872523
     -3.648649     32.504875     32.504875     65.009749
     -3.638639     37.832053     37.832053     75.664106
     -3.628629     42.428891     42.428891     84.857781
     -3.618619     45.462103     45.462103     90.924206
     -3.608609     46.470365     46.470365     92.940729
     -3.598599     45.436121     45.436121     90.872242
     -3.588589     42.713901     42.713901     85.427803
     -3.578579     38.874810     38.874810     77.749620
     -3.568569     34.539130     34.539130     69.078260
     -3.558559     30.242014     30.242014     60.484028
     -3.548549     26.345239     26.345239     52.690477
     -3.538539     22.996627     22.996627     45.993254
     -3.528529     20.143473     20.143473     40.286946
     -3.518519     17.604003     17.604003     35.208006
     -3.508509     15.179885     15.179885     30.359770
     -3.498498     12.767138     12.767138     25.534275
     -3.488488     10.417280     10.417280     20.834561
     -3.478478      8.324265      8.324265     16.648530
     -3.468468      6.749502      6.749502     13.499005
     -3.458458      5.921934      5.921934     11.843868
     -3.448448      5.951126      5.951126     11.902253
     -3.438438      6.777706      6.777706     13.555413
     -3.428428      8.172452      8.172452     16.344905
     -3.418418      9.788061      9.788061     19.576123
     -3.408408     11.258405     11.258405     22.516811
     -3.398398     12.322191     12.322191     24.644382
     -3.388388     12.928051     12.928051     25.856101
     -3.378378     13.273729     13.273729     26.547458
     -3.368368     13.754455     13.754455     27.508910
     -3.358358     14.835758     14.835758     29.671516
     -3.348348     16.898675     16.898675     33.797351
     -3.338338     20.109654     20.109654     40.219308
     -3.328328     24.345632     24.345632     48.691265
     -3.318318     29.179594     29.179594     58.359187
     -3.308308     33.924601     33.924601     67.849202
     -3.298298     37.742267     37.742267     75.484534
     -3.288288     39.820167     39.820167     79.640334
     -3.278278     39.592800     39.592800     79.185600
     -3.268268     36.935749     36.935749     73.871499
     -3.258258     32.243684     32.243684     64.487368
     -3.248248     26.340212     26.340212     52.680423
     -3.238238     20.246928     20.246928     40.493856
     -3.228228     14.907520     14.907520     29.815040
     -3.218218     10.973802     10.973802     21.947603
     -3.208208      8.713043      8.713043     17.426086
     -3.198198      8.031303      8.031303     16.062606
     -3.188188      8.570422      8.570422     17.140844
     -3.178178      9.838495      9.838495     19.676989
     -3.168168     11.352331     11.352331     22.704662
     -3.158158     12.776546     12.776546     25.553092
     -3.148148     14.030583     14.030583     28.061166
     -3.138138     15.321000     15.321000     30.641999
     -3.128128     17.066026     17.066026     34.132051
     -3.118118     19.718860     19.718860     39.437719
     -3.108108     23.546541     23.546541     47.093082
     -3.098098     28.452611     28.452611     56.905223
     -3.088088     33.923610     33.923610     67.847221
     -3.078078     39.132641     39.132641     78.265281
     -3.068068     43.167901     43.167901     86.335802
     -3.058058     45.299598     45.299598     90.599196
     -3.048048     45.181024     45.181024     90.362049
     -3.038038     42.909887     42.909887     85.819773
     -3.028028     38.941683     38.941683     77.883367
     -3.018018     33.914345     33.914345     67.828689
     -3.008008     28.474950     28.474950     56.949900
     -2.997998     23.178892     23.178892     46.357783
     -2.987988     18.476726     18.476726     36.953452
     -2.977978     14.752130     14.752130     29.504260
     -2.967968     12.355563     12.355563     24.711126
     -2.957958     11.594814     11.594814     23.189627
     -2.947948     12.676166     12.676166     25.352331
     -2.937938     15.617913     15.617913     31.235826
     -2.927928     20.173187     20.173187     40.346373
     -2.917918     25.802306     25.802306     51.604612
     -2.907908     31.726041     31.726041     63.452083
     -2.897898     37.067335     37.067335     74.134670
     -2.887888     41.052451     41.052451     82.104902
     -2.877878     43.207224     43.207224     86.414448
     -2.867868     43.471284     43.471284     86.942568
     -2.857858     42.177060     42.177060     84.354119
     -2.847848     39.895646     39.895646     79.791292
     -2.837838     37.212865     37.212865     74.425730
     -2.827828     34.533111     34.533111     69.066222
     -2.817818     31.994966     31.994966     63.989932
     -2.807808     29.525620     29.525620     59.051240
     -2.797798     26.990347     26.990347     53.980695
     -2.787788     24.347267     24.347267     48.694533
     -2.777778     21.721670     21.721670     43.443340
     -2.767768     19.365510     19.365510     38.731020
     -2.757758     17.536217     17.536217     35.072433
     -2.747748     16.374959     16.374959     32.749917
     -2.737738     15.860583     15.860583     31.721166
     -2.727728     15.864017     15.864017     31.728034
     -2.717718     16.260576     16.260576     32.521153
     -2.707708     17.018044     17.018044     34.036088
     -2.697698     18.194563     18.194563     36.389127
     -2.687688     19.844373     19.844373     39.688747
     -2.677678     21.898945     21.898945     43.797890
     -2.667668     24.116282     24.116282     48.232564
     -2.657658     26.149989     26.149989     52.299977
     -2.647648     27.707162     27.707162     55.414324
     -2.637638     28.697836     28.697836     57.395673
     -2.627628     29.278095     29.278095     58.556190
     -2.617618     29.756944     29.756944     59.513888
     -2.607608     30.425248     30.425248     60.850495
     -2.597598     31.409655     31.409655     62.819310
     -2.587588     32.626014     32.626014     65.252028
     -2.577578     33.832963     33.832963     67.665927
     -2.567568     34.727478     34.727478     69.454955
     -2.557558     35.021965     35.021965     70.043931
     -2.547548     34.487037     34.487037     68.974074
     -2.537538     32.986817     32.986817     65.973634
     -2.527528     30.534035     30.534035     61.068071
     -2.517518     27.353242     27.353242     54.706484
     -2.507508     23.902878     23.902878     47.805757
     -2.497497     20.809176     20.809176     41.618352
     -2.487487     18.709644     18.709644     37.419288
     -2.477477     18.059529     18.059529     36.119058
     -2.467467     18.983429     18.983429     37.966859
     -2.457457     21.239813     21.239813     42.479626
     -2.447447     24.318133     24.318133     48.636265
     -2.437437     27.630533     27.630533     55.261066
     -2.427427     30.717839     30.717839     61.435678
     -2.417417     33.380804     33.380804     66.761607
     -2.407407     35.678323     35.678323     71.356646
     -2.397397     37.793996     37.793996     75.587993
     -2.387387     39.835706     39.835706     79.671412
     -2.377377     41.670074     41.670074     83.340149
     -2.367367     42.884129     42.884129     85.768258
     -2.357357     42.909765     42.909765     85.819529
     -2.347347     41.265745     41.265745     82.531490
     -2.337337     37.807189     37.807189     75.614379
     -2.327327     32.861734     32.861734     65.723467
     -2.317317     27.185324     27.185324     54.370648
     -2.307307     21.759473     21.759473     43.518945
     -2.297297     17.523144     17.523144     35.046287
     -2.287287     15.147220     15.147220     30.294440
     -2.277277     14.919103     14.919103     29.838206
     -2.267267     16.744509     16.744509     33.489018
     -2.257257     20.230495     20.230495     40.460989
     -2.247247     24.802281     24.802281     49.604562
     -2.237237     29.816872     29.816872     59.633744
     -2.227227     34.652420     34.652420     69.304839
     -2.217217     38.765780     38.765780     77.531559
     -2.207207     41.722355     41.722355     83.444711
     -2.197197     43.212740     43.212740     86.425479
     -2.187187     43.074472     43.074472     86.148943
     -2.177177     41.326994     41.326994     82.653987
     -2.167167     38.204562     38.204562     76.409123
     -2.157157     34.150915     34.150915     68.301830
     -2.147147     29.742623     29.742623     59.485245
     -2.137137     25.543636     25.543636     51.087273
     -2.127127     21.942787     21.942787     43.885575
     -2.117117     19.051976     19.051976     38.103952
     -2.107107     16.720003     16.720003     33.440005
     -2.097097     14.655194     14.655194     29.310388
     -2.087087     12.589921     12.589921     25.179841
     -2.077077     10.402259     10.402259     20.804518
     -2.067067      8.143573      8.143573     16.287146
     -2.057057      5.978874      5.978874     11.957747
     -2.047047      4.089914      4.089914      8.179829
     -2.037037      2.596651      2.596651      5.193303
     -2.027027      1.527089      1.527089      3.054178
     -2.017017      0.832558      0.832558      1.665115
     -2.007007      0.425876      0.425876      0.851752
     -1.996997      0.219347      0.219347      0.438694
     -1.986987      0.150515      0.150515      0.301029
     -1.976977      0.195092      0.195092      0.390184
     -1.966967      0.371792      0.371792      0.743584
     -1.956957      0.742376      0.742376      1.484752
     -1.946947      1.405567      1.405567      2.811135
     -1.936937      2.480069      2.480069      4.960138
     -1.926927      4.073598      4.073598      8.147196
     -1.916917      6.242337      6.242337     12.484673
     -1.906907      8.954815      8.954815     17.909630
     -1.896897     12.078497     12.078497     24.156994
     -1.886887     15.400103     15.400103     30.800205
     -1.876877     18.673686     18.673686     37.347372
     -1.866867     21.674487     21.674487     43.348974
     -1.856857     24.233972     24.233972     48.467943
     -1.846847     26.245006     26.245006     52.490013
     -1.836837     27.645166     27.645166     55.290333
     -1.826827     28.395987     28.395987     56.791974
     -1.816817     28.471119     28.471119     56.942239
     -1.806807     27.854974     27.854974     55.709948
     -1.796797     26.547504     26.547504     53.095007
     -1.786787     24.573323     24.573323     49.146645
     -1.776777     21.996673     21.996673     43.993345
     -1.766767     18.939850     18.939850     37.879700
     -1.756757     15.593795     15.593795     31.187591
     -1.746747     12.206496     12.206496     24.412991
     -1.736737      9.044869      9.044869     18.089738
     -1.726727      6.343390      6.343390     12.686779
     -1.716717      4.263661      4.263661      8.527322
     -1.706707      2.883655      2.883655      5.767310
     -1.696697      2.216567      2.216567      4.433135
     -1.686687      2.240503      2.240503      4.481007
     -1.676677      2.914113      2.914113      5.828226
     -1.666667      4.163889      4.163889      8.327777
     -1.656657      5.850191      5.850191     11.700382
     -1.646647      7.738898      7.738898     15.477797
     -1.636637      9.511112      9.511112     19.022223
     -1.626627     10.827961     10.827961     21.655923
