# EIG2DOS: Utility for SIESTA to obtain the electronic density of states
#  E. Artacho, Apr 1999, A. Garcia, Apr 2012
#  Nick R. Papior, Feb 2017
# ------------------------------------------
# Eigenvalues calculated from a non-polarized calculation
# Eigenvalues read from siesta.EIG
# Kpoint weights read from siesta.KP
# Using smearing parameter:   0.0500
# Using 1000 points in the energy range
# Selected bands: 1 to: 2981
# Emin, Emax in file for selected band(s):    -27.2718098    218.4067400
# Nbands, Nspin, Nk   =   2981     1     1
# E_F                 =    -4.1861 eV --> (shifted to ZERO)
# Broadening          =     0.0500 eV
#
#        E            N(up)  (=)   N(down)         Ntot
     -5.000000     31.884723     31.884723     63.769447
     -4.989990     37.228498     37.228498     74.456995
     -4.979980     42.242011     42.242011     84.484023
     -4.969970     46.024562     46.024562     92.049123
     -4.959960     47.841501     47.841501     95.683002
     -4.949950     47.372276     47.372276     94.744551
     -4.939940     44.821088     44.821088     89.642176
     -4.929930     40.861969     40.861969     81.723938
     -4.919920     36.465090     36.465090     72.930180
     -4.909910     32.681952     32.681952     65.363903
     -4.899900     30.445153     30.445153     60.890306
     -4.889890     30.397566     30.397566     60.795132
     -4.879880     32.749716     32.749716     65.499431
     -4.869870     37.186123     37.186123     74.372247
     -4.859860     42.872072     42.872072     85.744145
     -4.849850     48.608093     48.608093     97.216186
     -4.839840     53.124356     53.124356    106.248712
     -4.829830     55.430125     55.430125    110.860251
     -4.819820     55.087403     55.087403    110.174806
     -4.809810     52.299124     52.299124    104.598247
     -4.799800     47.783270     47.783270     95.566540
     -4.789790     42.499389     42.499389     84.998778
     -4.779780     37.350635     37.350635     74.701269
     -4.769770     32.976023     32.976023     65.952046
     -4.759760     29.686678     29.686678     59.373355
     -4.749750     27.525547     27.525547     55.051094
     -4.739740     26.381249     26.381249     52.762499
     -4.729730     26.081302     26.081302     52.162605
     -4.719720     26.422259     26.422259     52.844519
     -4.709710     27.143988     27.143988     54.287975
     -4.699700     27.897446     27.897446     55.794892
     -4.689690     28.267054     28.267054     56.534107
     -4.679680     27.879087     27.879087     55.758173
     -4.669670     26.569093     26.569093     53.138185
     -4.659660     24.529224     24.529224     49.058449
     -4.649650     22.346776     22.346776     44.693553
     -4.639640     20.887069     20.887069     41.774137
     -4.629630     21.042350     21.042350     42.084699
     -4.619620     23.426466     23.426466     46.852932
     -4.609610     28.120355     28.120355     56.240711
     -4.599600     34.564429     34.564429     69.128858
     -4.589590     41.655888     41.655888     83.311776
     -4.579580     48.045258     48.045258     96.090516
     -4.569570     52.547895     52.547895    105.095791
     -4.559560     54.523688     54.523688    109.047377
     -4.549550     54.071810     54.071810    108.143620
     -4.539540     51.955074     51.955074    103.910148
     -4.529530     49.283607     49.283607     98.567214
     -4.519520     47.091365     47.091365     94.182731
     -4.509510     45.978555     45.978555     91.957110
     -4.499499     45.953134     45.953134     91.906267
     -4.489489     46.511256     46.511256     93.022512
     -4.479479     46.896743     46.896743     93.793485
     -4.469469     46.416170     46.416170     92.832340
     -4.459459     44.681033     44.681033     89.362065
     -4.449449     41.697337     41.697337     83.394675
     -4.439439     37.799433     37.799433     75.598866
     -4.429429     33.491871     33.491871     66.983741
     -4.419419     29.289444     29.289444     58.578887
     -4.409409     25.621498     25.621498     51.242997
     -4.399399     22.810672     22.810672     45.621344
     -4.389389     21.086181     21.086181     42.172362
     -4.379379     20.580901     20.580901     41.161802
     -4.369369     21.294196     21.294196     42.588393
     -4.359359     23.050022     23.050022     46.100044
     -4.349349     25.502262     25.502262     51.004523
     -4.339339     28.217193     28.217193     56.434386
     -4.329329     30.812248     30.812248     61.624496
     -4.319319     33.087983     33.087983     66.175966
     -4.309309     35.085131     35.085131     70.170263
     -4.299299     37.031980     37.031980     74.063961
     -4.289289     39.197507     39.197507     78.395014
     -4.279279     41.707650     41.707650     83.415300
     -4.269269     44.401700     44.401700     88.803400
     -4.259259     46.798895     46.798895     93.597791
     -4.249249     48.211118     48.211118     96.422236
     -4.239239     47.979863     47.979863     95.959725
     -4.229229     45.752330     45.752330     91.504659
     -4.219219     41.675699     41.675699     83.351397
     -4.209209     36.410291     36.410291     72.820581
     -4.199199     30.940991     30.940991     61.881982
     -4.189189     26.262882     26.262882     52.525763
     -4.179179     23.076630     23.076630     46.153260
     -4.169169     21.619041     21.619041     43.238081
     -4.159159     21.684324     21.684324     43.368648
     -4.149149     22.803516     22.803516     45.607031
     -4.139139     24.486129     24.486129     48.972258
     -4.129129     26.411929     26.411929     52.823858
     -4.119119     28.491009     28.491009     56.982019
     -4.109109     30.772853     30.772853     61.545705
     -4.099099     33.258267     33.258267     66.516535
     -4.089089     35.723246     35.723246     71.446492
     -4.079079     37.669627     37.669627     75.339254
     -4.069069     38.458406     38.458406     76.916813
     -4.059059     37.579269     37.579269     75.158538
     -4.049049     34.922406     34.922406     69.844813
     -4.039039     30.905307     30.905307     61.810615
     -4.029029     26.382203     26.382203     52.764405
     -4.019019     22.380556     22.380556     44.761112
     -4.009009     19.793092     19.793092     39.586184
     -3.998999     19.158050     19.158050     38.316101
     -3.988989     20.594565     20.594565     41.189130
     -3.978979     23.875446     23.875446     47.750892
     -3.968969     28.567480     28.567480     57.134960
     -3.958959     34.168850     34.168850     68.337700
     -3.948949     40.207713     40.207713     80.415426
     -3.938939     46.301406     46.301406     92.602813
     -3.928929     52.187199     52.187199    104.374398
     -3.918919     57.723433     57.723433    115.446866
     -3.908909     62.847043     62.847043    125.694086
     -3.898899     67.483067     67.483067    134.966134
     -3.888889     71.434608     71.434608    142.869215
     -3.878879     74.312754     74.312754    148.625507
     -3.868869     75.565030     75.565030    151.130061
     -3.858859     74.619248     74.619248    149.238495
     -3.848849     71.098627     71.098627    142.197253
     -3.838839     65.020182     65.020182    130.040364
     -3.828829     56.887447     56.887447    113.774895
     -3.818819     47.630643     47.630643     95.261285
     -3.808809     38.409154     38.409154     76.818307
     -3.798799     30.342450     30.342450     60.684899
     -3.788789     24.255905     24.255905     48.511810
     -3.778779     20.514727     20.514727     41.029453
     -3.768769     18.984392     18.984392     37.968784
     -3.758759     19.116687     19.116687     38.233375
     -3.748749     20.129398     20.129398     40.258796
     -3.738739     21.230079     21.230079     42.460158
     -3.728729     21.829309     21.829309     43.658618
     -3.718719     21.693561     21.693561     43.387123
     -3.708709     21.000094     21.000094     42.000188
     -3.698699     20.275292     20.275292     40.550584
     -3.688689     20.223835     20.223835     40.447671
     -3.678679     21.487313     21.487313     42.974627
     -3.668669     24.400725     24.400725     48.801450
     -3.658659     28.830320     28.830320     57.660641
     -3.648649     34.161205     34.161205     68.322410
     -3.638639     39.452932     39.452932     78.905864
     -3.628629     43.711909     43.711909     87.423819
     -3.618619     46.175996     46.175996     92.351993
     -3.608609     46.502726     46.502726     93.005453
     -3.598599     44.803414     44.803414     89.606827
     -3.588589     41.539466     41.539466     83.078932
     -3.578579     37.348417     37.348417     74.696834
     -3.568569     32.870854     32.870854     65.741708
     -3.558559     28.619252     28.619252     57.238503
     -3.548549     24.899757     24.899757     49.799514
     -3.538539     21.788510     21.788510     43.577020
     -3.528529     19.166619     19.166619     38.333239
     -3.518519     16.811023     16.811023     33.622046
     -3.508509     14.515923     14.515923     29.031846
     -3.498498     12.198276     12.198276     24.396552
     -3.488488      9.943090      9.943090     19.886179
     -3.478478      7.973181      7.973181     15.946363
     -3.468468      6.564100      6.564100     13.128199
     -3.458458      5.944590      5.944590     11.889179
     -3.448448      6.219319      6.219319     12.438638
     -3.438438      7.334763      7.334763     14.669526
     -3.428428      9.095112      9.095112     18.190225
     -3.418418     11.225134     11.225134     22.450267
     -3.408408     13.464329     13.464329     26.928658
     -3.398398     15.659822     15.659822     31.319644
     -3.388388     17.816077     17.816077     35.632155
     -3.378378     20.073287     20.073287     40.146573
     -3.368368     22.622773     22.622773     45.245546
     -3.358358     25.603827     25.603827     51.207654
     -3.348348     29.032647     29.032647     58.065294
     -3.338338     32.783642     32.783642     65.567284
     -3.328328     36.602834     36.602834     73.205668
     -3.318318     40.120898     40.120898     80.241795
     -3.308308     42.862058     42.862058     85.724117
     -3.298298     44.284705     44.284705     88.569410
     -3.288288     43.893258     43.893258     87.786515
     -3.278278     41.411823     41.411823     82.823646
     -3.268268     36.944549     36.944549     73.889098
     -3.258258     31.025296     31.025296     62.050591
     -3.248248     24.508286     24.508286     49.016571
     -3.238238     18.339470     18.339470     36.678940
     -3.228228     13.310419     13.310419     26.620838
     -3.218218      9.891729      9.891729     19.783457
     -3.208208      8.185706      8.185706     16.371412
     -3.198198      7.978253      7.978253     15.956507
     -3.188188      8.845942      8.845942     17.691883
     -3.178178     10.285356     10.285356     20.570712
     -3.168168     11.848660     11.848660     23.697320
     -3.158158     13.267686     13.267686     26.535373
     -3.148148     14.531766     14.531766     29.063532
     -3.138138     15.876880     15.876880     31.753760
     -3.128128     17.666871     17.666871     35.333741
     -3.118118     20.197861     20.197861     40.395721
     -3.108108     23.506087     23.506087     47.012175
     -3.098098     27.273174     27.273174     54.546347
     -3.088088     30.885956     30.885956     61.771913
     -3.078078     33.635017     33.635017     67.270034
     -3.068068     34.964831     34.964831     69.929663
     -3.058058     34.659525     34.659525     69.319050
     -3.048048     32.880938     32.880938     65.761875
     -3.038038     30.054171     30.054171     60.108342
     -3.028028     26.675197     26.675197     53.350395
     -3.018018     23.148105     23.148105     46.296210
     -3.008008     19.728140     19.728140     39.456280
     -2.997998     16.574918     16.574918     33.149836
     -2.987988     13.856556     13.856556     27.713111
     -2.977978     11.827154     11.827154     23.654307
     -2.967968     10.828652     10.828652     21.657304
     -2.957958     11.215366     11.215366     22.430732
     -2.947948     13.234698     13.234698     26.469395
     -2.937938     16.909222     16.909222     33.818445
     -2.927928     21.961000     21.961000     43.922001
     -2.917918     27.808908     27.808908     55.617815
     -2.907908     33.655039     33.655039     67.310078
     -2.897898     38.652025     38.652025     77.304049
     -2.887888     42.110448     42.110448     84.220895
     -2.877878     43.677909     43.677909     87.355818
     -2.867868     43.418005     43.418005     86.836010
     -2.857858     41.749644     41.749644     83.499288
     -2.847848     39.265925     39.265925     78.531850
     -2.837838     36.509265     36.509265     73.018531
     -2.827828     33.802804     33.802804     67.605607
     -2.817818     31.210270     31.210270     62.420540
     -2.807808     28.629537     28.629537     57.259073
     -2.797798     25.955493     25.955493     51.910986
     -2.787788     23.215452     23.215452     46.430903
     -2.777778     20.603169     20.603169     41.206337
     -2.767768     18.401323     18.401323     36.802645
     -2.757758     16.848562     16.848562     33.697124
     -2.747748     16.036768     16.036768     32.073537
     -2.737738     15.899862     15.899862     31.799723
     -2.727728     16.292820     16.292820     32.585641
     -2.717718     17.098748     17.098748     34.197497
     -2.707708     18.283713     18.283713     36.567426
     -2.697698     19.858259     19.858259     39.716517
     -2.687688     21.776070     21.776070     43.552141
     -2.677678     23.853435     23.853435     47.706870
     -2.667668     25.786074     25.786074     51.572148
     -2.657658     27.272774     27.272774     54.545549
     -2.647648     28.174346     28.174346     56.348692
     -2.637638     28.602202     28.602202     57.204405
     -2.627628     28.871592     28.871592     57.743183
     -2.617618     29.342150     29.342150     58.684301
     -2.607608     30.239298     30.239298     60.478596
     -2.597598     31.554017     31.554017     63.108035
     -2.587588     33.058564     33.058564     66.117128
     -2.577578     34.402123     34.402123     68.804247
     -2.567568     35.218340     35.218340     70.436681
     -2.557558     35.200663     35.200663     70.401326
     -2.547548     34.148833     34.148833     68.297665
     -2.537538     32.013760     32.013760     64.027520
     -2.527528     28.950047     28.950047     57.900093
     -2.517518     25.348452     25.348452     50.696904
     -2.507508     21.804002     21.804002     43.608005
     -2.497497     18.998206     18.998206     37.996411
     -2.487487     17.520817     17.520817     35.041634
     -2.477477     17.695142     17.695142     35.390284
     -2.467467     19.477710     19.477710     38.955420
     -2.457457     22.476699     22.476699     44.953398
     -2.447447     26.087608     26.087608     52.175216
     -2.437437     29.697615     29.697615     59.395230
     -2.427427     32.878945     32.878945     65.757889
     -2.417417     35.490275     35.490275     70.980551
     -2.407407     37.639546     37.639546     75.279093
     -2.397397     39.522502     39.522502     79.045005
     -2.387387     41.214182     41.214182     82.428364
     -2.377377     42.523247     42.523247     85.046493
     -2.367367     42.998076     42.998076     85.996153
     -2.357357     42.100617     42.100617     84.201234
     -2.347347     39.472695     39.472695     78.945390
     -2.337337     35.162453     35.162453     70.324906
     -2.327327     29.694269     29.694269     59.388538
     -2.317317     23.947751     23.947751     47.895503
     -2.307307     18.908813     18.908813     37.817627
     -2.297297     15.408381     15.408381     30.816762
     -2.287287     13.947440     13.947440     27.894881
     -2.277277     14.645135     14.645135     29.290269
     -2.267267     17.286300     17.286300     34.572600
     -2.257257     21.417977     21.417977     42.835953
     -2.247247     26.451283     26.451283     52.902567
     -2.237237     31.746421     31.746421     63.492841
     -2.227227     36.676881     36.676881     73.353762
     -2.217217     40.678511     40.678511     81.357022
     -2.207207     43.292469     43.292469     86.584939
     -2.197197     44.210560     44.210560     88.421120
     -2.187187     43.325148     43.325148     86.650297
     -2.177177     40.772096     40.772096     81.544192
     -2.167167     36.939308     36.939308     73.878615
     -2.157157     32.409837     32.409837     64.819673
     -2.147147     27.829960     27.829960     55.659921
     -2.137137     23.735137     23.735137     47.470275
     -2.127127     20.404110     20.404110     40.808219
     -2.117117     17.812273     17.812273     35.624545
     -2.107107     15.710440     15.710440     31.420880
     -2.097097     13.789437     13.789437     27.578874
     -2.087087     11.847332     11.847332     23.694664
     -2.077077      9.881970      9.881970     19.763940
     -2.067067      8.078611      8.078611     16.157222
     -2.057057      6.716330      6.716330     13.432661
     -2.047047      6.045392      6.045392     12.090783
     -2.037037      6.183799      6.183799     12.367599
     -2.027027      7.060702      7.060702     14.121404
     -2.017017      8.416479      8.416479     16.832958
     -2.007007      9.859477      9.859477     19.718954
     -1.996997     10.969625     10.969625     21.939250
     -1.986987     11.423249     11.423249     22.846497
     -1.976977     11.098109     11.098109     22.196219
     -1.966967     10.117603     10.117603     20.235206
     -1.956957      8.815045      8.815045     17.630090
     -1.946947      7.632531      7.632531     15.265062
     -1.936937      6.993665      6.993665     13.987330
     -1.926927      7.192528      7.192528     14.385057
     -1.916917      8.326422      8.326422     16.652844
     -1.906907     10.280960     10.280960     20.561920
     -1.896897     12.763198     12.763198     25.526397
     -1.886887     15.371710     15.371710     30.743421
     -1.876877     17.687644     17.687644     35.375288
     -1.866867     19.366884     19.366884     38.733769
     -1.856857     20.213048     20.213048     40.426097
     -1.846847     20.215090     20.215090     40.430179
     -1.836837     19.539258     19.539258     39.078516
     -1.826827     18.472287     18.472287     36.944574
     -1.816817     17.324497     17.324497     34.648993
     -1.806807     16.319765     16.319765     32.639530
     -1.796797     15.515483     15.515483     31.030966
     -1.786787     14.793100     14.793100     29.586199
     -1.776777     13.930259     13.930259     27.860517
     -1.766767     12.721871     12.721871     25.443741
     -1.756757     11.088703     11.088703     22.177406
     -1.746747      9.120062      9.120062     18.240125
     -1.736737      7.037309      7.037309     14.074619
     -1.726727      5.109262      5.109262     10.218525
     -1.716717      3.570062      3.570062      7.140123
     -1.706707      2.576155      2.576155      5.152311
     -1.696697      2.206519      2.206519      4.413039
     -1.686687      2.482813      2.482813      4.965626
     -1.676677      3.379785      3.379785      6.759569
     -1.666667      4.811460      4.811460      9.622920
     -1.656657      6.603808      6.603808     13.207617
     -1.646647      8.483420      8.483420     16.966839
     -1.636637     10.111285     10.111285     20.222571
     -1.626627     11.168687     11.168687     22.337373
