# EIG2DOS: Utility for SIESTA to obtain the electronic density of states
#  E. Artacho, Apr 1999, A. Garcia, Apr 2012
#  Nick R. Papior, Feb 2017
# ------------------------------------------
# Eigenvalues calculated from a non-polarized calculation
# Eigenvalues read from siesta.EIG
# Kpoint weights read from siesta.KP
# Using smearing parameter:   0.0500
# Using 1000 points in the energy range
# Selected bands: 1 to: 2981
# Emin, Emax in file for selected band(s):    -27.1402914    218.3561810
# Nbands, Nspin, Nk   =   2981     1     1
# E_F                 =    -4.2560 eV --> (shifted to ZERO)
# Broadening          =     0.0500 eV
#
#        E            N(up)  (=)   N(down)         Ntot
     -5.000000     32.828350     32.828350     65.656699
     -4.989990     36.842819     36.842819     73.685639
     -4.979980     40.429544     40.429544     80.859089
     -4.969970     43.058066     43.058066     86.116131
     -4.959960     44.287328     44.287328     88.574657
     -4.949950     43.906832     43.906832     87.813664
     -4.939940     42.017827     42.017827     84.035654
     -4.929930     39.031515     39.031515     78.063030
     -4.919920     35.599530     35.599530     71.199061
     -4.909910     32.509585     32.509585     65.019169
     -4.899900     30.566992     30.566992     61.133984
     -4.889890     30.458044     30.458044     60.916088
     -4.879880     32.585417     32.585417     65.170835
     -4.869870     36.896743     36.896743     73.793487
     -4.859860     42.776737     42.776737     85.553474
     -4.849850     49.094443     49.094443     98.188886
     -4.839840     54.452717     54.452717    108.905434
     -4.829830     57.586422     57.586422    115.172844
     -4.819820     57.758475     57.758475    115.516951
     -4.809810     54.979275     54.979275    109.958550
     -4.799800     49.951877     49.951877     99.903754
     -4.789790     43.780427     43.780427     87.560854
     -4.779780     37.588835     37.588835     75.177669
     -4.769770     32.216147     32.216147     64.432293
     -4.759760     28.084787     28.084787     56.169574
     -4.749750     25.235674     25.235674     50.471348
     -4.739740     23.455905     23.455905     46.911811
     -4.729730     22.416707     22.416707     44.833415
     -4.719720     21.772992     21.772992     43.545983
     -4.709710     21.216195     21.216195     42.432389
     -4.699700     20.497380     20.497380     40.994760
     -4.689690     19.444652     19.444652     38.889305
     -4.679680     17.992048     17.992048     35.984096
     -4.669670     16.220739     16.220739     32.441478
     -4.659660     14.394857     14.394857     28.789714
     -4.649650     12.964067     12.964067     25.928134
     -4.639640     12.510327     12.510327     25.020653
     -4.629630     13.634282     13.634282     27.268565
     -4.619620     16.798411     16.798411     33.596822
     -4.609610     22.162629     22.162629     44.325258
     -4.599600     29.461384     29.461384     58.922768
     -4.589590     37.974839     37.974839     75.949679
     -4.579580     46.631271     46.631271     93.262543
     -4.569570     54.237732     54.237732    108.475465
     -4.559560     59.781934     59.781934    119.563868
     -4.549550     62.706732     62.706732    125.413464
     -4.539540     63.055454     63.055454    126.110909
     -4.529530     61.428368     61.428368    122.856737
     -4.519520     58.760809     58.760809    117.521618
     -4.509510     56.001994     56.001994    112.003989
     -4.499499     53.812103     53.812103    107.624207
     -4.489489     52.387390     52.387390    104.774780
     -4.479479     51.470073     51.470073    102.940146
     -4.469469     50.522544     50.522544    101.045088
     -4.459459     48.979351     48.979351     97.958701
     -4.449449     46.467907     46.467907     92.935813
     -4.439439     42.919626     42.919626     85.839252
     -4.429429     38.556684     38.556684     77.113369
     -4.419419     33.797422     33.797422     67.594845
     -4.409409     29.143895     29.143895     58.287789
     -4.399399     25.093553     25.093553     50.187106
     -4.389389     22.077500     22.077500     44.155001
     -4.379379     20.403986     20.403986     40.807971
     -4.369369     20.195357     20.195357     40.390714
     -4.359359     21.337361     21.337361     42.674721
     -4.349349     23.480523     23.480523     46.961046
     -4.339339     26.121271     26.121271     52.242543
     -4.329329     28.749763     28.749763     57.499526
     -4.319319     31.010095     31.010095     62.020191
     -4.309309     32.805334     32.805334     65.610668
     -4.299299     34.302154     34.302154     68.604308
     -4.289289     35.831853     35.831853     71.663705
     -4.279279     37.722695     37.722695     75.445391
     -4.269269     40.120617     40.120617     80.241234
     -4.259259     42.861975     42.861975     85.723950
     -4.249249     45.455315     45.455315     90.910630
     -4.239239     47.202719     47.202719     94.405437
     -4.229229     47.439453     47.439453     94.878906
     -4.219219     45.806887     45.806887     91.613774
     -4.209209     42.435364     42.435364     84.870728
     -4.199199     37.938112     37.938112     75.876223
     -4.189189     33.205153     33.205153     66.410307
     -4.179179     29.090377     29.090377     58.180753
     -4.169169     26.139850     26.139850     52.279700
     -4.159159     24.480728     24.480728     48.961456
     -4.149149     23.899411     23.899411     47.798823
     -4.139139     24.043208     24.043208     48.086415
     -4.129129     24.631780     24.631780     49.263560
     -4.119119     25.576519     25.576519     51.153037
     -4.109109     26.959157     26.959157     53.918315
     -4.099099     28.888188     28.888188     57.776376
     -4.089089     31.310290     31.310290     62.620581
     -4.079079     33.883803     33.883803     67.767605
     -4.069069     36.002819     36.002819     72.005637
     -4.059059     36.989560     36.989560     73.979120
     -4.049049     36.377639     36.377639     72.755277
     -4.039039     34.145457     34.145457     68.290913
     -4.029029     30.774159     30.774159     61.548319
     -4.019019     27.096387     27.096387     54.192773
     -4.009009     24.014634     24.014634     48.029268
     -3.998999     22.229733     22.229733     44.459466
     -3.988989     22.095563     22.095563     44.191125
     -3.978979     23.629886     23.629886     47.259771
     -3.968969     26.625294     26.625294     53.250588
     -3.958959     30.771908     30.771908     61.543815
     -3.948949     35.733768     35.733768     71.467535
     -3.938939     41.178182     41.178182     82.356364
     -3.928929     46.792970     46.792970     93.585939
     -3.918919     52.316989     52.316989    104.633977
     -3.908909     57.571603     57.571603    115.143206
     -3.898899     62.454568     62.454568    124.909135
     -3.888889     66.871048     66.871048    133.742097
     -3.878879     70.622680     70.622680    141.245361
     -3.868869     73.320474     73.320474    146.640948
     -3.858859     74.395538     74.395538    148.791076
     -3.848849     73.240955     73.240955    146.481910
     -3.838839     69.447650     69.447650    138.895300
     -3.828829     63.035995     63.035995    126.071990
     -3.818819     54.570307     54.570307    109.140614
     -3.808809     45.088112     45.088112     90.176224
     -3.798799     35.858195     35.858195     71.716391
     -3.788789     28.056551     28.056551     56.113102
     -3.778779     22.478355     22.478355     44.956710
     -3.768769     19.378005     19.378005     38.756011
     -3.758759     18.470885     18.470885     36.941771
     -3.748749     19.074007     19.074007     38.148014
     -3.738739     20.329915     20.329915     40.659831
     -3.728729     21.450578     21.450578     42.901157
     -3.718719     21.924774     21.924774     43.849549
     -3.708709     21.644288     21.644288     43.288576
     -3.698699     20.918786     20.918786     41.837572
     -3.688689     20.369560     20.369560     40.739119
     -3.678679     20.720774     20.720774     41.441548
     -3.668669     22.540487     22.540487     45.080975
     -3.658659     26.011591     26.011591     52.023183
     -3.648649     30.818070     30.818070     61.636140
     -3.638639     36.200842     36.200842     72.401684
     -3.628629     41.172932     41.172932     82.345864
     -3.618619     44.813101     44.813101     89.626202
     -3.608609     46.520886     46.520886     93.041772
     -3.598599     46.139500     46.139500     92.278999
     -3.588589     43.923028     43.923028     87.846056
     -3.578579     40.395103     40.395103     80.790206
     -3.568569     36.175231     36.175231     72.350462
     -3.558559     31.830449     31.830449     63.660898
     -3.548549     27.774178     27.774178     55.548356
     -3.538539     24.214246     24.214246     48.428491
     -3.528529     21.153186     21.153186     42.306373
     -3.518519     18.445554     18.445554     36.891108
     -3.508509     15.901315     15.901315     31.802630
     -3.498498     13.398648     13.398648     26.797297
     -3.488488     10.957840     10.957840     21.915681
     -3.478478      8.745097      8.745097     17.490194
     -3.468468      7.010412      7.010412     14.020825
     -3.458458      5.992145      5.992145     11.984289
     -3.448448      5.826923      5.826923     11.653845
     -3.438438      6.491843      6.491843     12.983687
     -3.428428      7.792251      7.792251     15.584503
     -3.418418      9.400632      9.400632     18.801264
     -3.408408     10.944624     10.944624     21.889248
     -3.398398     12.126271     12.126271     24.252543
     -3.388388     12.833762     12.833762     25.667524
     -3.378378     13.197594     13.197594     26.395188
     -3.368368     13.559907     13.559907     27.119814
     -3.358358     14.364370     14.364370     28.728740
     -3.348348     16.010605     16.010605     32.021209
     -3.338338     18.726639     18.726639     37.453278
     -3.328328     22.491580     22.491580     44.983161
     -3.318318     27.010365     27.010365     54.020729
     -3.308308     31.730920     31.730920     63.461839
     -3.298298     35.907403     35.907403     71.814806
     -3.288288     38.727390     38.727390     77.454781
     -3.278278     39.505113     39.505113     79.010226
     -3.268268     37.894739     37.894739     75.789479
     -3.258258     34.034458     34.034458     68.068917
     -3.248248     28.539940     28.539940     57.079880
     -3.238238     22.333820     22.333820     44.667641
     -3.228228     16.383493     16.383493     32.766986
     -3.218218     11.462064     11.462064     22.924128
     -3.208208      8.019627      8.019627     16.039254
     -3.198198      6.180440      6.180440     12.360881
     -3.188188      5.819963      5.819963     11.639925
     -3.178178      6.660762      6.660762     13.321524
     -3.168168      8.353910      8.353910     16.707821
     -3.158158     10.548832     10.548832     21.097663
     -3.148148     12.966792     12.966792     25.933585
     -3.138138     15.473924     15.473924     30.947848
     -3.128128     18.120294     18.120294     36.240589
     -3.118118     21.103840     21.103840     42.207679
     -3.108108     24.647774     24.647774     49.295549
     -3.098098     28.832777     28.832777     57.665553
     -3.088088     33.464405     33.464405     66.928809
     -3.078078     38.050908     38.050908     76.101816
     -3.068068     41.914917     41.914917     83.829835
     -3.058058     44.394080     44.394080     88.788160
     -3.048048     45.041384     45.041384     90.082767
     -3.038038     43.740905     43.740905     87.481810
     -3.028028     40.703516     40.703516     81.407031
     -3.018018     36.368607     36.368607     72.737214
     -3.008008     31.276141     31.276141     62.552282
     -2.997998     25.969880     25.969880     51.939761
     -2.987988     20.956784     20.956784     41.913568
     -2.977978     16.706954     16.706954     33.413908
     -2.967968     13.658008     13.658008     27.316016
     -2.957958     12.193526     12.193526     24.387052
     -2.947948     12.586181     12.586181     25.172362
     -2.937938     14.917846     14.917846     29.835692
     -2.927928     19.004365     19.004365     38.008731
     -2.917918     24.360635     24.360635     48.721269
     -2.907908     30.239261     30.239261     60.478521
     -2.897898     35.757618     35.757618     71.515236
     -2.887888     40.093195     40.093195     80.186390
     -2.877878     42.688611     42.688611     85.377223
     -2.867868     43.388253     43.388253     86.776505
     -2.857858     42.445638     42.445638     84.891276
     -2.847848     40.392340     40.392340     80.784680
     -2.837838     37.821744     37.821744     75.643487
     -2.827828     35.181171     35.181171     70.362342
     -2.817818     32.661092     32.661092     65.322184
     -2.807808     30.220993     30.220993     60.441987
     -2.797798     27.722970     27.722970     55.445940
     -2.787788     25.092012     25.092012     50.184024
     -2.777778     22.413970     22.413970     44.827941
     -2.767768     19.922156     19.922156     39.844313
     -2.757758     17.889209     17.889209     35.778418
     -2.747748     16.495179     16.495179     32.990358
     -2.737738     15.754323     15.754323     31.508646
     -2.727728     15.544394     15.544394     31.088788
     -2.717718     15.715760     15.715760     31.431520
     -2.707708     16.204593     16.204593     32.409187
     -2.697698     17.069994     17.069994     34.139988
     -2.687688     18.424997     18.424997     36.849994
     -2.677678     20.305317     20.305317     40.610634
     -2.667668     22.567864     22.567864     45.135728
     -2.657658     24.897799     24.897799     49.795599
     -2.647648     26.933123     26.933123     53.866247
     -2.637638     28.435144     28.435144     56.870289
     -2.627628     29.398426     29.398426     58.796851
     -2.617618     30.031483     30.031483     60.062966
     -2.607608     30.623952     30.623952     61.247904
     -2.597598     31.386248     31.386248     62.772496
     -2.587588     32.354191     32.354191     64.708383
     -2.577578     33.394280     33.394280     66.788561
     -2.567568     34.274987     34.274987     68.549975
     -2.557558     34.741325     34.741325     69.482650
     -2.547548     34.558715     34.558715     69.117430
     -2.537538     33.541818     33.541818     67.083636
     -2.527528     31.603551     31.603551     63.207101
     -2.517518     28.830839     28.830839     57.661678
     -2.507508     25.545958     25.545958     51.091916
     -2.497497     22.293001     22.293001     44.586001
     -2.487487     19.719923     19.719923     39.439846
     -2.477477     18.387352     18.387352     36.774704
     -2.467467     18.583608     18.583608     37.167216
     -2.457457     20.230726     20.230726     40.461453
     -2.447447     22.927233     22.927233     45.854466
     -2.437437     26.111651     26.111651     52.223301
     -2.427427     29.275307     29.275307     58.550615
     -2.417417     32.128865     32.128865     64.257730
     -2.407407     34.646518     34.646518     69.293035
     -2.397397     36.969029     36.969029     73.938059
     -2.387387     39.216321     39.216321     78.432643
     -2.377377     41.308001     41.308001     82.616003
     -2.367367     42.890673     42.890673     85.781346
     -2.357357     43.421530     43.421530     86.843060
     -2.347347     42.381079     42.381079     84.762158
     -2.337337     39.521152     39.521152     79.042304
     -2.327327     35.032518     35.032518     70.065035
     -2.317317     29.552664     29.552664     59.105327
     -2.307307     24.010015     24.010015     48.020029
     -2.297297     19.373858     19.373858     38.747716
     -2.287287     16.410692     16.410692     32.821383
     -2.277277     15.527353     15.527353     31.054705
     -2.267267     16.731014     16.731014     33.462028
     -2.257257     19.689064     19.689064     39.378128
     -2.247247     23.847594     23.847594     47.695189
     -2.237237     28.564668     28.564668     57.129337
     -2.227227     33.223037     33.223037     66.446073
     -2.217217     37.300248     37.300248     74.600496
     -2.207207     40.392113     40.392113     80.784226
     -2.197197     42.206463     42.206463     84.412926
     -2.187187     42.558277     42.558277     85.116554
     -2.177177     41.391552     41.391552     82.783104
     -2.167167     38.825048     38.825048     77.650096
     -2.157157     35.184723     35.184723     70.369446
     -2.147147     30.973499     30.973499     61.946997
     -2.137137     26.756682     26.756682     53.513363
     -2.127127     22.996530     22.996530     45.993060
     -2.117117     19.913570     19.913570     39.827139
     -2.107107     17.449083     17.449083     34.898167
     -2.097097     15.349593     15.349593     30.699185
     -2.087087     13.325103     13.325103     26.650207
     -2.077077     11.195205     11.195205     22.390411
     -2.067067      8.953623      8.953623     17.907246
     -2.057057      6.736286      6.736286     13.472571
     -2.047047      4.731044      4.731044      9.462088
     -2.037037      3.087277      3.087277      6.174553
     -2.027027      1.867019      1.867019      3.734039
     -2.017017      1.045896      1.045896      2.091792
     -2.007007      0.546111      0.546111      1.092223
     -1.996997      0.276724      0.276724      0.553448
     -1.986987      0.164560      0.164560      0.329119
     -1.976977      0.171515      0.171515      0.343029
     -1.966967      0.301840      0.301840      0.603681
     -1.956957      0.603703      0.603703      1.207405
     -1.946947      1.165196      1.165196      2.330391
     -1.936937      2.100595      2.100595      4.201189
     -1.926927      3.522284      3.522284      7.044567
     -1.916917      5.499648      5.499648     10.999295
     -1.906907      8.016411      8.016411     16.032821
     -1.896897     10.945973     10.945973     21.891946
     -1.886887     14.062696     14.062696     28.125392
     -1.876877     17.093109     17.093109     34.186219
     -1.866867     19.790845     19.790845     39.581690
     -1.856857     22.004650     22.004650     44.009300
     -1.846847     23.709147     23.709147     47.418294
     -1.836837     24.983131     24.983131     49.966263
     -1.826827     25.942527     25.942527     51.885054
     -1.816817     26.655360     26.655360     53.310719
     -1.806807     27.077071     27.077071     54.154142
     -1.796797     27.040537     27.040537     54.081073
     -1.786787     26.313924     26.313924     52.627848
     -1.776777     24.706793     24.706793     49.413585
     -1.766767     22.176771     22.176771     44.353541
     -1.756757     18.884151     18.884151     37.768303
     -1.746747     15.166281     15.166281     30.332562
     -1.736737     11.444604     11.444604     22.889208
     -1.726727      8.109994      8.109994     16.219988
     -1.716717      5.437645      5.437645     10.875291
     -1.706707      3.560822      3.560822      7.121644
     -1.696697      2.498950      2.498950      4.997900
     -1.686687      2.209824      2.209824      4.419649
     -1.676677      2.629666      2.629666      5.259331
     -1.666667      3.678255      3.678255      7.356509
     -1.656657      5.230769      5.230769     10.461538
     -1.646647      7.081286      7.081286     14.162573
     -1.636637      8.933490      8.933490     17.866981
     -1.626627     10.444407     10.444407     20.888815
