# EIG2DOS: Utility for SIESTA to obtain the electronic density of states
#  E. Artacho, Apr 1999, A. Garcia, Apr 2012
#  Nick R. Papior, Feb 2017
# ------------------------------------------
# Eigenvalues calculated from a non-polarized calculation
# Eigenvalues read from siesta.EIG
# Kpoint weights read from siesta.KP
# Using smearing parameter:   0.0500
# Using 1000 points in the energy range
# Selected bands: 1 to: 2981
# Emin, Emax in file for selected band(s):    -27.0551134    218.3123290
# Nbands, Nspin, Nk   =   2981     1     1
# E_F                 =    -4.2955 eV --> (shifted to ZERO)
# Broadening          =     0.0500 eV
#
#        E            N(up)  (=)   N(down)         Ntot
     -5.000000     44.958947     44.958947     89.917895
     -4.989990     49.229073     49.229073     98.458146
     -4.979980     51.923731     51.923731    103.847463
     -4.969970     52.703461     52.703461    105.406922
     -4.959960     51.545933     51.545933    103.091866
     -4.949950     48.740668     48.740668     97.481335
     -4.939940     44.806821     44.806821     89.613641
     -4.929930     40.385124     40.385124     80.770248
     -4.919920     36.154108     36.154108     72.308216
     -4.909910     32.786558     32.786558     65.573115
     -4.899900     30.918535     30.918535     61.837071
     -4.889890     31.080218     31.080218     62.160437
     -4.879880     33.556844     33.556844     67.113688
     -4.869870     38.207632     38.207632     76.415264
     -4.859860     44.337337     44.337337     88.674674
     -4.849850     50.736671     50.736671    101.473341
     -4.839840     55.948809     55.948809    111.897618
     -4.829830     58.697887     58.697887    117.395774
     -4.819820     58.304651     58.304651    116.609302
     -4.809810     54.895031     54.895031    109.790063
     -4.799800     49.304372     49.304372     98.608744
     -4.789790     42.736355     42.736355     85.472711
     -4.779780     36.350956     36.350956     72.701911
     -4.769770     30.961653     30.961653     61.923307
     -4.759760     26.930673     26.930673     53.861346
     -4.749750     24.236400     24.236400     48.472799
     -4.739740     22.621841     22.621841     45.243681
     -4.729730     21.737254     21.737254     43.474507
     -4.719720     21.233799     21.233799     42.467597
     -4.709710     20.807526     20.807526     41.615052
     -4.699700     20.214778     20.214778     40.429556
     -4.689690     19.283694     19.283694     38.567389
     -4.679680     17.939176     17.939176     35.878352
     -4.669670     16.243604     16.243604     32.487208
     -4.659660     14.437135     14.437135     28.874269
     -4.649650     12.949051     12.949051     25.898102
     -4.639640     12.353777     12.353777     24.707553
     -4.629630     13.260972     13.260972     26.521944
     -4.619620     16.151143     16.151143     32.302286
     -4.609610     21.190909     21.190909     42.381818
     -4.599600     28.083576     28.083576     56.167152
     -4.589590     36.024013     36.024013     72.048025
     -4.579580     43.815201     43.815201     87.630402
     -4.569570     50.153407     50.153407    100.306814
     -4.559560     54.009819     54.009819    108.019638
     -4.549550     54.969263     54.969263    109.938526
     -4.539540     53.378731     53.378731    106.757463
     -4.529530     50.227933     50.227933    100.455866
     -4.519520     46.800523     46.800523     93.601046
     -4.509510     44.236406     44.236406     88.472812
     -4.499499     43.179143     43.179143     86.358287
     -4.489489     43.634737     43.634737     87.269474
     -4.479479     45.069411     45.069411     90.138822
     -4.469469     46.676277     46.676277     93.352553
     -4.459459     47.687006     47.687006     95.374013
     -4.449449     47.609864     47.609864     95.219728
     -4.439439     46.326121     46.326121     92.652243
     -4.429429     44.043885     44.043885     88.087771
     -4.419419     41.162453     41.162453     82.324905
     -4.409409     38.122113     38.122113     76.244226
     -4.399399     35.299304     35.299304     70.598607
     -4.389389     32.966889     32.966889     65.933779
     -4.379379     31.298526     31.298526     62.597052
     -4.369369     30.379119     30.379119     60.758239
     -4.359359     30.198847     30.198847     60.397693
     -4.349349     30.640605     30.640605     61.281209
     -4.339339     31.491437     31.491437     62.982873
     -4.329329     32.498773     32.498773     64.997546
     -4.319319     33.459483     33.459483     66.918965
     -4.309309     34.300715     34.300715     68.601430
     -4.299299     35.109179     35.109179     70.218358
     -4.289289     36.089706     36.089706     72.179412
     -4.279279     37.465499     37.465499     74.930997
     -4.269269     39.353548     39.353548     78.707096
     -4.259259     41.657037     41.657037     83.314073
     -4.249249     44.018486     44.018486     88.036972
     -4.239239     45.871204     45.871204     91.742408
     -4.229229     46.599510     46.599510     93.199019
     -4.219219     45.766146     45.766146     91.532291
     -4.209209     43.311910     43.311910     86.623820
     -4.199199     39.621173     39.621173     79.242347
     -4.189189     35.402565     35.402565     70.805130
     -4.179179     31.432465     31.432465     62.864930
     -4.169169     28.286814     28.286814     56.573629
     -4.159159     26.190884     26.190884     52.381767
     -4.149149     25.045859     25.045859     50.091717
     -4.139139     24.594354     24.594354     49.188709
     -4.129129     24.621903     24.621903     49.243805
     -4.119119     25.085707     25.085707     50.171415
     -4.109109     26.106825     26.106825     52.213650
     -4.099099     27.831557     27.831557     55.663114
     -4.089089     30.235437     30.235437     60.470873
     -4.079079     32.982447     32.982447     65.964894
     -4.069069     35.438588     35.438588     70.877175
     -4.059059     36.865793     36.865793     73.731585
     -4.049049     36.719367     36.719367     73.438735
     -4.039039     34.900605     34.900605     69.801210
     -4.029029     31.828934     31.828934     63.657868
     -4.019019     28.295023     28.295023     56.590047
     -4.009009     25.177377     25.177377     50.354755
     -3.998999     23.170938     23.170938     46.341876
     -3.988989     22.647726     22.647726     45.295453
     -3.978979     23.674607     23.674607     47.349214
     -3.968969     26.122288     26.122288     52.244577
     -3.958959     29.771385     29.771385     59.542770
     -3.948949     34.362019     34.362019     68.724038
     -3.938939     39.599145     39.599145     79.198290
     -3.928929     45.161394     45.161394     90.322787
     -3.918919     50.743558     50.743558    101.487116
     -3.908909     56.114489     56.114489    112.228979
     -3.898899     61.138825     61.138825    122.277651
     -3.888889     65.723387     65.723387    131.446773
     -3.878879     69.700854     69.700854    139.401707
     -3.868869     72.718413     72.718413    145.436826
     -3.858859     74.217715     74.217715    148.435430
     -3.848849     73.556813     73.556813    147.113625
     -3.838839     70.249432     70.249432    140.498864
     -3.828829     64.222854     64.222854    128.445708
     -3.818819     55.967954     55.967954    111.935909
     -3.808809     46.495005     46.495005     92.990011
     -3.798799     37.097483     37.097483     74.194967
     -3.788789     29.013598     29.013598     58.027195
     -3.778779     23.113904     23.113904     46.227807
     -3.768769     19.719080     19.719080     39.438160
     -3.758759     18.588668     18.588668     37.177337
     -3.748749     19.058478     19.058478     38.116957
     -3.738739     20.267644     20.267644     40.535288
     -3.728729     21.408304     21.408304     42.816609
     -3.718719     21.939357     21.939357     43.878715
     -3.708709     21.719052     21.719052     43.438104
     -3.698699     21.026274     21.026274     42.052548
     -3.688689     20.460331     20.460331     40.920662
     -3.678679     20.736996     20.736996     41.473992
     -3.668669     22.431971     22.431971     44.863941
     -3.658659     25.750938     25.750938     51.501876
     -3.648649     30.411198     30.411198     60.822396
     -3.638639     35.689734     35.689734     71.379468
     -3.628629     40.629256     40.629256     81.258512
     -3.618619     44.323979     44.323979     88.647959
     -3.608609     46.170477     46.170477     92.340953
     -3.598599     45.991153     45.991153     91.982306
     -3.588589     44.006309     44.006309     88.012619
     -3.578579     40.700478     40.700478     81.400955
     -3.568569     36.657417     36.657417     73.314834
     -3.558559     32.419532     32.419532     64.839065
     -3.548549     28.391670     28.391670     56.783340
     -3.538539     24.789731     24.789731     49.579461
     -3.528529     21.636989     21.636989     43.273978
     -3.518519     18.814374     18.814374     37.628748
     -3.508509     16.156499     16.156499     32.312998
     -3.498498     13.559301     13.559301     27.118601
     -3.488488     11.052118     11.052118     22.104235
     -3.478478      8.802510      8.802510     17.605020
     -3.468468      7.056443      7.056443     14.112887
     -3.458458      6.045026      6.045026     12.090052
     -3.448448      5.895740      5.895740     11.791480
     -3.438438      6.575441      6.575441     13.150881
     -3.428428      7.879188      7.879188     15.758377
     -3.418418      9.470983      9.470983     18.941967
     -3.408408     10.974116     10.974116     21.948232
     -3.398398     12.092259     12.092259     24.184517
     -3.388388     12.721561     12.721561     25.443121
     -3.378378     13.005355     13.005355     26.010711
     -3.368368     13.300657     13.300657     26.601314
     -3.358358     14.064522     14.064522     28.129044
     -3.348348     15.704849     15.704849     31.409699
     -3.338338     18.449941     18.449941     36.899882
     -3.328328     22.270399     22.270399     44.540798
     -3.318318     26.856612     26.856612     53.713225
     -3.308308     31.641926     31.641926     63.283851
     -3.298298     35.872270     35.872270     71.744540
     -3.288288     38.735928     38.735928     77.471856
     -3.278278     39.553143     39.553143     79.106285
     -3.268268     37.981286     37.981286     75.962572
     -3.258258     34.150943     34.150943     68.301887
     -3.248248     28.655141     28.655141     57.310283
     -3.238238     22.378159     22.378159     44.756318
     -3.228228     16.233338     16.233338     32.466675
     -3.218218     10.923691     10.923691     21.847382
     -3.208208      6.816782      6.816782     13.633564
     -3.198198      3.957649      3.957649      7.915297
     -3.188188      2.178841      2.178841      4.357682
     -3.178178      1.240364      1.240364      2.480728
     -3.168168      0.946059      0.946059      1.892118
     -3.158158      1.213608      1.213608      2.427215
     -3.148148      2.098417      2.098417      4.196834
     -3.138138      3.777703      3.777703      7.555406
     -3.128128      6.496352      6.496352     12.992705
     -3.118118     10.473897     10.473897     20.947793
     -3.108108     15.781910     15.781910     31.563819
     -3.098098     22.222830     22.222830     44.445659
     -3.088088     29.262108     29.262108     58.524216
     -3.078078     36.066783     36.066783     72.133567
     -3.068068     41.671729     41.671729     83.343458
     -3.058058     45.236042     45.236042     90.472084
     -3.048048     46.295849     46.295849     92.591697
     -3.038038     44.904745     44.904745     89.809490
     -3.028028     41.598248     41.598248     83.196495
     -3.018018     37.203095     37.203095     74.406189
     -3.008008     32.584490     32.584490     65.168980
     -2.997998     28.439934     28.439934     56.879868
     -2.987988     25.204319     25.204319     50.408639
     -2.977978     23.065470     23.065470     46.130939
     -2.967968     22.045443     22.045443     44.090887
     -2.957958     22.094947     22.094947     44.189894
     -2.947948     23.160800     23.160800     46.321600
     -2.937938     25.201767     25.201767     50.403533
     -2.927928     28.145553     28.145553     56.291105
     -2.917918     31.806929     31.806929     63.613857
     -2.907908     35.817691     35.817691     71.635382
     -2.897898     39.629568     39.629568     79.259136
     -2.887888     42.621596     42.621596     85.243192
     -2.877878     44.283014     44.283014     88.566028
     -2.867868     44.388860     44.388860     88.777719
     -2.857858     43.076594     43.076594     86.153188
     -2.847848     40.778182     40.778182     81.556364
     -2.837838     38.036790     38.036790     76.073580
     -2.827828     35.296863     35.296863     70.593726
     -2.817818     32.767424     32.767424     65.534849
     -2.807808     30.416665     30.416665     60.833330
     -2.797798     28.085661     28.085661     56.171321
     -2.787788     25.648723     25.648723     51.297446
     -2.777778     23.128930     23.128930     46.257859
     -2.767768     20.708621     20.708621     41.417243
     -2.757758     18.637932     18.637932     37.275863
     -2.747748     17.103908     17.103908     34.207816
     -2.737738     16.144142     16.144142     32.288284
     -2.727728     15.658802     15.658802     31.317605
     -2.717718     15.510837     15.510837     31.021673
     -2.707708     15.645339     15.645339     31.290678
     -2.697698     16.144012     16.144012     32.288024
     -2.687688     17.171363     17.171363     34.342727
     -2.677678     18.841530     18.841530     37.683060
     -2.667668     21.091636     21.091636     42.183272
     -2.657658     23.649861     23.649861     47.299723
     -2.647648     26.129012     26.129012     52.258025
     -2.637638     28.195006     28.195006     56.390011
     -2.627628     29.708956     29.708956     59.417912
     -2.617618     30.757997     30.757997     61.515994
     -2.607608     31.563451     31.563451     63.126903
     -2.597598     32.333132     32.333132     64.666264
     -2.587588     33.150881     33.150881     66.301763
     -2.577578     33.955414     33.955414     67.910828
     -2.567568     34.590327     34.590327     69.180653
     -2.557558     34.867007     34.867007     69.734014
     -2.547548     34.600265     34.600265     69.200529
     -2.537538     33.626572     33.626572     67.253145
     -2.527528     31.843204     31.843204     63.686408
     -2.517518     29.284087     29.284087     58.568173
     -2.507508     26.196705     26.196705     52.393410
     -2.497497     23.054439     23.054439     46.108877
     -2.487487     20.461985     20.461985     40.923970
     -2.477477     18.974056     18.974056     37.948112
     -2.467467     18.904808     18.904808     37.809616
     -2.457457     20.219285     20.219285     40.438570
     -2.447447     22.561535     22.561535     45.123071
     -2.437437     25.409086     25.409086     50.818171
     -2.427427     28.283482     28.283482     56.566964
     -2.417417     30.919551     30.919551     61.839103
     -2.407407     33.314352     33.314352     66.628704
     -2.397397     35.633265     35.633265     71.266531
     -2.387387     38.020115     38.020115     76.040230
     -2.377377     40.407878     40.407878     80.815757
     -2.367367     42.431568     42.431568     84.863136
     -2.357357     43.500520     43.500520     87.001039
     -2.347347     43.012022     43.012022     86.024045
     -2.337337     40.616801     40.616801     81.233602
     -2.327327     36.415849     36.415849     72.831699
     -2.317317     30.996603     30.996603     61.993206
     -2.307307     25.291456     25.291456     50.582911
     -2.297297     20.321997     20.321997     40.643994
     -2.287287     16.934113     16.934113     33.868225
     -2.277277     15.615252     15.615252     31.230503
     -2.267267     16.434554     16.434554     32.869108
     -2.257257     19.094380     19.094380     38.188759
     -2.247247     23.051903     23.051903     46.103806
     -2.237237     27.663004     27.663004     55.326008
     -2.227227     32.307040     32.307040     64.614079
     -2.217217     36.463871     36.463871     72.927741
     -2.207207     39.734760     39.734760     79.469520
     -2.197197     41.824992     41.824992     83.649984
     -2.187187     42.526174     42.526174     85.052349
     -2.177177     41.733058     41.733058     83.466116
     -2.167167     39.498041     39.498041     78.996081
     -2.157157     36.084331     36.084331     72.168661
     -2.147147     31.959006     31.959006     63.918013
     -2.137137     27.692364     27.692364     55.384727
     -2.127127     23.789434     23.789434     47.578868
     -2.117117     20.532447     20.532447     41.064895
     -2.107107     17.918093     17.918093     35.836186
     -2.097097     15.722736     15.722736     31.445473
     -2.087087     13.655648     13.655648     27.311296
     -2.077077     11.514316     11.514316     23.028632
     -2.067067      9.265172      9.265172     18.530344
     -2.057057      7.025432      7.025432     14.050863
     -2.047047      4.978323      4.978323      9.956645
     -2.037037      3.279920      3.279920      6.559840
     -2.027027      2.003407      2.003407      4.006813
     -2.017017      1.133807      1.133807      2.267614
     -2.007007      0.598074      0.598074      1.196149
     -1.996997      0.305687      0.305687      0.611373
     -1.986987      0.181554      0.181554      0.363108
     -1.976977      0.185363      0.185363      0.370726
     -1.966967      0.320015      0.320015      0.640030
     -1.956957      0.633163      0.633163      1.266327
     -1.946947      1.212090      1.212090      2.424181
     -1.936937      2.167975      2.167975      4.335949
     -1.926927      3.605460      3.605460      7.210920
     -1.916917      5.579525      5.579525     11.159050
     -1.906907      8.051622      8.051622     16.103245
     -1.896897     10.864404     10.864404     21.728808
     -1.886887     13.751998     13.751998     27.503997
     -1.876877     16.389525     16.389525     32.779049
     -1.866867     18.468294     18.468294     36.936589
     -1.856857     19.772367     19.772367     39.544734
     -1.846847     20.232735     20.232735     40.465470
     -1.836837     19.943322     19.943322     39.886644
     -1.826827     19.131790     19.131790     38.263580
     -1.816817     18.087434     18.087434     36.174868
     -1.806807     17.062700     17.062700     34.125400
     -1.796797     16.182610     16.182610     32.365221
     -1.786787     15.404657     15.404657     30.809314
     -1.776777     14.555815     14.555815     29.111631
     -1.766767     13.434972     13.434972     26.869944
     -1.756757     11.931244     11.931244     23.862489
     -1.746747     10.099102     10.099102     20.198204
     -1.736737      8.157876      8.157876     16.315752
     -1.726727      6.426532      6.426532     12.853065
     -1.716717      5.233831      5.233831     10.467663
     -1.706707      4.842573      4.842573      9.685147
     -1.696697      5.403258      5.403258     10.806516
     -1.686687      6.930196      6.930196     13.860392
     -1.676677      9.288598      9.288598     18.577196
     -1.666667     12.192791     12.192791     24.385583
     -1.656657     15.228368     15.228368     30.456737
     -1.646647     17.910881     17.910881     35.821761
     -1.636637     19.779012     19.779012     39.558023
     -1.626627     20.501166     20.501166     41.002331
