# EIG2DOS: Utility for SIESTA to obtain the electronic density of states
#  E. Artacho, Apr 1999, A. Garcia, Apr 2012
#  Nick R. Papior, Feb 2017
# ------------------------------------------
# Eigenvalues calculated from a non-polarized calculation
# Eigenvalues read from siesta.EIG
# Kpoint weights read from siesta.KP
# Using smearing parameter:   0.0500
# Using 1000 points in the energy range
# Selected bands: 1 to: 2981
# Emin, Emax in file for selected band(s):    -27.0337422    218.3195410
# Nbands, Nspin, Nk   =   2981     1     1
# E_F                 =    -4.2887 eV --> (shifted to ZERO)
# Broadening          =     0.0500 eV
#
#        E            N(up)  (=)   N(down)         Ntot
     -5.000000     43.620763     43.620763     87.241525
     -4.989990     45.390532     45.390532     90.781063
     -4.979980     46.363686     46.363686     92.727372
     -4.969970     46.469240     46.469240     92.938479
     -4.959960     45.633532     45.633532     91.267065
     -4.949950     43.844383     43.844383     87.688766
     -4.939940     41.218517     41.218517     82.437034
     -4.929930     38.042101     38.042101     76.084201
     -4.919920     34.773763     34.773763     69.547527
     -4.909910     32.012089     32.012089     64.024178
     -4.899900     30.425232     30.425232     60.850463
     -4.889890     30.629653     30.629653     61.259306
     -4.879880     33.012253     33.012253     66.024507
     -4.869870     37.529359     37.529359     75.058719
     -4.859860     43.568757     43.568757     87.137513
     -4.849850     49.980879     49.980879     99.961758
     -4.839840     55.333889     55.333889    110.667777
     -4.829830     58.334792     58.334792    116.669585
     -4.819820     58.250267     58.250267    116.500533
     -4.809810     55.135206     55.135206    110.270412
     -4.799800     49.764023     49.764023     99.528046
     -4.789790     43.310497     43.310497     86.620993
     -4.779780     36.940777     36.940777     73.881555
     -4.769770     31.499893     31.499893     62.999786
     -4.759760     27.389117     27.389117     54.778235
     -4.749750     24.618421     24.618421     49.236842
     -4.739740     22.948013     22.948013     45.896027
     -4.729730     22.031243     22.031243     44.062486
     -4.719720     21.512206     21.512206     43.024412
     -4.709710     21.074709     21.074709     42.149418
     -4.699700     20.462601     20.462601     40.925201
     -4.689690     19.495453     19.495453     38.990907
     -4.679680     18.095723     18.095723     36.191446
     -4.669670     16.328635     16.328635     32.657271
     -4.659660     14.439075     14.439075     28.878150
     -4.649650     12.859216     12.859216     25.718432
     -4.639640     12.163325     12.163325     24.326651
     -4.629630     12.960655     12.960655     25.921310
     -4.619620     15.736698     15.736698     31.473395
     -4.609610     20.673380     20.673380     41.346760
     -4.599600     27.499655     27.499655     54.999311
     -4.589590     35.439270     35.439270     70.878540
     -4.579580     43.314967     43.314967     86.629934
     -4.569570     49.821893     49.821893     99.643786
     -4.559560     53.904998     53.904998    107.809996
     -4.549550     55.104736     55.104736    110.209471
     -4.539540     53.721368     53.721368    107.442737
     -4.529530     50.712521     50.712521    101.425043
     -4.519520     47.354538     47.354538     94.709076
     -4.509510     44.804529     44.804529     89.609057
     -4.499499     43.740053     43.740053     87.480107
     -4.489489     44.209106     44.209106     88.418212
     -4.479479     45.722133     45.722133     91.444267
     -4.469469     47.513777     47.513777     95.027553
     -4.459459     48.843462     48.843462     97.686924
     -4.449449     49.211822     49.211822     98.423644
     -4.439439     48.431689     48.431689     96.863379
     -4.429429     46.571928     46.571928     93.143856
     -4.419419     43.848210     43.848210     87.696421
     -4.409409     40.539744     40.539744     81.079489
     -4.399399     36.966771     36.966771     73.933542
     -4.389389     33.502793     33.502793     67.005587
     -4.379379     30.562503     30.562503     61.125006
     -4.369369     28.526529     28.526529     57.053057
     -4.359359     27.622065     27.622065     55.244130
     -4.349349     27.827853     27.827853     55.655706
     -4.339339     28.872105     28.872105     57.744209
     -4.329329     30.340562     30.340562     60.681124
     -4.319319     31.846119     31.846119     63.692238
     -4.309309     33.176945     33.176945     66.353890
     -4.299299     34.355669     34.355669     68.711339
     -4.289289     35.590348     35.590348     71.180696
     -4.279279     37.144796     37.144796     74.289592
     -4.269269     39.180177     39.180177     78.360354
     -4.259259     41.623558     41.623558     83.247117
     -4.249249     44.113750     44.113750     88.227499
     -4.239239     46.061035     46.061035     92.122070
     -4.229229     46.824316     46.824316     93.648632
     -4.219219     45.954472     45.954472     91.908943
     -4.209209     43.401478     43.401478     86.802957
     -4.199199     39.576937     39.576937     79.153874
     -4.189189     35.224769     35.224769     70.449537
     -4.179179     31.153519     31.153519     62.307039
     -4.169169     27.960327     27.960327     55.920654
     -4.159159     25.877624     25.877624     51.755247
     -4.149149     24.800375     24.800375     49.600750
     -4.139139     24.454187     24.454187     48.908374
     -4.129129     24.600365     24.600365     49.200730
     -4.119119     25.169410     25.169410     50.338819
     -4.109109     26.259459     26.259459     52.518919
     -4.099099     28.004502     28.004502     56.009003
     -4.089089     30.382880     30.382880     60.765759
     -4.079079     33.075401     33.075401     66.150801
     -4.069069     35.471175     35.471175     70.942350
     -4.059059     36.850448     36.850448     73.700895
     -4.049049     36.673925     36.673925     73.347851
     -4.039039     34.835564     34.835564     69.671127
     -4.029029     31.743257     31.743257     63.486514
     -4.019019     28.183044     28.183044     56.366088
     -4.009009     25.041430     25.041430     50.082861
     -3.998999     23.030039     23.030039     46.060078
     -3.988989     22.535211     22.535211     45.070423
     -3.978979     23.625288     23.625288     47.250577
     -3.968969     26.156779     26.156779     52.313558
     -3.958959     29.886734     29.886734     59.773468
     -3.948949     34.533146     34.533146     69.066292
     -3.938939     39.788690     39.788690     79.577379
     -3.928929     45.331630     45.331630     90.663261
     -3.918919     50.864983     50.864983    101.729966
     -3.908909     56.169631     56.169631    112.339262
     -3.898899     61.123094     61.123094    122.246188
     -3.888889     65.645177     65.645177    131.290355
     -3.878879     69.581356     69.581356    139.162713
     -3.868869     72.589739     72.589739    145.179478
     -3.858859     74.117755     74.117755    148.235511
     -3.848849     73.520755     73.520755    147.041511
     -3.838839     70.300033     70.300033    140.600067
     -3.828829     64.362971     64.362971    128.725942
     -3.818819     56.178582     56.178582    112.357163
     -3.808809     46.740094     46.740094     93.480188
     -3.798799     37.334094     37.334094     74.668189
     -3.788789     29.203834     29.203834     58.407669
     -3.778779     23.234577     23.234577     46.469154
     -3.768769     19.766254     19.766254     39.532509
     -3.758759     18.576270     18.576270     37.152541
     -3.748749     19.012042     19.012042     38.024085
     -3.738739     20.215382     20.215382     40.430764
     -3.728729     21.372056     21.372056     42.744113
     -3.718719     21.927782     21.927782     43.855564
     -3.708709     21.724913     21.724913     43.449826
     -3.698699     21.028845     21.028845     42.057689
     -3.688689     20.432719     20.432719     40.865438
     -3.678679     20.656616     20.656616     41.313232
     -3.668669     22.290800     22.290800     44.581600
     -3.658659     25.561418     25.561418     51.122836
     -3.648649     30.204599     30.204599     60.409198
     -3.638639     35.506748     35.506748     71.013495
     -3.628629     40.506384     40.506384     81.012768
     -3.618619     44.281748     44.281748     88.563496
     -3.608609     46.208722     46.208722     92.417444
     -3.598599     46.092784     46.092784     92.185568
     -3.588589     44.146444     44.146444     88.292888
     -3.578579     40.855677     40.855677     81.711354
     -3.568569     36.811049     36.811049     73.622098
     -3.558559     32.562627     32.562627     65.125253
     -3.548549     28.521196     28.521196     57.042391
     -3.538539     24.906520     24.906520     49.813040
     -3.528529     21.744112     21.744112     43.488223
     -3.518519     18.915498     18.915498     37.830995
     -3.508509     16.253780     16.253780     32.507559
     -3.498498     13.651255     13.651255     27.302511
     -3.488488     11.132574     11.132574     22.265149
     -3.478478      8.861446      8.861446     17.722893
     -3.468468      7.082674      7.082674     14.165349
     -3.458458      6.029986      6.029986     12.059972
     -3.448448      5.837346      5.837346     11.674692
     -3.438438      6.480936      6.480936     12.961871
     -3.428428      7.765766      7.765766     15.531531
     -3.418418      9.363132      9.363132     18.726265
     -3.408408     10.897526     10.897526     21.795052
     -3.398398     12.065704     12.065704     24.131408
     -3.388388     12.749580     12.749580     25.499159
     -3.378378     13.074628     13.074628     26.149257
     -3.368368     13.381557     13.381557     26.763114
     -3.358358     14.117342     14.117342     28.234684
     -3.348348     15.689038     15.689038     31.378076
     -3.338338     18.334648     18.334648     36.669297
     -3.328328     22.044822     22.044822     44.089643
     -3.318318     26.537930     26.537930     53.075861
     -3.308308     31.277330     31.277330     62.554660
     -3.298298     35.531565     35.531565     71.063131
     -3.288288     38.494138     38.494138     76.988275
     -3.278278     39.467857     39.467857     78.935715
     -3.268268     38.073792     38.073792     76.147585
     -3.258258     34.399855     34.399855     68.799709
     -3.248248     29.005572     29.005572     58.011144
     -3.238238     22.761778     22.761778     45.523555
     -3.228228     16.589779     16.589779     33.179559
     -3.218218     11.214617     11.214617     22.429235
     -3.208208      7.029020      7.029020     14.058041
     -3.198198      4.097491      4.097491      8.194981
     -3.188188      2.262434      2.262434      4.524867
     -3.178178      1.284372      1.284372      2.568745
     -3.168168      0.959859      0.959859      1.919719
     -3.158158      1.191206      1.191206      2.382413
     -3.148148      2.006721      2.006721      4.013442
     -3.138138      3.538729      3.538729      7.077458
     -3.128128      5.965297      5.965297     11.930593
     -3.118118      9.422609      9.422609     18.845217
     -3.108108     13.905738     13.905738     27.811476
     -3.098098     19.191837     19.191837     38.383673
     -3.088088     24.827443     24.827443     49.654885
     -3.078078     30.205940     30.205940     60.411880
     -3.068068     34.720604     34.720604     69.441208
     -3.058058     37.932189     37.932189     75.864378
     -3.048048     39.670171     39.670171     79.340343
     -3.038038     40.016475     40.016475     80.032951
     -3.028028     39.189656     39.189656     78.379313
     -3.018018     37.411914     37.411914     74.823828
     -3.008008     34.851759     34.851759     69.703518
     -2.997998     31.678634     31.678634     63.357268
     -2.987988     28.180842     28.180842     56.361684
     -2.977978     24.847251     24.847251     49.694502
     -2.967968     22.332921     22.332921     44.665842
     -2.957958     21.301874     21.301874     42.603748
     -2.947948     22.213627     22.213627     44.427253
     -2.937938     25.148804     25.148804     50.297608
     -2.927928     29.745440     29.745440     59.490879
     -2.917918     35.266162     35.266162     70.532325
     -2.907908     40.768818     40.768818     81.537636
     -2.897898     45.326321     45.326321     90.652641
     -2.887888     48.235902     48.235902     96.471803
     -2.877878     49.165759     49.165759     98.331518
     -2.867868     48.202789     48.202789     96.405578
     -2.857858     45.787926     45.787926     91.575853
     -2.847848     42.555976     42.555976     85.111953
     -2.837838     39.129440     39.129440     78.258879
     -2.827828     35.937631     35.937631     71.875262
     -2.817818     33.128245     33.128245     66.256489
     -2.807808     30.602901     30.602901     61.205801
     -2.797798     28.153240     28.153240     56.306480
     -2.787788     25.626562     25.626562     51.253123
     -2.777778     23.036643     23.036643     46.073286
     -2.767768     20.566382     20.566382     41.132764
     -2.757758     18.469403     18.469403     36.938806
     -2.747748     16.934596     16.934596     33.869192
     -2.737738     15.997403     15.997403     31.994805
     -2.727728     15.551355     15.551355     31.102711
     -2.717718     15.449398     15.449398     30.898797
     -2.707708     15.625757     15.625757     31.251515
     -2.697698     16.153563     16.153563     32.307127
     -2.687688     17.193564     17.193564     34.387127
     -2.677678     18.861510     18.861510     37.723021
     -2.667668     21.099716     21.099716     42.199432
     -2.657658     23.641895     23.641895     47.283790
     -2.647648     26.103935     26.103935     52.207869
     -2.637638     28.151636     28.151636     56.303273
     -2.627628     29.644462     29.644462     59.288924
     -2.617618     30.669204     30.669204     61.338408
     -2.607608     31.450169     31.450169     62.900338
     -2.597598     32.201185     32.201185     64.402370
     -2.587588     33.012680     33.012680     66.025360
     -2.577578     33.827523     33.827523     67.655045
     -2.567568     34.489385     34.489385     68.978770
     -2.557558     34.806046     34.806046     69.612093
     -2.547548     34.586526     34.586526     69.173052
     -2.537538     33.660425     33.660425     67.320851
     -2.527528     31.917198     31.917198     63.834396
     -2.517518     29.382119     29.382119     58.764239
     -2.507508     26.294745     26.294745     52.589490
     -2.497497     23.124593     23.124593     46.249186
     -2.487487     20.480197     20.480197     40.960395
     -2.477477     18.929231     18.929231     37.858462
     -2.467467     18.805366     18.805366     37.610732
     -2.457457     20.093488     20.093488     40.186976
     -2.447447     22.450402     22.450402     44.900804
     -2.437437     25.354140     25.354140     50.708279
     -2.427427     28.314020     28.314020     56.628039
     -2.417417     31.044205     31.044205     62.088410
     -2.407407     33.519503     33.519503     67.039006
     -2.397397     35.887816     35.887816     71.775631
     -2.387387     38.284123     38.284123     76.568247
     -2.377377     40.642292     40.642292     81.284585
     -2.367367     42.606991     42.606991     85.213981
     -2.357357     43.603425     43.603425     87.206849
     -2.347347     43.046923     43.046923     86.093846
     -2.337337     40.603416     40.603416     81.206831
     -2.327327     36.381909     36.381909     72.763817
     -2.317317     30.968930     30.968930     61.937860
     -2.307307     25.288758     25.288758     50.577517
     -2.297297     20.351678     20.351678     40.703356
     -2.287287     16.993141     16.993141     33.986281
     -2.277277     15.693438     15.693438     31.386875
     -2.267267     16.518375     16.518375     33.036750
     -2.257257     19.170317     19.170317     38.340635
     -2.247247     23.109023     23.109023     46.218047
     -2.237237     27.694628     27.694628     55.389256
     -2.227227     32.311218     32.311218     64.622436
     -2.217217     36.442589     36.442589     72.885178
     -2.207207     39.692355     39.692355     79.384711
     -2.197197     41.766642     41.766642     83.533284
     -2.187187     42.457038     42.457038     84.914075
     -2.177177     41.657976     41.657976     83.315952
     -2.167167     39.421342     39.421342     78.842685
     -2.157157     36.009535     36.009535     72.019070
     -2.147147     31.888702     31.888702     63.777405
     -2.137137     27.628649     27.628649     55.257297
     -2.127127     23.734792     23.734792     47.469584
     -2.117117     20.490347     20.490347     40.980693
     -2.107107     17.892563     17.892563     35.785127
     -2.097097     15.716860     15.716860     31.433720
     -2.087087     13.669772     13.669772     27.339543
     -2.077077     11.545137     11.545137     23.090273
     -2.067067      9.306348      9.306348     18.612696
     -2.057057      7.069453      7.069453     14.138906
     -2.047047      5.018672      5.018672     10.037344
     -2.037037      3.312528      3.312528      6.625056
     -2.027027      2.026947      2.026947      4.053894
     -2.017017      1.149015      1.149015      2.298030
     -2.007007      0.606614      0.606614      1.213229
     -1.996997      0.309049      0.309049      0.618098
     -1.986987      0.180185      0.180185      0.360370
     -1.976977      0.178013      0.178013      0.356027
     -1.966967      0.303278      0.303278      0.606557
     -1.956957      0.601369      0.601369      1.202738
     -1.946947      1.157974      1.157974      2.315947
     -1.936937      2.084597      2.084597      4.169194
     -1.926927      3.489435      3.489435      6.978869
     -1.916917      5.434718      5.434718     10.869436
     -1.906907      7.891536      7.891536     15.783073
     -1.896897     10.711216     10.711216     21.422433
     -1.886887     13.631297     13.631297     27.262593
     -1.876877     16.321959     16.321959     32.643918
     -1.866867     18.461412     18.461412     36.922824
     -1.856857     19.816435     19.816435     39.632869
     -1.846847     20.302824     20.302824     40.605647
     -1.836837     20.007214     20.007214     40.014428
     -1.826827     19.160857     19.160857     38.321714
     -1.816817     18.066631     18.066631     36.133262
     -1.806807     16.996190     16.996190     33.992381
     -1.796797     16.092896     16.092896     32.185791
     -1.786787     15.325040     15.325040     30.650080
     -1.776777     14.518336     14.518336     29.036673
     -1.766767     13.457859     13.457859     26.915718
     -1.756757     12.010281     12.010281     24.020561
     -1.746747     10.205572     10.205572     20.411145
     -1.736737      8.242856      8.242856     16.485712
     -1.726727      6.429372      6.429372     12.858744
     -1.716717      5.093079      5.093079     10.186157
     -1.706707      4.509416      4.509416      9.018833
     -1.696697      4.858076      4.858076      9.716152
     -1.686687      6.199903      6.199903     12.399807
     -1.676677      8.457337      8.457337     16.914674
     -1.666667     11.395804     11.395804     22.791607
     -1.656657     14.623277     14.623277     29.246553
     -1.646647     17.632051     17.632051     35.264101
     -1.636637     19.892651     19.892651     39.785301
     -1.626627     20.982250     20.982250     41.964500
