# EIG2DOS: Utility for SIESTA to obtain the electronic density of states
#  E. Artacho, Apr 1999, A. Garcia, Apr 2012
#  Nick R. Papior, Feb 2017
# ------------------------------------------
# Eigenvalues calculated from a non-polarized calculation
# Eigenvalues read from siesta.EIG
# Kpoint weights read from siesta.KP
# Using smearing parameter:   0.0500
# Using 1000 points in the energy range
# Selected bands: 1 to: 2981
# Emin, Emax in file for selected band(s):    -27.0262547    218.3100330
# Nbands, Nspin, Nk   =   2981     1     1
# E_F                 =    -4.3007 eV --> (shifted to ZERO)
# Broadening          =     0.0500 eV
#
#        E            N(up)  (=)   N(down)         Ntot
     -5.000000     42.681937     42.681937     85.363875
     -4.989990     47.505684     47.505684     95.011369
     -4.979980     51.113733     51.113733    102.227466
     -4.969970     52.982050     52.982050    105.964100
     -4.959960     52.839785     52.839785    105.679570
     -4.949950     50.757565     50.757565    101.515130
     -4.939940     47.142912     47.142912     94.285823
     -4.929930     42.656334     42.656334     85.312667
     -4.919920     38.094092     38.094092     76.188183
     -4.909910     34.280796     34.280796     68.561593
     -4.899900     31.980628     31.980628     63.961255
     -4.889890     31.799150     31.799150     63.598300
     -4.879880     34.044796     34.044796     68.089593
     -4.869870     38.564388     38.564388     77.128775
     -4.859860     44.632955     44.632955     89.265910
     -4.849850     51.007178     51.007178    102.014356
     -4.839840     56.199964     56.199964    112.399927
     -4.829830     58.914491     58.914491    117.828982
     -4.819820     58.463322     58.463322    116.926643
     -4.809810     54.976839     54.976839    109.953678
     -4.799800     49.303023     49.303023     98.606046
     -4.789790     42.659542     42.659542     85.319084
     -4.779780     36.216120     36.216120     72.432240
     -4.769770     30.789936     30.789936     61.579873
     -4.759760     26.742493     26.742493     53.484986
     -4.749750     24.049697     24.049697     48.099395
     -4.739740     22.451833     22.451833     44.903666
     -4.729730     21.596124     21.596124     43.192248
     -4.719720     21.129835     21.129835     42.259670
     -4.709710     20.744328     20.744328     41.488656
     -4.699700     20.191226     20.191226     40.382451
     -4.689690     19.294580     19.294580     38.589160
     -4.679680     17.975770     17.975770     35.951541
     -4.669670     16.293628     16.293628     32.587256
     -4.659660     14.484476     14.484476     28.968953
     -4.649650     12.974322     12.974322     25.948644
     -4.639640     12.336834     12.336834     24.673669
     -4.629630     13.185792     13.185792     26.371584
     -4.619620     16.012162     16.012162     32.024324
     -4.609610     20.998596     20.998596     41.997192
     -4.599600     27.866135     27.866135     55.732271
     -4.589590     35.822555     35.822555     71.645109
     -4.579580     43.672031     43.672031     87.344061
     -4.569570     50.096645     50.096645    100.193290
     -4.559560     54.040498     54.040498    108.080997
     -4.549550     55.057171     55.057171    110.114341
     -4.539540     53.469951     53.469951    106.939902
     -4.529530     50.261875     50.261875    100.523749
     -4.519520     46.729921     46.729921     93.459843
     -4.509510     44.042314     44.042314     88.084629
     -4.499499     42.874313     42.874313     85.748625
     -4.489489     43.251875     43.251875     86.503750
     -4.479479     44.634793     44.634793     89.269586
     -4.469469     46.174271     46.174271     92.348541
     -4.459459     47.027522     47.027522     94.055045
     -4.449449     46.616929     46.616929     93.233859
     -4.439439     44.767067     44.767067     89.534134
     -4.429429     41.708961     41.708961     83.417922
     -4.419419     37.981508     37.981508     75.963016
     -4.409409     34.275376     34.275376     68.550752
     -4.399399     31.261011     31.261011     62.522021
     -4.389389     29.433299     29.433299     58.866599
     -4.379379     29.000686     29.000686     58.001372
     -4.369369     29.844535     29.844535     59.689071
     -4.359359     31.565450     31.565450     63.130900
     -4.349349     33.610287     33.610287     67.220573
     -4.339339     35.443074     35.443074     70.886148
     -4.329329     36.702225     36.702225     73.404450
     -4.319319     37.290410     37.290410     74.580821
     -4.309309     37.372167     37.372167     74.744335
     -4.299299     37.291612     37.291612     74.583224
     -4.289289     37.447401     37.447401     74.894801
     -4.279279     38.163912     38.163912     76.327824
     -4.269269     39.583934     39.583934     79.167869
     -4.259259     41.597354     41.597354     83.194707
     -4.249249     43.823709     43.823709     87.647417
     -4.239239     45.674330     45.674330     91.348660
     -4.229229     46.508044     46.508044     93.016088
     -4.219219     45.850642     45.850642     91.701283
     -4.209209     43.593829     43.593829     87.187657
     -4.199199     40.070301     40.070301     80.140603
     -4.189189     35.949012     35.949012     71.898025
     -4.179179     31.989614     31.989614     63.979229
     -4.169169     28.775793     28.775793     57.551585
     -4.159159     26.557359     26.557359     53.114718
     -4.149149     25.265027     25.265027     50.530055
     -4.139139     24.665989     24.665989     49.331978
     -4.129129     24.561013     24.561013     49.122025
     -4.119119     24.914607     24.914607     49.829214
     -4.109109     25.851929     25.851929     51.703857
     -4.099099     27.524649     27.524649     55.049298
     -4.089089     29.916152     29.916152     59.832303
     -4.079079     32.697704     32.697704     65.395407
     -4.069069     35.236390     35.236390     70.472779
     -4.059059     36.784388     36.784388     73.568776
     -4.049049     36.776102     36.776102     73.552204
     -4.039039     35.085683     35.085683     70.171366
     -4.029029     32.107025     32.107025     64.214051
     -4.019019     28.613825     28.613825     57.227649
     -4.009009     25.479373     25.479373     50.958747
     -3.998999     23.404339     23.404339     46.808677
     -3.988989     22.774288     22.774288     45.548576
     -3.978979     23.673965     23.673965     47.347931
     -3.968969     25.993203     25.993203     51.986406
     -3.958959     29.530040     29.530040     59.060080
     -3.948949     34.037289     34.037289     68.074577
     -3.938939     39.225309     39.225309     78.450617
     -3.928929     44.770040     44.770040     89.540079
     -3.918919     50.357469     50.357469    100.714937
     -3.908909     55.746229     55.746229    111.492458
     -3.898899     60.795084     60.795084    121.590168
     -3.888889     65.413246     65.413246    130.826492
     -3.878879     69.443446     69.443446    138.886892
     -3.868869     72.544726     72.544726    145.089452
     -3.858859     74.163691     74.163691    148.327382
     -3.848849     73.649634     73.649634    147.299269
     -3.838839     70.493293     70.493293    140.986586
     -3.828829     64.591621     64.591621    129.183242
     -3.818819     56.408941     56.408941    112.817882
     -3.808809     46.942470     46.942470     93.884941
     -3.798799     37.489954     37.489954     74.979908
     -3.788789     29.308197     29.308197     58.616395
     -3.778779     23.293407     23.293407     46.586814
     -3.768769     19.791196     19.791196     39.582393
     -3.758759     18.579756     18.579756     37.159512
     -3.748749     19.004608     19.004608     38.009215
     -3.738739     20.205308     20.205308     40.410615
     -3.728729     21.366273     21.366273     42.732545
     -3.718719     21.932773     21.932773     43.865547
     -3.708709     21.746787     21.746787     43.493574
     -3.698699     21.072299     21.072299     42.144597
     -3.688689     20.499122     20.499122     40.998244
     -3.678679     20.741845     20.741845     41.483689
     -3.668669     22.383910     22.383910     44.767819
     -3.658659     25.645440     25.645440     51.290880
     -3.648649     30.260297     30.260297     60.520593
     -3.638639     35.518809     35.518809     71.037617
     -3.628629     40.469795     40.469795     80.939590
     -3.618619     44.205188     44.205188     88.410375
     -3.608609     46.112694     46.112694     92.225389
     -3.598599     46.002759     46.002759     92.005517
     -3.588589     44.083985     44.083985     88.167969
     -3.578579     40.831637     40.831637     81.663273
     -3.568569     36.823625     36.823625     73.647250
     -3.558559     32.600326     32.600326     65.200652
     -3.548549     28.568440     28.568440     57.136881
     -3.538539     24.949009     24.949009     49.898018
     -3.528529     21.772149     21.772149     43.544299
     -3.518519     18.925102     18.925102     37.850203
     -3.508509     16.246350     16.246350     32.492699
     -3.498498     13.632619     13.632619     27.265238
     -3.488488     11.111765     11.111765     22.223530
     -3.478478      8.849181      8.849181     17.698361
     -3.468468      7.089404      7.089404     14.178809
     -3.458458      6.063493      6.063493     12.126987
     -3.448448      5.900096      5.900096     11.800191
     -3.438438      6.567804      6.567804     13.135607
     -3.428428      7.863190      7.863190     15.726380
     -3.418418      9.450791      9.450791     18.901582
     -3.408408     10.952927     10.952927     21.905853
     -3.398398     12.070722     12.070722     24.141444
     -3.388388     12.696787     12.696787     25.393574
     -3.378378     12.971094     12.971094     25.942188
     -3.368368     13.248768     13.248768     26.497537
     -3.358358     13.987265     13.987265     27.974529
     -3.348348     15.597190     15.597190     31.194380
     -3.338338     18.311320     18.311320     36.622640
     -3.328328     22.105949     22.105949     44.211897
     -3.318318     26.678081     26.678081     53.356161
     -3.308308     31.468078     31.468078     62.936155
     -3.298298     35.727686     35.727686     71.455373
     -3.288288     38.646935     38.646935     77.293870
     -3.278278     39.540896     39.540896     79.081793
     -3.268268     38.054251     38.054251     76.108503
     -3.258258     34.300461     34.300461     68.600922
     -3.248248     28.856894     28.856894     57.713789
     -3.238238     22.599395     22.599395     45.198791
     -3.228228     16.442595     16.442595     32.885190
     -3.218218     11.098663     11.098663     22.197326
     -3.208208      6.947391      6.947391     13.894782
     -3.198198      4.044044      4.044044      8.088089
     -3.188188      2.226012      2.226012      4.452024
     -3.178178      1.251280      1.251280      2.502560
     -3.168168      0.914066      0.914066      1.828132
     -3.158158      1.113238      1.113238      2.226477
     -3.148148      1.873172      1.873172      3.746344
     -3.138138      3.324558      3.324558      6.649115
     -3.128128      5.650454      5.650454     11.300908
     -3.118118      9.002738      9.002738     18.005477
     -3.108108     13.403922     13.403922     26.807843
     -3.098098     18.665753     18.665753     37.331506
     -3.088088     24.365740     24.365740     48.731480
     -3.078078     29.910577     29.910577     59.821154
     -3.068068     34.678039     34.678039     69.356078
     -3.058058     38.182876     38.182876     76.365751
     -3.048048     40.188964     40.188964     80.377929
     -3.038038     40.713524     40.713524     81.427047
     -3.028028     39.932951     39.932951     79.865903
     -3.018018     38.062892     38.062892     76.125783
     -3.008008     35.299633     35.299633     70.599265
     -2.997998     31.860726     31.860726     63.721452
     -2.987988     28.084211     28.084211     56.168422
     -2.977978     24.496647     24.496647     48.993294
     -2.967968     21.775746     21.775746     43.551492
     -2.957958     20.599137     20.599137     41.198273
     -2.947948     21.438542     21.438542     42.877084
     -2.937938     24.387140     24.387140     48.774280
     -2.927928     29.089511     29.089511     58.179021
     -2.917918     34.799104     34.799104     69.598208
     -2.907908     40.543771     40.543771     81.087542
     -2.897898     45.350379     45.350379     90.700758
     -2.887888     48.467399     48.467399     96.934797
     -2.877878     49.526866     49.526866     99.053732
     -2.867868     48.602242     48.602242     97.204484
     -2.857858     46.145258     46.145258     92.290516
     -2.847848     42.819772     42.819772     85.639544
     -2.837838     39.285716     39.285716     78.571432
     -2.827828     36.007817     36.007817     72.015635
     -2.817818     33.158442     33.158442     66.316884
     -2.807808     30.647588     30.647588     61.295177
     -2.797798     28.257893     28.257893     56.515786
     -2.787788     25.814266     25.814266     51.628531
     -2.777778     23.302803     23.302803     46.605606
     -2.767768     20.882691     20.882691     41.765382
     -2.757758     18.794553     18.794553     37.589106
     -2.747748     17.226668     17.226668     34.453336
     -2.737738     16.222976     16.222976     32.445951
     -2.727728     15.688914     15.688914     31.377829
     -2.717718     15.488074     15.488074     30.976148
     -2.707708     15.562729     15.562729     31.125458
     -2.697698     15.993434     15.993434     31.986868
     -2.687688     16.950785     16.950785     33.901569
     -2.677678     18.563887     18.563887     37.127774
     -2.667668     20.789123     20.789123     41.578245
     -2.657658     23.368989     23.368989     46.737979
     -2.647648     25.916923     25.916923     51.833847
     -2.637638     28.083079     28.083079     56.166157
     -2.627628     29.702005     29.702005     59.404011
     -2.617618     30.834440     30.834440     61.668880
     -2.607608     31.685587     31.685587     63.371174
     -2.597598     32.461446     32.461446     64.922892
     -2.587588     33.255577     33.255577     66.511153
     -2.577578     34.021874     34.021874     68.043749
     -2.567568     34.619483     34.619483     69.238966
     -2.557558     34.873128     34.873128     69.746256
     -2.547548     34.607213     34.607213     69.214426
     -2.537538     33.661717     33.661717     67.323434
     -2.527528     31.928611     31.928611     63.857222
     -2.517518     29.427205     29.427205     58.854410
     -2.507508     26.384889     26.384889     52.769778
     -2.497497     23.256843     23.256843     46.513685
     -2.487487     20.638767     20.638767     41.277533
     -2.477477     19.088930     19.088930     38.177860
     -2.467467     18.935418     18.935418     37.870837
     -2.457457     20.161359     20.161359     40.322717
     -2.447447     22.426072     22.426072     44.852143
     -2.437437     25.214995     25.214995     50.429990
     -2.427427     28.049735     28.049735     56.099470
     -2.417417     30.660614     30.660614     61.321228
     -2.407407     33.040806     33.040806     66.081613
     -2.397397     35.356796     35.356796     70.713592
     -2.387387     37.759679     37.759679     75.519359
     -2.377377     40.192905     40.192905     80.385810
     -2.367367     42.299061     42.299061     84.598123
     -2.357357     43.485731     43.485731     86.971461
     -2.347347     43.135747     43.135747     86.271493
     -2.337337     40.874730     40.874730     81.749461
     -2.327327     36.775245     36.775245     73.550489
     -2.317317     31.402577     31.402577     62.805154
     -2.307307     25.680748     25.680748     51.361497
     -2.297297     20.638757     20.638757     41.277513
     -2.287287     17.141700     17.141700     34.283401
     -2.277277     15.700531     15.700531     31.401062
     -2.267267     16.404757     16.404757     32.809515
     -2.257257     18.969544     18.969544     37.939088
     -2.247247     22.856943     22.856943     45.713887
     -2.237237     27.422744     27.422744     54.845488
     -2.227227     32.045487     32.045487     64.090973
     -2.217217     36.206514     36.206514     72.413028
     -2.207207     39.510738     39.510738     79.021477
     -2.197197     41.665805     41.665805     83.331611
     -2.187187     42.459604     42.459604     84.919208
     -2.177177     41.774213     41.774213     83.548427
     -2.167167     39.642032     39.642032     79.284064
     -2.157157     36.305162     36.305162     72.610325
     -2.147147     32.216561     32.216561     64.433122
     -2.137137     27.945178     27.945178     55.890355
     -2.127127     24.007749     24.007749     48.015498
     -2.117117     20.705690     20.705690     41.411380
     -2.107107     18.053805     18.053805     36.107610
     -2.097097     15.838362     15.838362     31.676723
     -2.087087     13.767972     13.767972     27.535944
     -2.077077     11.631826     11.631826     23.263653
     -2.067067      9.386210      9.386210     18.772421
     -2.057057      7.141536      7.141536     14.283071
     -2.047047      5.079749      5.079749     10.159498
     -2.037037      3.360135      3.360135      6.720271
     -2.027027      2.060854      2.060854      4.121709
     -2.017017      1.171135      1.171135      2.342269
     -2.007007      0.620103      0.620103      1.240206
     -1.996997      0.317436      0.317436      0.634871
     -1.986987      0.187014      0.187014      0.374029
     -1.976977      0.187071      0.187071      0.374141
     -1.966967      0.319122      0.319122      0.638244
     -1.956957      0.629685      0.629685      1.259369
     -1.946947      1.205150      1.205150      2.410301
     -1.936937      2.156017      2.156017      4.312034
     -1.926927      3.586492      3.586492      7.172985
     -1.916917      5.551480      5.551480     11.102961
     -1.906907      8.012917      8.012917     16.025833
     -1.896897     10.814697     10.814697     21.629394
     -1.886887     13.693067     13.693067     27.386134
     -1.876877     16.325965     16.325965     32.651930
     -1.866867     18.407583     18.407583     36.815167
     -1.856857     19.723832     19.723832     39.447664
     -1.846847     20.205355     20.205355     40.410709
     -1.836837     19.942950     19.942950     39.885899
     -1.826827     19.158961     19.158961     38.317922
     -1.816817     18.136892     18.136892     36.273784
     -1.806807     17.124976     17.124976     34.249951
     -1.796797     16.246869     16.246869     32.493739
     -1.786787     15.461199     15.461199     30.922398
     -1.776777     14.596535     14.596535     29.193069
     -1.766767     13.450512     13.450512     26.901023
     -1.756757     11.904065     11.904065     23.808130
     -1.746747      9.992149      9.992149     19.984297
     -1.736737      7.899673      7.899673     15.799345
     -1.726727      5.896611      5.896611     11.793222
     -1.716717      4.257574      4.257574      8.515147
     -1.706707      3.209433      3.209433      6.418866
     -1.696697      2.921361      2.921361      5.842722
     -1.686687      3.517629      3.517629      7.035259
     -1.676677      5.077211      5.077211     10.154422
     -1.666667      7.595216      7.595216     15.190431
     -1.656657     10.913242     10.913242     21.826483
     -1.646647     14.660510     14.660510     29.321021
     -1.636637     18.262063     18.262063     36.524125
     -1.626627     21.048667     21.048667     42.097334
