# EIG2DOS: Utility for SIESTA to obtain the electronic density of states
#  E. Artacho, Apr 1999, A. Garcia, Apr 2012
#  Nick R. Papior, Feb 2017
# ------------------------------------------
# Eigenvalues calculated from a non-polarized calculation
# Eigenvalues read from siesta.EIG
# Kpoint weights read from siesta.KP
# Using smearing parameter:   0.0500
# Using 1000 points in the energy range
# Selected bands: 1 to: 2981
# Emin, Emax in file for selected band(s):    -27.1314931    218.3690450
# Nbands, Nspin, Nk   =   2981     1     1
# E_F                 =    -4.2289 eV --> (shifted to ZERO)
# Broadening          =     0.0500 eV
#
#        E            N(up)  (=)   N(down)         Ntot
     -5.000000     35.980132     35.980132     71.960264
     -4.989990     39.786287     39.786287     79.572575
     -4.979980     42.685280     42.685280     85.370560
     -4.969970     44.228586     44.228586     88.457171
     -4.959960     44.181990     44.181990     88.363980
     -4.949950     42.601122     42.601122     85.202243
     -4.939940     39.827312     39.827312     79.654624
     -4.929930     36.423433     36.423433     72.846866
     -4.919920     33.086969     33.086969     66.173938
     -4.909910     30.563481     30.563481     61.126962
     -4.899900     29.552625     29.552625     59.105251
     -4.889890     30.581379     30.581379     61.162757
     -4.879880     33.839113     33.839113     67.678227
     -4.869870     39.021468     39.021468     78.042937
     -4.859860     45.275624     45.275624     90.551248
     -4.849850     51.331374     51.331374    102.662748
     -4.839840     55.824524     55.824524    111.649049
     -4.829830     57.709507     57.709507    115.419013
     -4.819820     56.588173     56.588173    113.176345
     -4.809810     52.805829     52.805829    105.611657
     -4.799800     47.276887     47.276887     94.553774
     -4.789790     41.134226     41.134226     82.268452
     -4.779780     35.368431     35.368431     70.736862
     -4.769770     30.599395     30.599395     61.198790
     -4.759760     27.032063     27.032063     54.064126
     -4.749750     24.555117     24.555117     49.110234
     -4.739740     22.896101     22.896101     45.792202
     -4.729730     21.755634     21.755634     43.511269
     -4.719720     20.881700     20.881700     41.763400
     -4.709710     20.084636     20.084636     40.169272
     -4.699700     19.220479     19.220479     38.440958
     -4.689690     18.180374     18.180374     36.360749
     -4.679680     16.914313     16.914313     33.828625
     -4.669670     15.490557     15.490557     30.981113
     -4.659660     14.160552     14.160552     28.321105
     -4.649650     13.382150     13.382150     26.764301
     -4.639640     13.762892     13.762892     27.525783
     -4.629630     15.915329     15.915329     31.830658
     -4.619620     20.253682     20.253682     40.507363
     -4.609610     26.792808     26.792808     53.585616
     -4.599600     35.027177     35.027177     70.054355
     -4.589590     43.958721     43.958721     87.917441
     -4.579580     52.299530     52.299530    104.599059
     -4.569570     58.805450     58.805450    117.610900
     -4.559560     62.630172     62.630172    125.260345
     -4.549550     63.565968     63.565968    127.131936
     -4.539540     62.076044     62.076044    124.152088
     -4.529530     59.107183     59.107183    118.214366
     -4.519520     55.757739     55.757739    111.515479
     -4.509510     52.926320     52.926320    105.852640
     -4.499499     51.064187     51.064187    102.128374
     -4.489489     50.106460     50.106460    100.212919
     -4.479479     49.585269     49.585269     99.170538
     -4.469469     48.860768     48.860768     97.721537
     -4.459459     47.370207     47.370207     94.740414
     -4.449449     44.804745     44.804745     89.609490
     -4.439439     41.170247     41.170247     82.340494
     -4.429429     36.744938     36.744938     73.489877
     -4.419419     31.983205     31.983205     63.966410
     -4.409409     27.415158     27.415158     54.830315
     -4.399399     23.564206     23.564206     47.128413
     -4.389389     20.875683     20.875683     41.751366
     -4.379379     19.642792     19.642792     39.285585
     -4.369369     19.935697     19.935697     39.871394
     -4.359359     21.565318     21.565318     43.130636
     -4.349349     24.118167     24.118167     48.236335
     -4.339339     27.071084     27.071084     54.142168
     -4.329329     29.950650     29.950650     59.901299
     -4.319319     32.472075     32.472075     64.944150
     -4.309309     34.598054     34.598054     69.196107
     -4.299299     36.495545     36.495545     72.991089
     -4.289289     38.412957     38.412957     76.825914
     -4.279279     40.527618     40.527618     81.055235
     -4.269269     42.817680     42.817680     85.635361
     -4.259259     45.003495     45.003495     90.006990
     -4.249249     46.588877     46.588877     93.177755
     -4.239239     47.008086     47.008086     94.016173
     -4.229229     45.842876     45.842876     91.685751
     -4.219219     43.027406     43.027406     86.054812
     -4.209209     38.940006     38.940006     77.880012
     -4.199199     34.318138     34.318138     68.636276
     -4.189189     30.018165     30.018165     60.036329
     -4.179179     26.726016     26.726016     53.452032
     -4.169169     24.753616     24.753616     49.507233
     -4.159159     24.009817     24.009817     48.019633
     -4.149149     24.143257     24.143257     48.286515
     -4.139139     24.771674     24.771674     49.543348
     -4.129129     25.678014     25.678014     51.356028
     -4.119119     26.877465     26.877465     53.754930
     -4.109109     28.524967     28.524967     57.049934
     -4.099099     30.712817     30.712817     61.425634
     -4.089089     33.270572     33.270572     66.541143
     -4.079079     35.692167     35.692167     71.384334
     -4.069069     37.259548     37.259548     74.519096
     -4.059059     37.325714     37.325714     74.651428
     -4.049049     35.620559     35.620559     71.241118
     -4.039039     32.416555     32.416555     64.833111
     -4.029029     28.462935     28.462935     56.925870
     -4.019019     24.724534     24.724534     49.449069
     -4.009009     22.062937     22.062937     44.125874
     -3.998999     21.011037     21.011037     42.022073
     -3.988989     21.718503     21.718503     43.437005
     -3.978979     24.042205     24.042205     48.084410
     -3.968969     27.690371     27.690371     55.380741
     -3.958959     32.334127     32.334127     64.668255
     -3.948949     37.655371     37.655371     75.310741
     -3.938939     43.355436     43.355436     86.710871
     -3.928929     49.164141     49.164141     98.328281
     -3.918919     54.860995     54.860995    109.721990
     -3.908909     60.283421     60.283421    120.566843
     -3.898899     65.289245     65.289245    130.578491
     -3.888889     69.672895     69.672895    139.345789
     -3.878879     73.081253     73.081253    146.162506
     -3.868869     74.997046     74.997046    149.994092
     -3.858859     74.833858     74.833858    149.667715
     -3.848849     72.128640     72.128640    144.257280
     -3.838839     66.758902     66.758902    133.517805
     -3.828829     59.086814     59.086814    118.173627
     -3.818819     49.955860     49.955860     99.911720
     -3.808809     40.525951     40.525951     81.051903
     -3.798799     31.999667     31.999667     63.999333
     -3.788789     25.333639     25.333639     50.667278
     -3.778779     21.028496     21.028496     42.056992
     -3.768769     19.054640     19.054640     38.109280
     -3.758759     18.921304     18.921304     37.842607
     -3.748749     19.854996     19.854996     39.709992
     -3.738739     21.031459     21.031459     42.062919
     -3.728729     21.801396     21.801396     43.602791
     -3.718719     21.857667     21.857667     43.715334
     -3.708709     21.305344     21.305344     42.610688
     -3.698699     20.614794     20.614794     41.229588
     -3.688689     20.463177     20.463177     40.926355
     -3.678679     21.500574     21.500574     43.001148
     -3.668669     24.106861     24.106861     48.213721
     -3.658659     28.221090     28.221090     56.442179
     -3.648649     33.311828     33.311828     66.623656
     -3.638639     38.509834     38.509834     77.019668
     -3.628629     42.858590     42.858590     85.717180
     -3.618619     45.586239     45.586239     91.172477
     -3.608609     46.296010     46.296010     92.592020
     -3.598599     45.017055     45.017055     90.034110
     -3.588589     42.125583     42.125583     84.251166
     -3.578579     38.194544     38.194544     76.389087
     -3.568569     33.835256     33.835256     67.670511
     -3.558559     29.568485     29.568485     59.136969
     -3.548549     25.737106     25.737106     51.474213
     -3.538539     22.466517     22.466517     44.933033
     -3.528529     19.683059     19.683059     39.366117
     -3.518519     17.193346     17.193346     34.386691
     -3.508509     14.802234     14.802234     29.604468
     -3.498498     12.422307     12.422307     24.844615
     -3.488488     10.126870     10.126870     20.253741
     -3.478478      8.126301      8.126301     16.252602
     -3.468468      6.684946      6.684946     13.369892
     -3.458458      6.017967      6.017967     12.035935
     -3.448448      6.206229      6.206229     12.412458
     -3.438438      7.153065      7.153065     14.306130
     -3.428428      8.593959      8.593959     17.187918
     -3.418418     10.161593     10.161593     20.323187
     -3.408408     11.496730     11.496730     22.993460
     -3.398398     12.375808     12.375808     24.751616
     -3.388388     12.808487     12.808487     25.616973
     -3.378378     13.059573     13.059573     26.119146
     -3.368368     13.577117     13.577117     27.154235
     -3.358358     14.848970     14.848970     29.697941
     -3.348348     17.238976     17.238976     34.477951
     -3.338338     20.854886     20.854886     41.709772
     -3.328328     25.478871     25.478871     50.957743
     -3.318318     30.569405     30.569405     61.138811
     -3.308308     35.335491     35.335491     70.670983
     -3.298298     38.884138     38.884138     77.768275
     -3.288288     40.429338     40.429338     80.858676
     -3.278278     39.517098     39.517098     79.034196
     -3.268268     36.186967     36.186967     72.373934
     -3.258258     30.992388     30.992388     61.984776
     -3.248248     24.855562     24.855562     49.711124
     -3.238238     18.810443     18.810443     37.620886
     -3.228228     13.737899     13.737899     27.475799
     -3.218218     10.187254     10.187254     20.374509
     -3.208208      8.321649      8.321649     16.643299
     -3.198198      7.966219      7.966219     15.932437
     -3.188188      8.714241      8.714241     17.428482
     -3.178178     10.057739     10.057739     20.115478
     -3.168168     11.527763     11.527763     23.055526
     -3.158158     12.830327     12.830327     25.660654
     -3.148148     13.946480     13.946480     27.892959
     -3.138138     15.151614     15.151614     30.303228
     -3.128128     16.922431     16.922431     33.844861
     -3.118118     19.742223     19.742223     39.484446
     -3.108108     23.866061     23.866061     47.732123
     -3.098098     29.138538     29.138538     58.277077
     -3.088088     34.948651     34.948651     69.897302
     -3.078078     40.357946     40.357946     80.715893
     -3.068068     44.366469     44.366469     88.732938
     -3.058058     46.216793     46.216793     92.433586
     -3.048048     45.613040     45.613040     91.226080
     -3.038038     42.767977     42.767977     85.535954
     -3.028028     38.273941     38.273941     76.547883
     -3.018018     32.877587     32.877587     65.755175
     -3.008008     27.274045     27.274045     54.548090
     -2.997998     22.003764     22.003764     44.007529
     -2.987988     17.461931     17.461931     34.923863
     -2.977978     13.966966     13.966966     27.933931
     -2.967968     11.816893     11.816893     23.633787
     -2.957958     11.288300     11.288300     22.576601
     -2.947948     12.574249     12.574249     25.148497
     -2.937938     15.689349     15.689349     31.378698
     -2.927928     20.384390     20.384390     40.768780
     -2.917918     26.113626     26.113626     52.227251
     -2.907908     32.087147     32.087147     64.174294
     -2.897898     37.415937     37.415937     74.831873
     -2.887888     41.319551     41.319551     82.639101
     -2.877878     43.329548     43.329548     86.659096
     -2.867868     43.407788     43.407788     86.815575
     -2.857858     41.923136     41.923136     83.846273
     -2.847848     39.488199     39.488199     78.976399
     -2.837838     36.722687     36.722687     73.445375
     -2.827828     34.046772     34.046772     68.093544
     -2.817818     31.593289     31.593289     63.186578
     -2.807808     29.266851     29.266851     58.533702
     -2.797798     26.902764     26.902764     53.805527
     -2.787788     24.430668     24.430668     48.861336
     -2.777778     21.953535     21.953535     43.907070
     -2.767768     19.707756     19.707756     39.415512
     -2.757758     17.941695     17.941695     35.883389
     -2.747748     16.795715     16.795715     33.591430
     -2.737738     16.259477     16.259477     32.518955
     -2.727728     16.227084     16.227084     32.454168
     -2.717718     16.603009     16.603009     33.206019
     -2.707708     17.376632     17.376632     34.753265
     -2.697698     18.606102     18.606102     37.212203
     -2.687688     20.319695     20.319695     40.639390
     -2.677678     22.408479     22.408479     44.816959
     -2.667668     24.599120     24.599120     49.198240
     -2.657658     26.544870     26.544870     53.089739
     -2.647648     27.988779     27.988779     55.977558
     -2.637638     28.896232     28.896232     57.792464
     -2.627628     29.467849     29.467849     58.935697
     -2.617618     30.021093     30.021093     60.042186
     -2.607608     30.814025     30.814025     61.628050
     -2.597598     31.915729     31.915729     63.831457
     -2.587588     33.185829     33.185829     66.371658
     -2.577578     34.347980     34.347980     68.695960
     -2.567568     35.091307     35.091307     70.182614
     -2.557558     35.143325     35.143325     70.286649
     -2.547548     34.307574     34.307574     68.615148
     -2.537538     32.497161     32.497161     64.994322
     -2.527528     29.787233     29.787233     59.574465
     -2.517518     26.467518     26.467518     52.935036
     -2.507508     23.044334     23.044334     46.088669
     -2.497497     20.152935     20.152935     40.305870
     -2.487487     18.390246     18.390246     36.780492
     -2.477477     18.129381     18.129381     36.258763
     -2.467467     19.396512     19.396512     38.793025
     -2.457457     21.867559     21.867559     43.735119
     -2.447447     24.991034     24.991034     49.982068
     -2.437437     28.189070     28.189070     56.378141
     -2.427427     31.054147     31.054147     62.108294
     -2.417417     33.458341     33.458341     66.916681
     -2.407407     35.526835     35.526835     71.053670
     -2.397397     37.485705     37.485705     74.971410
     -2.387387     39.452774     39.452774     78.905548
     -2.377377     41.273808     41.273808     82.547616
     -2.367367     42.495359     42.495359     84.990717
     -2.357357     42.507398     42.507398     85.014797
     -2.347347     40.804647     40.804647     81.609295
     -2.337337     37.247604     37.247604     74.495207
     -2.327327     32.195501     32.195501     64.391001
     -2.317317     26.445299     26.445299     52.890597
     -2.307307     21.008513     21.008513     42.017025
     -2.297297     16.831126     16.831126     33.662252
     -2.287287     14.570122     14.570122     29.140243
     -2.277277     14.490094     14.490094     28.980188
     -2.267267     16.477538     16.477538     32.955077
     -2.257257     20.129269     20.129269     40.258537
     -2.247247     24.866254     24.866254     49.732508
     -2.237237     30.040013     30.040013     60.080026
     -2.227227     35.016292     35.016292     70.032584
     -2.217217     39.232349     39.232349     78.464698
     -2.207207     42.232497     42.232497     84.464994
     -2.197197     43.694011     43.694011     87.388023
     -2.187187     43.457420     43.457420     86.914840
     -2.177177     41.564594     41.564594     83.129188
     -2.167167     38.286356     38.286356     76.572711
     -2.157157     34.104200     34.104200     68.208400
     -2.147147     29.618466     29.618466     59.236932
     -2.137137     25.393401     25.393401     50.786802
     -2.127127     21.796629     21.796629     43.593258
     -2.117117     18.910199     18.910199     37.820397
     -2.107107     16.560925     16.560925     33.121851
     -2.097097     14.453736     14.453736     28.907472
     -2.087087     12.335570     12.335570     24.671139
     -2.077077     10.106812     10.106812     20.213625
     -2.067067      7.836209      7.836209     15.672419
     -2.057057      5.693457      5.693457     11.386914
     -2.047047      3.852478      3.852478      7.704957
     -2.037037      2.418867      2.418867      4.837734
     -2.027027      1.406911      1.406911      2.813821
     -2.017017      0.759512      0.759512      1.519023
     -2.007007      0.387444      0.387444      0.774889
     -1.996997      0.206072      0.206072      0.412144
     -1.986987      0.159248      0.159248      0.318497
     -1.976977      0.230850      0.230850      0.461700
     -1.966967      0.448473      0.448473      0.896946
     -1.956957      0.881562      0.881562      1.763123
     -1.946947      1.631580      1.631580      3.263160
     -1.936937      2.809530      2.809530      5.619059
     -1.926927      4.499603      4.499603      8.999205
     -1.916917      6.716795      6.716795     13.433589
     -1.906907      9.375835      9.375835     18.751671
     -1.896897     12.290851     12.290851     24.581701
     -1.886887     15.214681     15.214681     30.429361
     -1.876877     17.907331     17.907331     35.814662
     -1.866867     20.206064     20.206064     40.412127
     -1.856857     22.066122     22.066122     44.132244
     -1.846847     23.553002     23.553002     47.106003
     -1.836837     24.787066     24.787066     49.574132
     -1.826827     25.860256     25.860256     51.720512
     -1.816817     26.757715     26.757715     53.515430
     -1.806807     27.321218     27.321218     54.642435
     -1.796797     27.281116     27.281116     54.562231
     -1.786787     26.355794     26.355794     52.711588
     -1.776777     24.381193     24.381193     48.762385
     -1.766767     21.409546     21.409546     42.819092
     -1.756757     17.725964     17.725964     35.451927
     -1.746747     13.772703     13.772703     27.545406
     -1.736737     10.019099     10.019099     20.038199
     -1.726727      6.839548      6.839548     13.679096
     -1.716717      4.449651      4.449651      8.899303
     -1.706707      2.913494      2.913494      5.826988
     -1.696697      2.197980      2.197980      4.395961
     -1.686687      2.232715      2.232715      4.465431
     -1.676677      2.940438      2.940438      5.880877
     -1.666667      4.225775      4.225775      8.451551
     -1.656657      5.936757      5.936757     11.873514
     -1.646647      7.832356      7.832356     15.664712
     -1.636637      9.590957      9.590957     19.181914
     -1.626627     10.875917     10.875917     21.751833
