# EIG2DOS: Utility for SIESTA to obtain the electronic density of states
#  E. Artacho, Apr 1999, A. Garcia, Apr 2012
#  Nick R. Papior, Feb 2017
# ------------------------------------------
# Eigenvalues calculated from a non-polarized calculation
# Eigenvalues read from siesta.EIG
# Kpoint weights read from siesta.KP
# Using smearing parameter:   0.0500
# Using 1000 points in the energy range
# Selected bands: 1 to: 2981
# Emin, Emax in file for selected band(s):    -27.2171927    218.3919040
# Nbands, Nspin, Nk   =   2981     1     1
# E_F                 =    -4.2081 eV --> (shifted to ZERO)
# Broadening          =     0.0500 eV
#
#        E            N(up)  (=)   N(down)         Ntot
     -5.000000     33.436612     33.436612     66.873223
     -4.989990     38.306009     38.306009     76.612017
     -4.979980     42.603232     42.603232     85.206465
     -4.969970     45.574209     45.574209     91.148417
     -4.959960     46.667815     46.667815     93.335629
     -4.949950     45.720074     45.720074     91.440148
     -4.939940     43.011989     43.011989     86.023977
     -4.929930     39.197284     39.197284     78.394567
     -4.919920     35.151960     35.151960     70.303920
     -4.909910     31.807632     31.807632     63.615265
     -4.899900     29.999001     29.999001     59.998002
     -4.889890     30.319435     30.319435     60.638870
     -4.879880     32.975980     32.975980     65.951960
     -4.869870     37.671321     37.671321     75.342642
     -4.859860     43.580355     43.580355     87.160709
     -4.849850     49.486341     49.486341     98.972682
     -4.839840     54.079232     54.079232    108.158464
     -4.829830     56.328403     56.328403    112.656806
     -4.819820     55.783758     55.783758    111.567515
     -4.809810     52.677392     52.677392    105.354785
     -4.799800     47.787912     47.787912     95.575824
     -4.789790     42.139267     42.139267     84.278534
     -4.779780     36.672290     36.672290     73.344580
     -4.769770     32.017375     32.017375     64.034750
     -4.759760     28.427260     28.427260     56.854519
     -4.749750     25.847809     25.847809     51.695617
     -4.739740     24.055928     24.055928     48.111855
     -4.729730     22.791364     22.791364     45.582728
     -4.719720     21.838781     21.838781     43.677562
     -4.709710     21.054350     21.054350     42.108700
     -4.699700     20.359130     20.359130     40.718259
     -4.689690     19.730510     19.730510     39.461021
     -4.679680     19.211481     19.211481     38.422961
     -4.669670     18.933430     18.933430     37.866860
     -4.659660     19.128501     19.128501     38.257002
     -4.649650     20.106678     20.106678     40.213356
     -4.639640     22.189974     22.189974     44.379949
     -4.629630     25.615655     25.615655     51.231310
     -4.619620     30.429765     30.429765     60.859530
     -4.609610     36.395123     36.395123     72.790246
     -4.599600     42.945908     42.945908     85.891817
     -4.589590     49.231191     49.231191     98.462382
     -4.579580     54.279543     54.279543    108.559087
     -4.569570     57.268123     57.268123    114.536247
     -4.559560     57.809091     57.809091    115.618181
     -4.549550     56.123565     56.123565    112.247130
     -4.539540     53.001576     53.001576    106.003153
     -4.529530     49.541098     49.541098     99.082195
     -4.519520     46.766967     46.766967     93.533935
     -4.509510     45.288161     45.288161     90.576322
     -4.499499     45.129805     45.129805     90.259610
     -4.489489     45.792385     45.792385     91.584770
     -4.479479     46.491679     46.491679     92.983358
     -4.469469     46.465696     46.465696     92.931391
     -4.459459     45.224366     45.224366     90.448732
     -4.449449     42.660837     42.660837     85.321674
     -4.439439     39.014228     39.014228     78.028456
     -4.429429     34.737274     34.737274     69.474548
     -4.419419     30.349085     30.349085     60.698171
     -4.409409     26.334184     26.334184     52.668368
     -4.399399     23.100582     23.100582     46.201165
     -4.389389     20.966007     20.966007     41.932013
     -4.379379     20.132195     20.132195     40.264389
     -4.369369     20.636189     20.636189     41.272377
     -4.359359     22.308604     22.308604     44.617208
     -4.349349     24.786124     24.786124     49.572249
     -4.339339     27.602260     27.602260     55.204520
     -4.329329     30.332294     30.332294     60.664589
     -4.319319     32.729936     32.729936     65.459872
     -4.309309     34.790738     34.790738     69.581476
     -4.299299     36.710476     36.710476     73.420951
     -4.289289     38.753356     38.753356     77.506712
     -4.279279     41.081303     41.081303     82.162605
     -4.269269     43.610901     43.610901     87.221803
     -4.259259     45.959873     45.959873     91.919747
     -4.249249     47.521332     47.521332     95.042664
     -4.239239     47.660333     47.660333     95.320665
     -4.229229     45.970396     45.970396     91.940793
     -4.219219     42.483105     42.483105     84.966210
     -4.209209     37.725288     37.725288     75.450576
     -4.199199     32.579516     32.579516     65.159033
     -4.189189     27.998609     27.998609     55.997218
     -4.179179     24.699251     24.699251     49.398502
     -4.169169     22.968762     22.968762     45.937524
     -4.159159     22.658947     22.658947     45.317895
     -4.149149     23.349064     23.349064     46.698128
     -4.139139     24.585631     24.585631     49.171262
     -4.129129     26.081537     26.081537     52.163074
     -4.119119     27.784235     27.784235     55.568471
     -4.109109     29.787182     29.787182     59.574364
     -4.099099     32.135559     32.135559     64.271117
     -4.089089     34.636701     34.636701     69.273402
     -4.079079     36.795687     36.795687     73.591373
     -4.069069     37.940130     37.940130     75.880260
     -4.059059     37.494270     37.494270     74.988540
     -4.049049     35.268314     35.268314     70.536628
     -4.039039     31.607648     31.607648     63.215296
     -4.029029     27.318199     27.318199     54.636398
     -4.019019     23.405662     23.405662     46.811325
     -4.009009     20.759973     20.759973     41.519947
     -3.998999     19.927396     19.927396     39.854793
     -3.988989     21.045146     21.045146     42.090293
     -3.978979     23.920181     23.920181     47.840362
     -3.968969     28.173553     28.173553     56.347106
     -3.958959     33.370944     33.370944     66.741889
     -3.948949     39.102543     39.102543     78.205085
     -3.938939     45.020916     45.020916     90.041833
     -3.928929     50.860924     50.860924    101.721847
     -3.918919     56.448120     56.448120    112.896240
     -3.908909     61.678162     61.678162    123.356324
     -3.898899     66.450158     66.450158    132.900316
     -3.888889     70.568495     70.568495    141.136990
     -3.878879     73.665918     73.665918    147.331836
     -3.868869     75.210799     75.210799    150.421598
     -3.858859     74.628122     74.628122    149.256244
     -3.848849     71.503534     71.503534    143.007069
     -3.838839     65.789042     65.789042    131.578084
     -3.828829     57.917840     57.917840    115.835680
     -3.818819     48.770249     48.770249     97.540498
     -3.808809     39.493579     39.493579     78.987158
     -3.798799     31.235435     31.235435     62.470870
     -3.788789     24.878069     24.878069     49.756138
     -3.778779     20.853636     20.853636     41.707272
     -3.768769     19.086412     19.086412     38.172824
     -3.758759     19.066198     19.066198     38.132396
     -3.748749     20.022624     20.022624     40.045248
     -3.738739     21.150051     21.150051     42.300101
     -3.728729     21.826822     21.826822     43.653644
     -3.718719     21.777270     21.777270     43.554541
     -3.708709     21.137184     21.137184     42.274368
     -3.698699     20.402430     20.402430     40.804861
     -3.688689     20.266244     20.266244     40.532489
     -3.678679     21.381890     21.381890     42.763780
     -3.668669     24.117495     24.117495     48.234990
     -3.658659     28.385849     28.385849     56.771698
     -3.648649     33.618884     33.618884     67.237769
     -3.638639     38.908802     38.908802     77.817605
     -3.628629     43.269912     43.269912     86.539823
     -3.618619     45.920907     45.920907     91.841813
     -3.608609     46.479919     46.479919     92.959838
     -3.598599     45.011405     45.011405     90.022810
     -3.588589     41.935781     41.935781     83.871561
     -3.578579     37.864754     37.864754     75.729508
     -3.568569     33.431675     33.431675     66.863351
     -3.558559     29.158554     29.158554     58.317109
     -3.548549     25.372444     25.372444     50.744888
     -3.538539     22.174552     22.174552     44.349103
     -3.528529     19.468001     19.468001     38.936002
     -3.518519     17.043461     17.043461     34.086923
     -3.508509     14.698885     14.698885     29.397770
     -3.498498     12.347014     12.347014     24.694029
     -3.488488     10.064798     10.064798     20.129595
     -3.478478      8.066745      8.066745     16.133491
     -3.468468      6.620611      6.620611     13.241221
     -3.458458      5.944747      5.944747     11.889494
     -3.448448      6.124226      6.124226     12.248451
     -3.438438      7.068300      7.068300     14.136600
     -3.428428      8.519448      8.519448     17.038896
     -3.418418     10.116557     10.116557     20.233115
     -3.408408     11.503742     11.503742     23.007485
     -3.398398     12.457070     12.457070     24.914140
     -3.388388     12.983601     12.983601     25.967201
     -3.378378     13.347835     13.347835     26.695671
     -3.368368     14.007413     14.007413     28.014826
     -3.358358     15.479451     15.479451     30.958903
     -3.348348     18.185458     18.185458     36.370916
     -3.338338     22.320097     22.320097     44.640194
     -3.328328     27.765732     27.765732     55.531463
     -3.318318     34.056363     34.056363     68.112726
     -3.308308     40.398675     40.398675     80.797351
     -3.298298     45.773387     45.773387     91.546775
     -3.288288     49.135283     49.135283     98.270566
     -3.278278     49.686092     49.686092     99.372184
     -3.268268     47.132060     47.132060     94.264120
     -3.258258     41.809401     41.809401     83.618801
     -3.248248     34.603390     34.603390     69.206781
     -3.238238     26.684871     26.684871     53.369742
     -3.228228     19.179090     19.179090     38.358181
     -3.218218     12.906461     12.906461     25.812922
     -3.208208      8.282149      8.282149     16.564299
     -3.198198      5.372667      5.372667     10.745334
     -3.188188      4.039265      4.039265      8.078529
     -3.178178      4.081316      4.081316      8.162631
     -3.168168      5.321813      5.321813     10.643626
     -3.158158      7.623285      7.623285     15.246569
     -3.148148     10.857895     10.857895     21.715791
     -3.138138     14.866480     14.866480     29.732960
     -3.128128     19.430122     19.430122     38.860244
     -3.118118     24.258911     24.258911     48.517823
     -3.108108     28.992373     28.992373     57.984747
     -3.098098     33.211966     33.211966     66.423931
     -3.088088     36.478491     36.478491     72.956981
     -3.078078     38.406745     38.406745     76.813490
     -3.068068     38.766286     38.766286     77.532572
     -3.058058     37.565090     37.565090     75.130181
     -3.048048     35.062641     35.062641     70.125281
     -3.038038     31.689503     31.689503     63.379006
     -3.028028     27.906836     27.906836     55.813672
     -3.018018     24.080243     24.080243     48.160486
     -3.008008     20.434564     20.434564     40.869128
     -2.997998     17.103498     17.103498     34.206996
     -2.987988     14.228952     14.228952     28.457905
     -2.977978     12.040071     12.040071     24.080142
     -2.967968     10.861891     10.861891     21.723781
     -2.957958     11.046720     11.046720     22.093439
     -2.947948     12.857338     12.857338     25.714677
     -2.937938     16.345583     16.345583     32.691165
     -2.927928     21.267899     21.267899     42.535797
     -2.917918     27.070976     27.070976     54.141953
     -2.907908     32.967117     32.967117     65.934234
     -2.897898     38.095450     38.095450     76.190900
     -2.887888     41.731570     41.731570     83.463139
     -2.877878     43.477618     43.477618     86.955236
     -2.867868     43.357618     43.357618     86.715236
     -2.857858     41.771896     41.771896     83.543792
     -2.847848     39.322744     39.322744     78.645488
     -2.837838     36.583970     36.583970     73.167941
     -2.827828     33.915964     33.915964     67.831928
     -2.817818     31.405868     31.405868     62.811736
     -2.807808     28.947972     28.947972     57.895943
     -2.797798     26.407029     26.407029     52.814058
     -2.787788     23.767592     23.767592     47.535183
     -2.777778     21.187805     21.187805     42.375610
     -2.767768     18.936680     18.936680     37.873360
     -2.757758     17.263318     17.263318     34.526636
     -2.747748     16.283893     16.283893     32.567786
     -2.737738     15.955487     15.955487     31.910974
     -2.727728     16.145954     16.145954     32.291908
     -2.717718     16.743957     16.743957     33.487914
     -2.707708     17.726390     17.726390     35.452780
     -2.697698     19.131622     19.131622     38.263244
     -2.687688     20.957333     20.957333     41.914666
     -2.677678     23.062500     23.062500     46.124999
     -2.667668     25.158340     25.158340     50.316679
     -2.657658     26.914298     26.914298     53.828596
     -2.647648     28.121420     28.121420     56.242841
     -2.637638     28.807763     28.807763     57.615526
     -2.627628     29.226217     29.226217     58.452433
     -2.617618     29.717741     29.717741     59.435481
     -2.607608     30.532628     30.532628     61.065256
     -2.597598     31.711935     31.711935     63.423869
     -2.587588     33.081087     33.081087     66.162173
     -2.577578     34.331757     34.331757     68.663515
     -2.567568     35.125503     35.125503     70.251007
     -2.557558     35.168538     35.168538     70.337075
     -2.547548     34.255267     34.255267     68.510534
     -2.537538     32.309328     32.309328     64.618655
     -2.527528     29.437998     29.437998     58.875996
     -2.517518     25.976500     25.976500     51.953000
     -2.507508     22.474424     22.474424     44.948847
     -2.497497     19.593591     19.593591     39.187183
     -2.487487     17.934845     17.934845     35.869689
     -2.477477     17.856409     17.856409     35.712817
     -2.467467     19.359801     19.359801     38.719603
     -2.457457     22.094791     22.094791     44.189583
     -2.447447     25.486595     25.486595     50.973191
     -2.437437     28.937761     28.937761     57.875521
     -2.427427     32.023853     32.023853     64.047706
     -2.417417     34.600433     34.600433     69.200867
     -2.407407     36.773040     36.773040     73.546080
     -2.397397     38.741792     38.741792     77.483583
     -2.387387     40.593745     40.593745     81.187489
     -2.377377     42.149666     42.149666     84.299333
     -2.367367     42.955596     42.955596     85.911192
     -2.357357     42.443025     42.443025     84.886051
     -2.347347     40.193008     40.193008     80.386016
     -2.337337     36.177380     36.177380     72.354761
     -2.327327     30.855236     30.855236     61.710472
     -2.317317     25.076497     25.076497     50.152994
     -2.307307     19.842469     19.842469     39.684938
     -2.297297     16.035207     16.035207     32.070413
     -2.287287     14.221415     14.221415     28.442830
     -2.277277     14.579297     14.579297     29.158593
     -2.267267     16.933507     16.933507     33.867013
     -2.257257     20.850012     20.850012     41.700025
     -2.247247     25.744265     25.744265     51.488529
     -2.237237     30.975370     30.975370     61.950740
     -2.227227     35.917462     35.917462     71.834925
     -2.217217     40.010466     40.010466     80.020932
     -2.207207     42.798243     42.798243     85.596487
     -2.197197     43.964849     43.964849     87.929697
     -2.187187     43.376426     43.376426     86.752851
     -2.177177     41.123433     41.123433     82.246867
     -2.167167     37.539226     37.539226     75.078452
     -2.157157     33.161351     33.161351     66.322702
     -2.147147     28.617475     28.617475     57.234949
     -2.137137     24.458746     24.458746     48.917492
     -2.127127     21.005542     21.005542     42.011084
     -2.117117     18.280020     18.280020     36.560041
     -2.107107     16.061600     16.061600     32.123200
     -2.097097     14.035960     14.035960     28.071920
     -2.087087     11.958667     11.958667     23.917334
     -2.077077      9.753747      9.753747     19.507493
     -2.067067      7.512803      7.512803     15.025606
     -2.057057      5.418059      5.418059     10.836118
     -2.047047      3.646063      3.646063      7.292125
     -2.037037      2.303602      2.303602      4.607203
     -2.027027      1.416570      1.416570      2.833141
     -2.017017      0.960740      0.960740      1.921480
     -2.007007      0.907288      0.907288      1.814575
     -1.996997      1.257076      1.257076      2.514152
     -1.986987      2.048260      2.048260      4.096521
     -1.976977      3.334426      3.334426      6.668852
     -1.966967      5.142376      5.142376     10.284751
     -1.956957      7.428609      7.428609     14.857217
     -1.946947     10.057624     10.057624     20.115248
     -1.936937     12.818004     12.818004     25.636008
     -1.926927     15.473399     15.473399     30.946799
     -1.916917     17.824542     17.824542     35.649084
     -1.906907     19.750202     19.750202     39.500403
     -1.896897     21.207532     21.207532     42.415064
     -1.886887     22.198166     22.198166     44.396331
     -1.876877     22.727446     22.727446     45.454893
     -1.866867     22.786198     22.786198     45.572396
     -1.856857     22.367408     22.367408     44.734815
     -1.846847     21.506081     21.506081     43.012162
     -1.836837     20.313191     20.313191     40.626382
     -1.826827     18.973379     18.973379     37.946758
     -1.816817     17.693450     17.693450     35.386901
     -1.806807     16.618685     16.618685     33.237370
     -1.796797     15.760504     15.760504     31.521007
     -1.786787     14.982143     14.982143     29.964285
     -1.776777     14.060495     14.060495     28.120990
     -1.766767     12.796971     12.796971     25.593943
     -1.756757     11.118865     11.118865     22.237729
     -1.746747      9.118403      9.118403     18.236807
     -1.736737      7.015452      7.015452     14.030904
     -1.726727      5.073738      5.073738     10.147476
     -1.716717      3.520227      3.520227      7.040455
     -1.706707      2.503922      2.503922      5.007845
     -1.696697      2.098243      2.098243      4.196487
     -1.686687      2.323781      2.323781      4.647561
     -1.676677      3.161209      3.161209      6.322418
     -1.666667      4.538434      4.538434      9.076869
     -1.656657      6.300835      6.300835     12.601669
     -1.646647      8.193340      8.193340     16.386679
     -1.636637      9.885159      9.885159     19.770318
     -1.626627     11.048307     11.048307     22.096615
