# EIG2DOS: Utility for SIESTA to obtain the electronic density of states
#  E. Artacho, Apr 1999, A. Garcia, Apr 2012
#  Nick R. Papior, Feb 2017
# ------------------------------------------
# Eigenvalues calculated from a non-polarized calculation
# Eigenvalues read from siesta.EIG
# Kpoint weights read from siesta.KP
# Using smearing parameter:   0.0500
# Using 1000 points in the energy range
# Selected bands: 1 to: 2981
# Emin, Emax in file for selected band(s):    -27.0537292    218.3075290
# Nbands, Nspin, Nk   =   2981     1     1
# E_F                 =    -4.3052 eV --> (shifted to ZERO)
# Broadening          =     0.0500 eV
#
#        E            N(up)  (=)   N(down)         Ntot
     -5.000000     46.498546     46.498546     92.997093
     -4.989990     48.815576     48.815576     97.631151
     -4.979980     49.625732     49.625732     99.251463
     -4.969970     49.003396     49.003396     98.006792
     -4.959960     47.171451     47.171451     94.342901
     -4.949950     44.431113     44.431113     88.862227
     -4.939940     41.116619     41.116619     82.233237
     -4.929930     37.591071     37.591071     75.182142
     -4.919920     34.273100     34.273100     68.546200
     -4.909910     31.663083     31.663083     63.326166
     -4.899900     30.328176     30.328176     60.656352
     -4.889890     30.810792     30.810792     61.621583
     -4.879880     33.453175     33.453175     66.906351
     -4.869870     38.183346     38.183346     76.366692
     -4.859860     44.363657     44.363657     88.727315
     -4.849850     50.818670     50.818670    101.637341
     -4.839840     56.098888     56.098888    112.197776
     -4.829830     58.915352     58.915352    117.830705
     -4.819820     58.567387     58.567387    117.134774
     -4.809810     55.163890     55.163890    110.327779
     -4.799800     49.535469     49.535469     99.070939
     -4.789790     42.894135     42.894135     85.788270
     -4.779780     36.416628     36.416628     72.833257
     -4.769770     30.935453     30.935453     61.870906
     -4.759760     26.829290     26.829290     53.658581
     -4.749750     24.087700     24.087700     48.175399
     -4.739740     22.458363     22.458363     44.916725
     -4.729730     21.589554     21.589554     43.179109
     -4.719720     21.124913     21.124913     42.249826
     -4.709710     20.749898     20.749898     41.499797
     -4.699700     20.210208     20.210208     40.420417
     -4.689690     19.325409     19.325409     38.650819
     -4.679680     18.014194     18.014194     36.028388
     -4.669670     16.333936     16.333936     32.667872
     -4.659660     14.519759     14.519759     29.039517
     -4.649650     12.995993     12.995993     25.991986
     -4.639640     12.334133     12.334133     24.668267
     -4.629630     13.146206     13.146206     26.292412
     -4.619620     15.923650     15.923650     31.847300
     -4.609610     20.853915     20.853915     41.707830
     -4.599600     27.668354     27.668354     55.336707
     -4.589590     35.589323     35.589323     71.178646
     -4.579580     43.435478     43.435478     86.870956
     -4.569570     49.896926     49.896926     99.793853
     -4.559560     53.914165     53.914165    107.828331
     -4.549550     55.024955     55.024955    110.049910
     -4.539540     53.529922     53.529922    107.059845
     -4.529530     50.391919     50.391919    100.783837
     -4.519520     46.899288     46.899288     93.798576
     -4.509510     44.228404     44.228404     88.456807
     -4.499499     43.080292     43.080292     86.160584
     -4.489489     43.522816     43.522816     87.045631
     -4.479479     45.071945     45.071945     90.143891
     -4.469469     46.945439     46.945439     93.890878
     -4.459459     48.365405     48.365405     96.730810
     -4.449449     48.790541     48.790541     97.581081
     -4.439439     48.011768     48.011768     96.023536
     -4.429429     46.115469     46.115469     92.230939
     -4.419419     43.372993     43.372993     86.745986
     -4.409409     40.130623     40.130623     80.261246
     -4.399399     36.747495     36.747495     73.494990
     -4.389389     33.579667     33.579667     67.159335
     -4.379379     30.970633     30.970633     61.941265
     -4.369369     29.209161     29.209161     58.418323
     -4.359359     28.453329     28.453329     56.906658
     -4.349349     28.663605     28.663605     57.327209
     -4.339339     29.600053     29.600053     59.200107
     -4.329329     30.906140     30.906140     61.812280
     -4.319319     32.247579     32.247579     64.495158
     -4.309309     33.439272     33.439272     66.878544
     -4.299299     34.500211     34.500211     69.000422
     -4.289289     35.615567     35.615567     71.231133
     -4.279279     37.027069     37.027069     74.054138
     -4.269269     38.894805     38.894805     77.789609
     -4.259259     41.176590     41.176590     82.353181
     -4.249249     43.567833     43.567833     87.135666
     -4.239239     45.538128     45.538128     91.076255
     -4.229229     46.477870     46.477870     92.955741
     -4.219219     45.920018     45.920018     91.840036
     -4.209209     43.747745     43.747745     87.495491
     -4.199199     40.280537     40.280537     80.561075
     -4.189189     36.178999     36.178999     72.357997
     -4.179179     32.204233     32.204233     64.408465
     -4.169169     28.950298     28.950298     57.900596
     -4.159159     26.681111     26.681111     53.362223
     -4.149149     25.339027     25.339027     50.678053
     -4.139139     24.696451     24.696451     49.392903
     -4.129129     24.552821     24.552821     49.105641
     -4.119119     24.868066     24.868066     49.736132
     -4.109109     25.764471     25.764471     51.528943
     -4.099099     27.396698     27.396698     54.793396
     -4.089089     29.758083     29.758083     59.516167
     -4.079079     32.533680     32.533680     65.067361
     -4.069069     35.101694     35.101694     70.203387
     -4.059059     36.715929     36.715929     73.431859
     -4.049049     36.799646     36.799646     73.599291
     -4.039039     35.205646     35.205646     70.411292
     -4.029029     32.303731     32.303731     64.607461
     -4.019019     28.849274     28.849274     57.698548
     -4.009009     25.708464     25.708464     51.416928
     -3.998999     23.586501     23.586501     47.173001
     -3.988989     22.881577     22.881577     45.763154
     -3.978979     23.694301     23.694301     47.388602
     -3.968969     25.929641     25.929641     51.859282
     -3.958959     29.397606     29.397606     58.795212
     -3.948949     33.858433     33.858433     67.716867
     -3.938939     39.024556     39.024556     78.049111
     -3.928929     44.568560     44.568560     89.137120
     -3.918919     50.168890     50.168890    100.337781
     -3.908909     55.575222     55.575222    111.150445
     -3.898899     60.639583     60.639583    121.279165
     -3.888889     65.269718     65.269718    130.539436
     -3.878879     69.313067     69.313067    138.626133
     -3.868869     72.437504     72.437504    144.875009
     -3.858859     74.098111     74.098111    148.196223
     -3.848849     73.647163     73.647163    147.294325
     -3.838839     70.569535     70.569535    141.139069
     -3.828829     64.747861     64.747861    129.495722
     -3.818819     56.628099     56.628099    113.256198
     -3.808809     47.191763     47.191763     94.383526
     -3.798799     37.729564     37.729564     75.459128
     -3.788789     29.502575     29.502575     59.005150
     -3.778779     23.420880     23.420880     46.841761
     -3.768769     19.848640     19.848640     39.697280
     -3.758759     18.581261     18.581261     37.162521
     -3.748749     18.975263     18.975263     37.950526
     -3.738739     20.172534     20.172534     40.345068
     -3.728729     21.351435     21.351435     42.702870
     -3.718719     21.945352     21.945352     43.890704
     -3.708709     21.782435     21.782435     43.564870
     -3.698699     21.115033     21.115033     42.230066
     -3.688689     20.526863     20.526863     41.053727
     -3.678679     20.733758     20.733758     41.467516
     -3.668669     22.327495     22.327495     44.654989
     -3.658659     25.541244     25.541244     51.082487
     -3.648649     30.122619     30.122619     60.245239
     -3.638639     35.371987     35.371987     70.743974
     -3.628629     40.341302     40.341302     80.682603
     -3.618619     44.118102     44.118102     88.236205
     -3.608609     46.080283     46.080283     92.160565
     -3.598599     46.026704     46.026704     92.053407
     -3.588589     44.156058     44.156058     88.312115
     -3.578579     40.937355     40.937355     81.874709
     -3.568569     36.946343     36.946343     73.892687
     -3.558559     32.724857     32.724857     65.449714
     -3.548549     28.683816     28.683816     57.367633
     -3.538539     25.050035     25.050035     50.100071
     -3.528529     21.859271     21.859271     43.718541
     -3.518519     19.002424     19.002424     38.004848
     -3.508509     16.318490     16.318490     32.636980
     -3.498498     13.701763     13.701763     27.403526
     -3.488488     11.176259     11.176259     22.352518
     -3.478478      8.904149      8.904149     17.808299
     -3.468468      7.128844      7.128844     14.257689
     -3.458458      6.082765      6.082765     12.165530
     -3.448448      5.897863      5.897863     11.795726
     -3.438438      6.546905      6.546905     13.093809
     -3.428428      7.830256      7.830256     15.660513
     -3.418418      9.414617      9.414617     18.829234
     -3.408408     10.921822     10.921822     21.843644
     -3.398398     12.049519     12.049519     24.099038
     -3.388388     12.684561     12.684561     25.369121
     -3.378378     12.960608     12.960608     25.921216
     -3.368368     13.228031     13.228031     26.456063
     -3.358358     13.942704     13.942704     27.885409
     -3.348348     15.517428     15.517428     31.034855
     -3.338338     18.190655     18.190655     36.381310
     -3.328328     21.947124     21.947124     43.894248
     -3.318318     26.494042     26.494042     52.988084
     -3.308308     31.282021     31.282021     62.564042
     -3.298298     35.570215     35.570215     71.140430
     -3.288288     38.549643     38.549643     77.099286
     -3.278278     39.527476     39.527476     79.054951
     -3.268268     38.132349     38.132349     76.264698
     -3.258258     34.458206     34.458206     68.916412
     -3.248248     29.066242     29.066242     58.132483
     -3.238238     22.825048     22.825048     45.650095
     -3.228228     16.652472     16.652472     33.304944
     -3.218218     11.271508     11.271508     22.543015
     -3.208208      7.075147      7.075147     14.150295
     -3.198198      4.129511      4.129511      8.259022
     -3.188188      2.278143      2.278143      4.556285
     -3.178178      1.280687      1.280687      2.561374
     -3.168168      0.930252      0.930252      1.860503
     -3.158158      1.123960      1.123960      2.247919
     -3.148148      1.885762      1.885762      3.771524
     -3.138138      3.349192      3.349192      6.698383
     -3.128128      5.705714      5.705714     11.411429
     -3.118118      9.123650      9.123650     18.247299
     -3.108108     13.651053     13.651053     27.302107
     -3.098098     19.130774     19.130774     38.261548
     -3.088088     25.165250     25.165250     50.330500
     -3.078078     31.159484     31.159484     62.318968
     -3.068068     36.440266     36.440266     72.880532
     -3.058058     40.411811     40.411811     80.823622
     -3.048048     42.686762     42.686762     85.373524
     -3.038038     43.144413     43.144413     86.288825
     -3.028028     41.909492     41.909492     83.818985
     -3.018018     39.286807     39.286807     78.573614
     -3.008008     35.699250     35.699250     71.398500
     -2.997998     31.652268     31.652268     63.304536
     -2.987988     27.710001     27.710001     55.420002
     -2.977978     24.450719     24.450719     48.901439
     -2.967968     22.386355     22.386355     44.772711
     -2.957958     21.865918     21.865918     43.731835
     -2.947948     23.003322     23.003322     46.006644
     -2.937938     25.658971     25.658971     51.317943
     -2.927928     29.473102     29.473102     58.946203
     -2.917918     33.926261     33.926261     67.852521
     -2.907908     38.406418     38.406418     76.812836
     -2.897898     42.283651     42.283651     84.567303
     -2.887888     45.005214     45.005214     90.010428
     -2.877878     46.208515     46.208515     92.417029
     -2.867868     45.817492     45.817492     91.634984
     -2.857858     44.069370     44.069370     88.138739
     -2.847848     41.437292     41.437292     82.874584
     -2.837838     38.464903     38.464903     76.929807
     -2.827828     35.580321     35.580321     71.160642
     -2.817818     32.974577     32.974577     65.949154
     -2.807808     30.599631     30.599631     61.199261
     -2.797798     28.279270     28.279270     56.558540
     -2.787788     25.867560     25.867560     51.735120
     -2.777778     23.366972     23.366972     46.733943
     -2.767768     20.944627     20.944627     41.889253
     -2.757758     18.845435     18.845435     37.690869
     -2.747748     17.260988     17.260988     34.521976
     -2.737738     16.237783     16.237783     32.475566
     -2.727728     15.682056     15.682056     31.364111
     -2.717718     15.455987     15.455987     30.911974
     -2.707708     15.499506     15.499506     30.999012
     -2.697698     15.892648     15.892648     31.785295
     -2.687688     16.809967     16.809967     33.619935
     -2.677678     18.389472     18.389472     36.778943
     -2.667668     20.598506     20.598506     41.197013
     -2.657658     23.187305     23.187305     46.374610
     -2.647648     25.768946     25.768946     51.537892
     -2.637638     27.983904     27.983904     55.967809
     -2.627628     29.651460     29.651460     59.302920
     -2.617618     30.818401     30.818401     61.636802
     -2.607608     31.683420     31.683420     63.366839
     -2.597598     32.455311     32.455311     64.910622
     -2.587588     33.236847     33.236847     66.473694
     -2.577578     33.992461     33.992461     67.984922
     -2.567568     34.589238     34.589238     69.178477
     -2.557558     34.856027     34.856027     69.712055
     -2.547548     34.617959     34.617959     69.235918
     -2.537538     33.712495     33.712495     67.424990
     -2.527528     32.025149     32.025149     64.050299
     -2.517518     29.564673     29.564673     59.129347
     -2.507508     26.545904     26.545904     53.091809
     -2.497497     23.413950     23.413950     46.827900
     -2.487487     20.761671     20.761671     41.523342
     -2.477477     19.153952     19.153952     38.307903
     -2.467467     18.933112     18.933112     37.866224
     -2.457457     20.098977     20.098977     40.197955
     -2.447447     22.324006     22.324006     44.648012
     -2.437437     25.099036     25.099036     50.198072
     -2.427427     27.942656     27.942656     55.885312
     -2.417417     30.576488     30.576488     61.152976
     -2.407407     32.983842     32.983842     65.967685
     -2.397397     35.324286     35.324286     70.648572
     -2.387387     37.746960     37.746960     75.493919
     -2.377377     40.197816     40.197816     80.395631
     -2.367367     42.324073     42.324073     84.648147
     -2.357357     43.537095     43.537095     87.074191
     -2.347347     43.220182     43.220182     86.440364
     -2.337337     40.995075     40.995075     81.990150
     -2.327327     36.927038     36.927038     73.854075
     -2.317317     31.573327     31.573327     63.146654
     -2.307307     25.852532     25.852532     51.705065
     -2.297297     20.793126     20.793126     41.586251
     -2.287287     17.264651     17.264651     34.529301
     -2.277277     15.785283     15.785283     31.570565
     -2.267267     16.451305     16.451305     32.902610
     -2.257257     18.981626     18.981626     37.963252
     -2.247247     22.838317     22.838317     45.676634
     -2.237237     27.374908     27.374908     54.749817
     -2.227227     31.968212     31.968212     63.936424
     -2.217217     36.101029     36.101029     72.202059
     -2.207207     39.383834     39.383834     78.767667
     -2.197197     41.532209     41.532209     83.064417
     -2.187187     42.340491     42.340491     84.680981
     -2.177177     41.691601     41.691601     83.383203
     -2.167167     39.611249     39.611249     79.222499
     -2.157157     36.329090     36.329090     72.658180
     -2.147147     32.284786     32.284786     64.569573
     -2.137137     28.038698     28.038698     56.077395
     -2.127127     24.106818     24.106818     48.213636
     -2.117117     20.796801     20.796801     41.593602
     -2.107107     18.132559     18.132559     36.265118
     -2.097097     15.907584     15.907584     31.815168
     -2.087087     13.833052     13.833052     27.666103
     -2.077077     11.696318     11.696318     23.392635
     -2.067067      9.449872      9.449872     18.899744
     -2.057057      7.201092      7.201092     14.402184
     -2.047047      5.131128      5.131128     10.262256
     -2.037037      3.400553      3.400553      6.801107
     -2.027027      2.089739      2.089739      4.179478
     -2.017017      1.189829      1.189829      2.379658
     -2.007007      0.630889      0.630889      1.261779
     -1.996997      0.322486      0.322486      0.644973
     -1.986987      0.187604      0.187604      0.375209
     -1.976977      0.183084      0.183084      0.366167
     -1.966967      0.308779      0.308779      0.617557
     -1.956957      0.609516      0.609516      1.219031
     -1.946947      1.170415      1.170415      2.340830
     -1.936937      2.101844      2.101844      4.203689
     -1.926927      3.509809      3.509809      7.019617
     -1.916917      5.453289      5.453289     10.906578
     -1.906907      7.899951      7.899951     15.799902
     -1.896897     10.699307     10.699307     21.398614
     -1.886887     13.590758     13.590758     27.181516
     -1.876877     16.251122     16.251122     32.502245
     -1.866867     18.368966     18.368966     36.737932
     -1.856857     19.721691     19.721691     39.443383
     -1.846847     20.231360     20.231360     40.462720
     -1.836837     19.982952     19.982952     39.965904
     -1.826827     19.197638     19.197638     38.395277
     -1.816817     18.162820     18.162820     36.325641
     -1.806807     17.134561     17.134561     34.269122
     -1.796797     16.245803     16.245803     32.491605
     -1.786787     15.462914     15.462914     30.925828
     -1.776777     14.618674     14.618674     29.237349
     -1.766767     13.512255     13.512255     27.024510
     -1.756757     12.028211     12.028211     24.056421
     -1.746747     10.214954     10.214954     20.429908
     -1.736737      8.288080      8.288080     16.576161
     -1.726727      6.566906      6.566906     13.133811
     -1.716717      5.383155      5.383155     10.766311
     -1.706707      5.001368      5.001368     10.002736
     -1.696697      5.568768      5.568768     11.137536
     -1.686687      7.090374      7.090374     14.180748
     -1.676677      9.419444      9.419444     18.838887
     -1.666667     12.262588     12.262588     24.525177
     -1.656657     15.208962     15.208962     30.417925
     -1.646647     17.791541     17.791541     35.583082
     -1.636637     19.575478     19.575478     39.150956
     -1.626627     20.253703     20.253703     40.507407
