# EIG2DOS: Utility for SIESTA to obtain the electronic density of states
#  E. Artacho, Apr 1999, A. Garcia, Apr 2012
#  Nick R. Papior, Feb 2017
# ------------------------------------------
# Eigenvalues calculated from a non-polarized calculation
# Eigenvalues read from siesta.EIG
# Kpoint weights read from siesta.KP
# Using smearing parameter:   0.0500
# Using 1000 points in the energy range
# Selected bands: 1 to: 2981
# Emin, Emax in file for selected band(s):    -27.2487678    218.3645580
# Nbands, Nspin, Nk   =   2981     1     1
# E_F                 =    -4.2475 eV --> (shifted to ZERO)
# Broadening          =     0.0500 eV
#
#        E            N(up)  (=)   N(down)         Ntot
     -5.000000     35.761254     35.761254     71.522509
     -4.989990     39.329416     39.329416     78.658833
     -4.979980     42.040512     42.040512     84.081023
     -4.969970     43.508777     43.508777     87.017553
     -4.959960     43.526672     43.526672     87.053344
     -4.949950     42.130598     42.130598     84.261197
     -4.939940     39.605594     39.605594     79.211188
     -4.929930     36.442263     36.442263     72.884525
     -4.919920     33.272603     33.272603     66.545206
     -4.909910     30.800285     30.800285     61.600569
     -4.899900     29.715934     29.715934     59.431868
     -4.889890     30.573490     30.573490     61.146979
     -4.879880     33.621810     33.621810     67.243619
     -4.869870     38.635203     38.635203     77.270406
     -4.859860     44.834276     44.834276     89.668552
     -4.849850     50.987916     50.987916    101.975833
     -4.839840     55.716725     55.716725    111.433449
     -4.829830     57.907683     57.907683    115.815366
     -4.819820     57.069014     57.069014    114.138028
     -4.809810     53.464124     53.464124    106.928247
     -4.799800     47.967973     47.967973     95.935946
     -4.789790     41.726266     41.726266     83.452532
     -4.779780     35.782824     35.782824     71.565648
     -4.769770     30.827496     30.827496     61.654991
     -4.759760     27.128390     27.128390     54.256781
     -4.749750     24.614502     24.614502     49.229005
     -4.739740     23.024103     23.024103     46.048205
     -4.729730     22.041624     22.041624     44.083248
     -4.719720     21.384577     21.384577     42.769155
     -4.709710     20.840343     20.840343     41.680686
     -4.699700     20.274600     20.274600     40.549199
     -4.689690     19.636924     19.636924     39.273848
     -4.679680     18.977514     18.977514     37.955029
     -4.669670     18.468224     18.468224     36.936448
     -4.659660     18.404023     18.404023     36.808045
     -4.649650     19.161515     19.161515     38.323029
     -4.639640     21.110857     21.110857     42.221714
     -4.629630     24.501747     24.501747     49.003494
     -4.619620     29.355892     29.355892     58.711784
     -4.609610     35.395017     35.395017     70.790033
     -4.599600     42.026716     42.026716     84.053432
     -4.589590     48.408224     48.408224     96.816448
     -4.579580     53.601214     53.601214    107.202428
     -4.569570     56.803276     56.803276    113.606552
     -4.559560     57.595606     57.595606    115.191211
     -4.549550     56.110267     56.110267    112.220533
     -4.539540     53.029001     53.029001    106.058002
     -4.529530     49.387922     49.387922     98.775843
     -4.519520     46.249291     46.249291     92.498581
     -4.509510     44.364671     44.364671     88.729343
     -4.499499     43.958418     43.958418     87.916836
     -4.489489     44.706000     44.706000     89.412000
     -4.479479     45.898092     45.898092     91.796183
     -4.469469     46.709867     46.709867     93.419734
     -4.459459     46.466141     46.466141     92.932281
     -4.449449     44.813824     44.813824     89.627647
     -4.439439     41.766710     41.766710     83.533420
     -4.429429     37.644234     37.644234     75.288467
     -4.419419     32.958446     32.958446     65.916892
     -4.409409     28.300800     28.300800     56.601601
     -4.399399     24.251866     24.251866     48.503731
     -4.389389     21.307111     21.307111     42.614222
     -4.379379     19.803370     19.803370     39.606739
     -4.369369     19.848354     19.848354     39.696709
     -4.359359     21.281750     21.281750     42.563501
     -4.349349     23.704224     23.704224     47.408448
     -4.339339     26.586941     26.586941     53.173882
     -4.329329     29.431371     29.431371     58.862742
     -4.319319     31.916722     31.916722     63.833443
     -4.309309     33.973567     33.973567     67.947134
     -4.299299     35.756215     35.756215     71.512429
     -4.289289     37.530300     37.530300     75.060600
     -4.279279     39.521196     39.521196     79.042392
     -4.269269     41.775396     41.775396     83.550792
     -4.259259     44.080449     44.080449     88.160898
     -4.249249     45.978400     45.978400     91.956800
     -4.239239     46.888356     46.888356     93.776713
     -4.229229     46.315374     46.315374     92.630747
     -4.219219     44.072140     44.072140     88.144280
     -4.209209     40.409193     40.409193     80.818386
     -4.199199     35.973873     35.973873     71.947746
     -4.189189     31.599114     31.599114     63.198229
     -4.179179     28.015715     28.015715     56.031431
     -4.169169     25.625145     25.625145     51.250290
     -4.159159     24.434999     24.434999     48.869999
     -4.149149     24.170064     24.170064     48.340129
     -4.139139     24.484191     24.484191     48.968381
     -4.129129     25.157498     25.157498     50.314997
     -4.119119     26.181215     26.181215     52.362429
     -4.109109     27.691929     27.691929     55.383859
     -4.099099     29.791483     29.791483     59.582966
     -4.089089     32.350485     32.350485     64.700969
     -4.079079     34.914442     34.914442     69.828884
     -4.069069     36.791177     36.791177     73.582354
     -4.059059     37.304205     37.304205     74.608410
     -4.049049     36.095991     36.095991     72.191981
     -4.039039     33.322553     33.322553     66.645106
     -4.029029     29.632338     29.632338     59.264676
     -4.019019     25.940490     25.940490     51.880980
     -4.009009     23.119004     23.119004     46.238009
     -3.998999     21.754624     21.754624     43.509248
     -3.988989     22.066747     22.066747     44.133493
     -3.978979     23.975592     23.975592     47.951183
     -3.968969     27.236577     27.236577     54.473155
     -3.958959     31.551355     31.551355     63.102711
     -3.948949     36.617290     36.617290     73.234580
     -3.938939     42.136192     42.136192     84.272384
     -3.928929     47.824289     47.824289     95.648578
     -3.918919     53.440381     53.440381    106.880763
     -3.908909     58.808720     58.808720    117.617441
     -3.898899     63.798110     63.798110    127.596220
     -3.888889     68.245251     68.245251    136.490502
     -3.878879     71.858477     71.858477    143.716954
     -3.868869     74.170010     74.170010    148.340020
     -3.858859     74.594359     74.594359    149.188718
     -3.848849     72.599595     72.599595    145.199189
     -3.838839     67.934362     67.934362    135.868725
     -3.828829     60.812231     60.812231    121.624463
     -3.818819     51.960971     51.960971    103.921942
     -3.808809     42.497620     42.497620     84.995240
     -3.798799     33.664835     33.664835     67.329670
     -3.788789     26.521832     26.521832     53.043664
     -3.778779     21.696631     21.696631     43.393263
     -3.768769     19.274073     19.274073     38.548146
     -3.758759     18.838844     18.838844     37.677688
     -3.748749     19.643065     19.643065     39.286131
     -3.738739     20.840399     20.840399     41.680798
     -3.728729     21.723213     21.723213     43.446427
     -3.718719     21.907367     21.907367     43.814734
     -3.708709     21.423217     21.423217     42.846435
     -3.698699     20.689537     20.689537     41.379074
     -3.688689     20.370980     20.370980     40.741960
     -3.678679     21.150025     21.150025     42.300051
     -3.668669     23.475757     23.475757     46.951513
     -3.658659     27.371748     27.371748     54.743496
     -3.648649     32.378009     32.378009     64.756017
     -3.638639     37.659347     37.659347     75.318694
     -3.628629     42.246022     42.246022     84.492044
     -3.618619     45.313919     45.313919     90.627838
     -3.608609     46.395861     46.395861     92.791722
     -3.598599     45.454980     45.454980     90.909960
     -3.588589     42.820680     42.820680     85.641361
     -3.578579     39.042924     39.042924     78.085847
     -3.568569     34.731830     34.731830     69.463660
     -3.558559     30.424692     30.424692     60.849384
     -3.548549     26.493909     26.493909     52.987817
     -3.538539     23.100516     23.100516     46.201033
     -3.528529     20.202940     20.202940     40.405881
     -3.518519     17.626632     17.626632     35.253265
     -3.508509     15.177184     15.177184     30.354369
     -3.498498     12.752727     12.752727     25.505454
     -3.488488     10.406076     10.406076     20.812152
     -3.478478      8.331590      8.331590     16.663180
     -3.468468      6.789236      6.789236     13.578472
     -3.458458      6.003340      6.003340     12.006681
     -3.448448      6.074830      6.074830     12.149660
     -3.438438      6.932213      6.932213     13.864425
     -3.428428      8.333338      8.333338     16.666676
     -3.418418      9.921692      9.921692     19.843384
     -3.408408     11.330443     11.330443     22.660886
     -3.398398     12.308839     12.308839     24.617678
     -3.388388     12.826494     12.826494     25.652988
     -3.378378     13.108802     13.108802     26.217604
     -3.368368     13.580953     13.580953     27.161905
     -3.358358     14.738500     14.738500     29.477000
     -3.348348     16.993689     16.993689     33.987377
     -3.338338     20.549083     20.549083     41.098166
     -3.328328     25.326208     25.326208     50.652415
     -3.318318     30.949849     30.949849     61.899698
     -3.308308     36.780113     36.780113     73.560226
     -3.298298     41.994228     41.994228     83.988455
     -3.288288     45.726607     45.726607     91.453213
     -3.278278     47.258149     47.258149     94.516297
     -3.268268     46.208957     46.208957     92.417915
     -3.258258     42.662762     42.662762     85.325524
     -3.248248     37.164913     37.164913     74.329827
     -3.238238     30.587659     30.587659     61.175318
     -3.228228     23.914233     23.914233     47.828466
     -3.218218     18.020744     18.020744     36.041487
     -3.208208     13.520143     13.520143     27.040285
     -3.198198     10.693653     10.693653     21.387305
     -3.188188      9.500979      9.500979     19.001957
     -3.178178      9.648181      9.648181     19.296362
     -3.168168     10.696238     10.696238     21.392477
     -3.158158     12.196247     12.196247     24.392494
     -3.148148     13.826543     13.826543     27.653085
     -3.138138     15.488636     15.488636     30.977272
     -3.128128     17.313856     17.313856     34.627711
     -3.118118     19.558880     19.558880     39.117760
     -3.108108     22.421765     22.421765     44.843530
     -3.098098     25.861462     25.861462     51.722924
     -3.088088     29.517011     29.517011     59.034022
     -3.078078     32.780890     32.780890     65.561779
     -3.068068     35.002084     35.002084     70.004169
     -3.058058     35.722744     35.722744     71.445489
     -3.048048     34.832003     34.832003     69.664005
     -3.038038     32.566867     32.566867     65.133735
     -3.028028     29.376270     29.376270     58.752539
     -3.018018     25.736955     25.736955     51.473911
     -3.008008     22.024158     22.024158     44.048316
     -2.997998     18.491272     18.491272     36.982543
     -2.987988     15.338765     15.338765     30.677529
     -2.977978     12.803435     12.803435     25.606870
     -2.967968     11.200097     11.200097     22.400194
     -2.957958     10.886178     10.886178     21.772356
     -2.947948     12.163147     12.163147     24.326294
     -2.937938     15.154164     15.154164     30.308328
     -2.927928     19.702916     19.702916     39.405832
     -2.917918     25.333476     25.333476     50.666953
     -2.907908     31.299112     31.299112     62.598223
     -2.897898     36.725360     36.725360     73.450720
     -2.887888     40.818016     40.818016     81.636032
     -2.877878     43.071351     43.071351     86.142702
     -2.867868     43.397092     43.397092     86.794184
     -2.857858     42.116395     42.116395     84.232789
     -2.847848     39.811862     39.811862     79.623723
     -2.837838     37.099910     37.099910     74.199820
     -2.827828     34.422023     34.422023     68.844046
     -2.817818     31.943957     31.943957     63.887914
     -2.807808     29.597256     29.597256     59.194512
     -2.797798     27.225468     27.225468     54.450936
     -2.787788     24.746978     24.746978     49.493955
     -2.777778     22.244832     22.244832     44.489664
     -2.767768     19.941606     19.941606     39.883212
     -2.757758     18.086444     18.086444     36.172888
     -2.747748     16.831680     16.831680     33.663360
     -2.737738     16.178028     16.178028     32.356057
     -2.727728     16.019178     16.019178     32.038356
     -2.717718     16.248719     16.248719     32.497438
     -2.707708     16.848964     16.848964     33.697929
     -2.697698     17.893021     17.893021     35.786042
     -2.687688     19.453107     19.453107     38.906214
     -2.677678     21.478904     21.478904     42.957809
     -2.667668     23.739028     23.739028     47.478057
     -2.657658     25.881923     25.881923     51.763847
     -2.647648     27.591298     27.591298     55.182596
     -2.637638     28.741797     28.741797     57.483594
     -2.627628     29.454300     29.454300     58.908599
     -2.617618     30.014212     30.014212     60.028424
     -2.607608     30.705299     30.705299     61.410599
     -2.597598     31.661238     31.661238     63.322476
     -2.587588     32.813371     32.813371     65.626742
     -2.577578     33.939842     33.939842     67.879684
     -2.567568     34.758981     34.758981     69.517961
     -2.557558     35.004184     35.004184     70.008367
     -2.547548     34.462203     34.462203     68.924406
     -2.537538     33.002726     33.002726     66.005452
     -2.527528     30.630235     30.630235     61.260469
     -2.517518     27.549392     27.549392     55.098784
     -2.507508     24.193825     24.193825     48.387650
     -2.497497     21.167167     21.167167     42.334334
     -2.487487     19.090312     19.090312     38.180624
     -2.477477     18.407751     18.407751     36.815502
     -2.467467     19.237959     19.237959     38.475919
     -2.457457     21.338681     21.338681     42.677362
     -2.447447     24.207233     24.207233     48.414465
     -2.437437     27.275232     27.275232     54.550465
     -2.427427     30.114235     30.114235     60.228471
     -2.417417     32.562279     32.562279     65.124559
     -2.407407     34.715036     34.715036     69.430072
     -2.397397     36.785833     36.785833     73.571667
     -2.387387     38.900476     38.900476     77.800952
     -2.377377     40.927754     40.927754     81.855508
     -2.367367     42.437054     42.437054     84.874109
     -2.357357     42.820337     42.820337     85.640673
     -2.347347     41.537307     41.537307     83.074613
     -2.337337     38.376632     38.376632     76.753264
     -2.327327     33.610176     33.610176     67.220353
     -2.317317     27.965792     27.965792     55.931584
     -2.307307     22.432354     22.432354     44.864708
     -2.297297     17.986761     17.986761     35.973523
     -2.287287     15.353964     15.353964     30.707929
     -2.277277     14.874561     14.874561     29.749123
     -2.267267     16.493475     16.493475     32.986950
     -2.257257     19.837119     19.837119     39.674238
     -2.247247     24.331945     24.331945     48.663890
     -2.237237     29.325446     29.325446     58.650892
     -2.227227     34.184976     34.184976     68.369952
     -2.217217     38.362243     38.362243     76.724487
     -2.207207     41.423874     41.423874     82.847747
     -2.197197     43.062145     43.062145     86.124290
     -2.187187     43.107976     43.107976     86.215953
     -2.177177     41.560282     41.560282     83.120565
     -2.167167     38.621062     38.621062     77.242124
     -2.157157     34.700074     34.700074     69.400147
     -2.147147     30.351205     30.351205     60.702410
     -2.137137     26.136094     26.136094     52.272189
     -2.127127     22.461787     22.461787     44.923574
     -2.117117     19.470225     19.470225     38.940450
     -2.107107     17.039440     17.039440     34.078881
     -2.097097     14.896177     14.896177     29.792353
     -2.087087     12.777297     12.777297     25.554594
     -2.077077     10.555069     10.555069     21.110139
     -2.067067      8.271498      8.271498     16.542996
     -2.057057      6.084356      6.084356     12.168712
     -2.047047      4.172585      4.172585      8.345171
     -2.037037      2.656934      2.656934      5.313868
     -2.027027      1.567626      1.567626      3.135252
     -2.017017      0.857822      0.857822      1.715645
     -2.007007      0.441147      0.441147      0.882293
     -1.996997      0.230128      0.230128      0.460256
     -1.986987      0.163054      0.163054      0.326109
     -1.976977      0.218352      0.218352      0.436704
     -1.966967      0.421220      0.421220      0.842440
     -1.956957      0.846066      0.846066      1.692132
     -1.946947      1.613439      1.613439      3.226879
     -1.936937      2.876022      2.876022      5.752045
     -1.926927      4.788337      4.788337      9.576674
     -1.916917      7.460227      7.460227     14.920454
     -1.906907     10.902776     10.902776     21.805551
     -1.896897     14.982523     14.982523     29.965047
     -1.886887     19.401830     19.401830     38.803661
     -1.876877     23.719398     23.719398     47.438797
     -1.866867     27.417096     27.417096     54.834192
     -1.856857     30.007637     30.007637     60.015273
     -1.846847     31.160975     31.160975     62.321950
     -1.836837     30.808373     30.808373     61.616746
     -1.826827     29.174702     29.174702     58.349403
     -1.816817     26.707800     26.707800     53.415599
     -1.806807     23.920538     23.920538     47.841076
     -1.796797     21.212675     21.212675     42.425351
     -1.786787     18.758467     18.758467     37.516933
     -1.776777     16.512417     16.512417     33.024834
     -1.766767     14.317959     14.317959     28.635918
     -1.756757     12.047663     12.047663     24.095327
     -1.746747      9.695856      9.695856     19.391711
     -1.736737      7.385515      7.385515     14.771031
     -1.726727      5.307526      5.307526     10.615052
     -1.716717      3.643354      3.643354      7.286709
     -1.706707      2.516572      2.516572      5.033145
     -1.696697      1.987264      1.987264      3.974528
     -1.686687      2.071918      2.071918      4.143837
     -1.676677      2.758795      2.758795      5.517589
     -1.666667      3.998448      3.998448      7.996896
     -1.656657      5.672158      5.672158     11.344317
     -1.646647      7.563110      7.563110     15.126220
     -1.636637      9.362922      9.362922     18.725843
     -1.626627     10.732633     10.732633     21.465266
