# EIG2DOS: Utility for SIESTA to obtain the electronic density of states
#  E. Artacho, Apr 1999, A. Garcia, Apr 2012
#  Nick R. Papior, Feb 2017
# ------------------------------------------
# Eigenvalues calculated from a non-polarized calculation
# Eigenvalues read from siesta.EIG
# Kpoint weights read from siesta.KP
# Using smearing parameter:   0.0500
# Using 1000 points in the energy range
# Selected bands: 1 to: 2981
# Emin, Emax in file for selected band(s):    -27.0376543    218.3081760
# Nbands, Nspin, Nk   =   2981     1     1
# E_F                 =    -4.3025 eV --> (shifted to ZERO)
# Broadening          =     0.0500 eV
#
#        E            N(up)  (=)   N(down)         Ntot
     -5.000000     44.266195     44.266195     88.532390
     -4.989990     48.636661     48.636661     97.273321
     -4.979980     51.519901     51.519901    103.039802
     -4.969970     52.547122     52.547122    105.094245
     -4.959960     51.649865     51.649865    103.299731
     -4.949950     49.070058     49.070058     98.140116
     -4.939940     45.291469     45.291469     90.582938
     -4.929930     40.937473     40.937473     81.874947
     -4.919920     36.685038     36.685038     73.370076
     -4.909910     33.215744     33.215744     66.431489
     -4.899900     31.181918     31.181918     62.363837
     -4.889890     31.139246     31.139246     62.278491
     -4.879880     33.410847     33.410847     66.821694
     -4.869870     37.904137     37.904137     75.808275
     -4.859860     43.970728     43.970728     87.941457
     -4.849850     50.428212     50.428212    100.856425
     -4.839840     55.810804     55.810804    111.621608
     -4.829830     58.795713     58.795713    117.591425
     -4.819820     58.634459     58.634459    117.268917
     -4.809810     55.388079     55.388079    110.776157
     -4.799800     49.855227     49.855227     99.710453
     -4.789790     43.240639     43.240639     86.481279
     -4.779780     36.736005     36.736005     73.472009
     -4.769770     31.200347     31.200347     62.400694
     -4.759760     27.038519     27.038519     54.077038
     -4.749750     24.258143     24.258143     48.516285
     -4.739740     22.614431     22.614431     45.228862
     -4.729730     21.753636     21.753636     43.507273
     -4.719720     21.310137     21.310137     42.620274
     -4.709710     20.955975     20.955975     41.911950
     -4.699700     20.423221     20.423221     40.846443
     -4.689690     19.521667     19.521667     39.043334
     -4.679680     18.166455     18.166455     36.332910
     -4.669670     16.416932     16.416932     32.833865
     -4.659660     14.512527     14.512527     29.025053
     -4.649650     12.881144     12.881144     25.762289
     -4.639640     12.097158     12.097158     24.194317
     -4.629630     12.778829     12.778829     25.557657
     -4.619620     15.432883     15.432883     30.865766
     -4.609610     20.273577     20.273577     40.547154
     -4.599600     27.065391     27.065391     54.130782
     -4.589590     35.056957     35.056957     70.113914
     -4.579580     43.070694     43.070694     86.141387
     -4.569570     49.768986     49.768986     99.537972
     -4.559560     54.037984     54.037984    108.075969
     -4.549550     55.352929     55.352929    110.705859
     -4.539540     53.967188     53.967188    107.934375
     -4.529530     50.827963     50.827963    101.655925
     -4.519520     47.240628     47.240628     94.481257
     -4.509510     44.417229     44.417229     88.834458
     -4.499499     43.091459     43.091459     86.182919
     -4.489489     43.341544     43.341544     86.683088
     -4.479479     44.662363     44.662363     89.324727
     -4.469469     46.224289     46.224289     92.448579
     -4.459459     47.196255     47.196255     94.392510
     -4.449449     47.011524     47.011524     94.023048
     -4.439439     45.501464     45.501464     91.002928
     -4.429429     42.884518     42.884518     85.769036
     -4.419419     39.646909     39.646909     79.293819
     -4.409409     36.374938     36.374938     72.749876
     -4.399399     33.596388     33.596388     67.192775
     -4.389389     31.669583     31.669583     63.339166
     -4.379379     30.734503     30.734503     61.469005
     -4.369369     30.720655     30.720655     61.441310
     -4.359359     31.396253     31.396253     62.792506
     -4.349349     32.441880     32.441880     64.883759
     -4.339339     33.534370     33.534370     67.068739
     -4.329329     34.427460     34.427460     68.854920
     -4.319319     35.013636     35.013636     70.027271
     -4.309309     35.350661     35.350661     70.701323
     -4.299299     35.641787     35.641787     71.283574
     -4.289289     36.170325     36.170325     72.340650
     -4.279279     37.201402     37.201402     74.402803
     -4.269269     38.871823     38.871823     77.743646
     -4.259259     41.095492     41.095492     82.190985
     -4.249249     43.519656     43.519656     87.039312
     -4.239239     45.569397     45.569397     91.138794
     -4.229229     46.597692     46.597692     93.195384
     -4.219219     46.109153     46.109153     92.218306
     -4.209209     43.969252     43.969252     87.938504
     -4.199199     40.491401     40.491401     80.982802
     -4.189189     36.341523     36.341523     72.683046
     -4.179179     32.295299     32.295299     64.590597
     -4.169169     28.966432     28.966432     57.932863
     -4.159159     26.637946     26.637946     53.275892
     -4.149149     25.265149     25.265149     50.530297
     -4.139139     24.623287     24.623287     49.246575
     -4.129129     24.503701     24.503701     49.007402
     -4.119119     24.850412     24.850412     49.700825
     -4.109109     25.768605     25.768605     51.537210
     -4.099099     27.402476     27.402476     54.804951
     -4.089089     29.746772     29.746772     59.493543
     -4.079079     32.499052     32.499052     64.998105
     -4.069069     35.053878     35.053878     70.107757
     -4.059059     36.675277     36.675277     73.350553
     -4.049049     36.784036     36.784036     73.568072
     -4.039039     35.219183     35.219183     70.438366
     -4.029029     32.334144     32.334144     64.668289
     -4.019019     28.875675     28.875675     57.751350
     -4.009009     25.714165     25.714165     51.428330
     -3.998999     23.568404     23.568404     47.136808
     -3.988989     22.850310     22.850310     45.700620
     -3.978979     23.665751     23.665751     47.331502
     -3.968969     25.913993     25.913993     51.827986
     -3.958959     29.392719     29.392719     58.785439
     -3.948949     33.850532     33.850532     67.701064
     -3.938939     38.994208     38.994208     77.988417
     -3.928929     44.497581     44.497581     88.995162
     -3.918919     50.045182     50.045182    100.090363
     -3.908909     55.395576     55.395576    110.791153
     -3.898899     60.412070     60.412070    120.824140
     -3.888889     65.016189     65.016189    130.032378
     -3.878879     69.069905     69.069905    138.139810
     -3.868869     72.251661     72.251661    144.503323
     -3.858859     74.017095     74.017095    148.034190
     -3.848849     73.705226     73.705226    147.410453
     -3.838839     70.775360     70.775360    141.550719
     -3.828829     65.079280     65.079280    130.158560
     -3.818819     57.036546     57.036546    114.073091
     -3.808809     47.614849     47.614849     95.229699
     -3.798799     38.106951     38.106951     76.213901
     -3.788789     29.789690     29.789690     59.579380
     -3.778779     23.596821     23.596821     47.193643
     -3.768769     19.917263     19.917263     39.834527
     -3.758759     18.566566     18.566566     37.133132
     -3.748749     18.913092     18.913092     37.826184
     -3.738739     20.100658     20.100658     40.201317
     -3.728729     21.299979     21.299979     42.599958
     -3.718719     21.929414     21.929414     43.858827
     -3.708709     21.798667     21.798667     43.597335
     -3.698699     21.143413     21.143413     42.286825
     -3.688689     20.537712     20.537712     41.075425
     -3.678679     20.698369     20.698369     41.396739
     -3.668669     22.229045     22.229045     44.458090
     -3.658659     25.381915     25.381915     50.763831
     -3.648649     29.923836     29.923836     59.847673
     -3.638639     35.167450     35.167450     70.334900
     -3.628629     40.165919     40.165919     80.331837
     -3.618619     43.997927     43.997927     87.995854
     -3.608609     46.027714     46.027714     92.055429
     -3.598599     46.041853     46.041853     92.083707
     -3.588589     44.231610     44.231610     88.463219
     -3.578579     41.063001     41.063001     82.126002
     -3.568569     37.110555     37.110555     74.221110
     -3.558559     32.914653     32.914653     65.829306
     -3.548549     28.884774     28.884774     57.769548
     -3.538539     25.247966     25.247966     50.495932
     -3.528529     22.042885     22.042885     44.085770
     -3.518519     19.165059     19.165059     38.330117
     -3.508509     16.457534     16.457534     32.915068
     -3.498498     13.816146     13.816146     27.632292
     -3.488488     11.263677     11.263677     22.527354
     -3.478478      8.959735      8.959735     17.919470
     -3.468468      7.146055      7.146055     14.292111
     -3.458458      6.056213      6.056213     12.112425
     -3.448448      5.827106      5.827106     11.654213
     -3.438438      6.439833      6.439833     12.879665
     -3.428428      7.704416      7.704416     15.408833
     -3.418418      9.295044      9.295044     18.590088
     -3.408408     10.835006     10.835006     21.670011
     -3.398398     12.015006     12.015006     24.030011
     -3.388388     12.707287     12.707287     25.414574
     -3.378378     13.027201     13.027201     26.054403
     -3.368368     13.308680     13.308680     26.617360
     -3.358358     13.997886     13.997886     27.995771
     -3.348348     15.507355     15.507355     31.014711
     -3.338338     18.085370     18.085370     36.170741
     -3.328328     21.735802     21.735802     43.471604
     -3.318318     26.191961     26.191961     52.383922
     -3.308308     30.932543     30.932543     61.865086
     -3.298298     35.238662     35.238662     70.477324
     -3.288288     38.307994     38.307994     76.615987
     -3.278278     39.433414     39.433414     78.866828
     -3.268268     38.210600     38.210600     76.421199
     -3.258258     34.692656     34.692656     69.385313
     -3.248248     29.406780     29.406780     58.813560
     -3.238238     23.205760     23.205760     46.411520
     -3.228228     17.012572     17.012572     34.025144
     -3.218218     11.570223     11.570223     23.140447
     -3.208208      7.296247      7.296247     14.592493
     -3.198198      4.276744      4.276744      8.553488
     -3.188188      2.366281      2.366281      4.732562
     -3.178178      1.326909      1.326909      2.653818
     -3.168168      0.948568      0.948568      1.897136
     -3.158158      1.123131      1.123131      2.246262
     -3.148148      1.869963      1.869963      3.739925
     -3.138138      3.320578      3.320578      6.641156
     -3.128128      5.668376      5.668376     11.336752
     -3.118118      9.088386      9.088386     18.176772
     -3.108108     13.639617     13.639617     27.279234
     -3.098098     19.177006     19.177006     38.354012
     -3.088088     25.309904     25.309904     50.619807
     -3.078078     31.436926     31.436926     62.873853
     -3.068068     36.859208     36.859208     73.718416
     -3.058058     40.937381     40.937381     81.874762
     -3.048048     43.234053     43.234053     86.468106
     -3.038038     43.590587     43.590587     87.181174
     -3.028028     42.122577     42.122577     84.245154
     -3.018018     39.159606     39.159606     78.319212
     -3.008008     35.173757     35.173757     70.347513
     -2.997998     30.726961     30.726961     61.453923
     -2.987988     26.434523     26.434523     52.869047
     -2.977978     22.919398     22.919398     45.838796
     -2.967968     20.737193     20.737193     41.474385
     -2.957958     20.278924     20.278924     40.557848
     -2.947948     21.683750     21.683750     43.367501
     -2.937938     24.797011     24.797011     49.594021
     -2.927928     29.189582     29.189582     58.379163
     -2.917918     34.229839     34.229839     68.459678
     -2.907908     39.187348     39.187348     78.374695
     -2.897898     43.350828     43.350828     86.701656
     -2.887888     46.149377     46.149377     92.298754
     -2.877878     47.261833     47.261833     94.523665
     -2.867868     46.685624     46.685624     93.371249
     -2.857858     44.730051     44.730051     89.460101
     -2.847848     41.916315     41.916315     83.832629
     -2.837838     38.806760     38.806760     77.613520
     -2.827828     35.826484     35.826484     71.652969
     -2.817818     33.153639     33.153639     66.307278
     -2.807808     30.726706     30.726706     61.453412
     -2.797798     28.359879     28.359879     56.719759
     -2.787788     25.902441     25.902441     51.804883
     -2.777778     23.356390     23.356390     46.712779
     -2.767768     20.891883     20.891883     41.783766
     -2.757758     18.759134     18.759134     37.518269
     -2.747748     17.155043     17.155043     34.310086
     -2.737738     16.128271     16.128271     32.256542
     -2.727728     15.581389     15.581389     31.162778
     -2.717718     15.366834     15.366834     30.733668
     -2.707708     15.412147     15.412147     30.824293
     -2.697698     15.788559     15.788559     31.577119
     -2.687688     16.671317     16.671317     33.342633
     -2.677678     18.210389     18.210389     36.420779
     -2.667668     20.391992     20.391992     40.783985
     -2.657658     22.983135     22.983135     45.966270
     -2.647648     25.602669     25.602669     51.205338
     -2.637638     27.882239     27.882239     55.764478
     -2.627628     29.621722     29.621722     59.243445
     -2.617618     30.847253     30.847253     61.694506
     -2.607608     31.744697     31.744697     63.489393
     -2.597598     32.521721     32.521721     65.043442
     -2.587588     33.289276     33.289276     66.578552
     -2.577578     34.023644     34.023644     68.047289
     -2.567568     34.602715     34.602715     69.205430
     -2.557558     34.863186     34.863186     69.726371
     -2.547548     34.634786     34.634786     69.269572
     -2.537538     33.755431     33.755431     67.510863
     -2.527528     32.105092     32.105092     64.210183
     -2.517518     29.680195     29.680195     59.360390
     -2.507508     26.679206     26.679206     53.358411
     -2.497497     23.533206     23.533206     47.066413
     -2.487487     20.830633     20.830633     41.661266
     -2.477477     19.145550     19.145550     38.291101
     -2.467467     18.841171     18.841171     37.682342
     -2.457457     19.942519     19.942519     39.885039
     -2.447447     22.141869     22.141869     44.283739
     -2.437437     24.936869     24.936869     49.873737
     -2.427427     27.837738     27.837738     55.675476
     -2.417417     30.546649     30.546649     61.093298
     -2.407407     33.024640     33.024640     66.049280
     -2.397397     35.414723     35.414723     70.829445
     -2.387387     37.860378     37.860378     75.720756
     -2.377377     40.312934     40.312934     80.625868
     -2.367367     42.431847     42.431847     84.863694
     -2.357357     43.641370     43.641370     87.282739
     -2.347347     43.332766     43.332766     86.665532
     -2.337337     41.127916     41.127916     82.255833
     -2.327327     37.085086     37.085086     74.170171
     -2.317317     31.751032     31.751032     63.502063
     -2.307307     26.034979     26.034979     52.069959
     -2.297297     20.960494     20.960494     41.920989
     -2.287287     17.397393     17.397393     34.794786
     -2.277277     15.867877     15.867877     31.735754
     -2.267267     16.474077     16.474077     32.948154
     -2.257257     18.941527     18.941527     37.883053
     -2.247247     22.739679     22.739679     45.479358
     -2.237237     27.230186     27.230186     54.460372
     -2.227227     31.797694     31.797694     63.595389
     -2.217217     35.930440     35.930440     71.860880
     -2.207207     39.239707     39.239707     78.479414
     -2.197197     41.436171     41.436171     82.872341
     -2.187187     42.304231     42.304231     84.608462
     -2.177177     41.714144     41.714144     83.428287
     -2.167167     39.679451     39.679451     79.358901
     -2.157157     36.421472     36.421472     72.842944
     -2.147147     32.377914     32.377914     64.755827
     -2.137137     28.114348     28.114348     56.228696
     -2.127127     24.157489     24.157489     48.314978
     -2.117117     20.827250     20.827250     41.654501
     -2.107107     18.156524     18.156524     36.313049
     -2.097097     15.941030     15.941030     31.882059
     -2.087087     13.887047     13.887047     27.774094
     -2.077077     11.772792     11.772792     23.545584
     -2.067067      9.541836      9.541836     19.083671
     -2.057057      7.296525      7.296525     14.593051
     -2.047047      5.218100      5.218100     10.436200
     -2.037037      3.471065      3.471065      6.942130
     -2.027027      2.141041      2.141041      4.282083
     -2.017017      1.223477      1.223477      2.446953
     -2.007007      0.650687      0.650687      1.301374
     -1.996997      0.332467      0.332467      0.664934
     -1.986987      0.190641      0.190641      0.381282
     -1.976977      0.180173      0.180173      0.360346
     -1.966967      0.298797      0.298797      0.597594
     -1.956957      0.589335      0.589335      1.178669
     -1.946947      1.135505      1.135505      2.271011
     -1.936937      2.047628      2.047628      4.095257
     -1.926927      3.433820      3.433820      6.867639
     -1.916917      5.357647      5.357647     10.715294
     -1.906907      7.793025      7.793025     15.586050
     -1.896897     10.595243     10.595243     21.190487
     -1.886887     13.506198     13.506198     27.012395
     -1.876877     16.199807     16.199807     32.399614
     -1.866867     18.356300     18.356300     36.712601
     -1.856857     19.741749     19.741749     39.483498
     -1.846847     20.267942     20.267942     40.535885
     -1.836837     20.014601     20.014601     40.029201
     -1.826827     19.204922     19.204922     38.409843
     -1.816817     18.135383     18.135383     36.270765
     -1.806807     17.075435     17.075435     34.150870
     -1.796797     16.171139     16.171139     32.342277
     -1.786787     15.396509     15.396509     30.793017
     -1.776777     14.582302     14.582302     29.164604
     -1.766767     13.514212     13.514212     27.028424
     -1.756757     12.052760     12.052760     24.105520
     -1.746747     10.214297     10.214297     20.428595
     -1.736737      8.177277      8.177277     16.354554
     -1.726727      6.222952      6.222952     12.445904
     -1.716717      4.653037      4.653037      9.306074
     -1.706707      3.727673      3.727673      7.455346
     -1.696697      3.639764      3.639764      7.279528
     -1.686687      4.509656      4.509656      9.019312
     -1.676677      6.370794      6.370794     12.741587
     -1.666667      9.130728      9.130728     18.261456
     -1.656657     12.522409     12.522409     25.044817
     -1.646647     16.086312     16.086312     32.172624
     -1.636637     19.224248     19.224248     38.448496
     -1.626627     21.334728     21.334728     42.669455
