# EIG2DOS: Utility for SIESTA to obtain the electronic density of states
#  E. Artacho, Apr 1999, A. Garcia, Apr 2012
#  Nick R. Papior, Feb 2017
# ------------------------------------------
# Eigenvalues calculated from a non-polarized calculation
# Eigenvalues read from siesta.EIG
# Kpoint weights read from siesta.KP
# Using smearing parameter:   0.0500
# Using 1000 points in the energy range
# Selected bands: 1 to: 2981
# Emin, Emax in file for selected band(s):    -27.2581250    218.3841730
# Nbands, Nspin, Nk   =   2981     1     1
# E_F                 =    -4.2111 eV --> (shifted to ZERO)
# Broadening          =     0.0500 eV
#
#        E            N(up)  (=)   N(down)         Ntot
     -5.000000     32.823829     32.823829     65.647659
     -4.989990     37.780698     37.780698     75.561396
     -4.979980     42.266693     42.266693     84.533385
     -4.969970     45.496791     45.496791     90.993582
     -4.959960     46.864435     46.864435     93.728871
     -4.949950     46.144726     46.144726     92.289453
     -4.939940     43.573409     43.573409     87.146819
     -4.929930     39.787502     39.787502     79.575004
     -4.919920     35.674537     35.674537     71.349075
     -4.909910     32.195397     32.195397     64.390793
     -4.899900     30.218811     30.218811     60.437622
     -4.889890     30.368311     30.368311     60.736623
     -4.879880     32.874809     32.874809     65.749618
     -4.869870     37.459574     37.459574     74.919149
     -4.859860     43.311137     43.311137     86.622273
     -4.849850     49.219149     49.219149     98.438298
     -4.839840     53.869270     53.869270    107.738540
     -4.829830     56.214653     56.214653    112.429305
     -4.819820     55.780424     55.780424    111.560848
     -4.809810     52.772830     52.772830    105.545660
     -4.799800     47.951846     47.951846     95.903692
     -4.789790     42.335216     42.335216     84.670432
     -4.779780     36.870061     36.870061     73.740122
     -4.769770     32.201432     32.201432     64.402864
     -4.759760     28.599764     28.599764     57.199528
     -4.749750     26.028196     26.028196     52.056393
     -4.739740     24.280391     24.280391     48.560782
     -4.729730     23.114900     23.114900     46.229800
     -4.719720     22.339627     22.339627     44.679254
     -4.709710     21.836108     21.836108     43.672216
     -4.699700     21.541340     21.541340     43.082680
     -4.689690     21.417619     21.417619     42.835239
     -4.679680     21.437586     21.437586     42.875172
     -4.669670     21.596803     21.596803     43.193605
     -4.659660     21.948333     21.948333     43.896666
     -4.649650     22.640207     22.640207     45.280415
     -4.639640     23.929033     23.929033     47.858066
     -4.629630     26.141120     26.141120     52.282241
     -4.619620     29.562844     29.562844     59.125688
     -4.609610     34.274172     34.274172     68.548344
     -4.599600     39.988638     39.988638     79.977275
     -4.589590     45.998102     45.998102     91.996204
     -4.579580     51.300976     51.300976    102.601953
     -4.569570     54.907395     54.907395    109.814791
     -4.559560     56.206712     56.206712    112.413423
     -4.549550     55.224059     55.224059    110.448119
     -4.539540     52.630966     52.630966    105.261932
     -4.529530     49.493083     49.493083     98.986165
     -4.519520     46.866369     46.866369     93.732738
     -4.509510     45.419513     45.419513     90.839026
     -4.499499     45.235850     45.235850     90.471700
     -4.489489     45.855988     45.855988     91.711976
     -4.479479     46.515133     46.515133     93.030266
     -4.469469     46.456513     46.456513     92.913025
     -4.459459     45.190120     45.190120     90.380239
     -4.449449     42.610420     42.610420     85.220840
     -4.439439     38.960618     38.960618     77.921236
     -4.429429     34.697650     34.697650     69.395300
     -4.419419     30.340926     30.340926     60.681852
     -4.409409     26.369067     26.369067     52.738134
     -4.399399     23.179146     23.179146     46.358291
     -4.389389     21.077022     21.077022     42.154044
     -4.379379     20.256284     20.256284     40.512568
     -4.369369     20.752017     20.752017     41.504034
     -4.359359     22.398174     22.398174     44.796347
     -4.349349     24.836813     24.836813     49.673627
     -4.339339     27.605699     27.605699     55.211398
     -4.329329     30.282309     30.282309     60.564618
     -4.319319     32.622242     32.622242     65.244484
     -4.309309     34.625640     34.625640     69.251280
     -4.299299     36.497475     36.497475     72.994951
     -4.289289     38.514755     38.514755     77.029510
     -4.279279     40.851637     40.851637     81.703274
     -4.269269     43.430697     43.430697     86.861393
     -4.259259     45.864985     45.864985     91.729970
     -4.249249     47.531641     47.531641     95.063282
     -4.239239     47.772401     47.772401     95.544802
     -4.229229     46.157262     46.157262     92.314524
     -4.219219     42.701431     42.701431     85.402862
     -4.209209     37.927117     37.927117     75.854235
     -4.199199     32.724428     32.724428     65.448855
     -4.189189     28.062568     28.062568     56.125136
     -4.179179     24.678282     24.678282     49.356563
     -4.169169     22.877468     22.877468     45.754937
     -4.159159     22.525063     22.525063     45.050126
     -4.149149     23.205543     23.205543     46.411087
     -4.139139     24.461953     24.461953     48.923905
     -4.129129     25.996294     25.996294     51.992589
     -4.119119     27.741456     27.741456     55.482912
     -4.109109     29.778196     29.778196     59.556391
     -4.099099     32.146076     32.146076     64.292153
     -4.089089     34.655805     34.655805     69.311610
     -4.079079     36.821734     36.821734     73.643469
     -4.069069     37.979854     37.979854     75.959709
     -4.059059     37.555436     37.555436     75.110872
     -4.049049     35.350588     35.350588     70.701175
     -4.039039     31.697804     31.697804     63.395608
     -4.029029     27.393250     27.393250     54.786499
     -4.019019     23.442557     23.442557     46.885114
     -4.009009     20.746482     20.746482     41.492965
     -3.998999     19.868125     19.868125     39.736251
     -3.988989     20.959502     20.959502     41.919004
     -3.978979     23.833569     23.833569     47.667137
     -3.968969     28.106451     28.106451     56.212902
     -3.958959     33.331015     33.331015     66.662030
     -3.948949     39.082743     39.082743     78.165486
     -3.938939     45.003390     45.003390     90.006779
     -3.928929     50.824268     50.824268    101.648536
     -3.918919     56.375331     56.375331    112.750662
     -3.908909     61.563373     61.563373    123.126746
     -3.898899     66.302923     66.302923    132.605846
     -3.888889     70.414278     70.414278    140.828557
     -3.878879     73.541525     73.541525    147.083050
     -3.868869     75.154765     75.154765    150.309530
     -3.858859     74.668558     74.668558    149.337116
     -3.848849     71.647996     71.647996    143.295993
     -3.838839     66.020873     66.020873    132.041746
     -3.828829     58.200719     58.200719    116.401437
     -3.818819     49.058890     49.058890     98.117781
     -3.808809     39.746060     39.746060     79.492120
     -3.798799     31.422689     31.422689     62.845377
     -3.788789     24.988236     24.988236     49.976472
     -3.778779     20.891423     20.891423     41.782846
     -3.768769     19.069051     19.069051     38.138101
     -3.758759     19.017723     19.017723     38.035445
     -3.748749     19.967699     19.967699     39.935399
     -3.738739     21.108209     21.108209     42.216418
     -3.728729     21.807982     21.807982     43.615964
     -3.718719     21.779551     21.779551     43.559103
     -3.708709     21.147898     21.147898     42.295796
     -3.698699     20.402481     20.402481     40.804962
     -3.688689     20.237041     20.237041     40.474082
     -3.678679     21.312666     21.312666     42.625331
     -3.668669     24.010228     24.010228     48.020456
     -3.658659     28.255517     28.255517     56.511034
     -3.648649     33.488642     33.488642     66.977284
     -3.638639     38.802132     38.802132     77.604264
     -3.628629     43.203389     43.203389     86.406778
     -3.618619     45.900767     45.900767     91.801534
     -3.608609     46.503279     46.503279     93.006557
     -3.598599     45.070323     45.070323     90.140645
     -3.588589     42.021202     42.021202     84.042403
     -3.578579     37.968367     37.968367     75.936733
     -3.568569     33.545821     33.545821     67.091642
     -3.558559     29.275744     29.275744     58.551488
     -3.548549     25.485798     25.485798     50.971596
     -3.538539     22.279099     22.279099     44.558199
     -3.528529     19.561659     19.561659     39.123317
     -3.518519     17.126597     17.126597     34.253194
     -3.508509     14.772481     14.772481     29.544962
     -3.498498     12.410501     12.410501     24.821001
     -3.488488     10.114858     10.114858     20.229716
     -3.478478      8.097765      8.097765     16.195530
     -3.468468      6.626593      6.626593     13.253185
     -3.458458      5.922000      5.922000     11.844001
     -3.448448      6.073993      6.073993     12.147986
     -3.438438      6.998513      6.998513     13.997025
     -3.428428      8.444922      8.444922     16.889843
     -3.418418     10.057497     10.057497     20.114994
     -3.408408     11.483609     11.483609     22.967217
     -3.398398     12.502302     12.502302     25.004604
     -3.388388     13.128212     13.128212     26.256423
     -3.378378     13.644164     13.644164     27.288329
     -3.368368     14.539831     14.539831     29.079661
     -3.358358     16.371708     16.371708     32.743416
     -3.348348     19.588021     19.588021     39.176043
     -3.338338     24.366120     24.366120     48.732240
     -3.328328     30.497060     30.497060     60.994120
     -3.318318     37.342430     37.342430     74.684859
     -3.308308     43.890503     43.890503     87.781007
     -3.298298     48.935705     48.935705     97.871410
     -3.288288     51.371387     51.371387    102.742773
     -3.278278     50.521020     50.521020    101.042041
     -3.268268     46.378287     46.378287     92.756575
     -3.258258     39.636426     39.636426     79.272851
     -3.248248     31.476360     31.476360     62.952720
     -3.238238     23.202930     23.202930     46.405860
     -3.228228     15.890399     15.890399     31.780798
     -3.218218     10.177147     10.177147     20.354294
     -3.208208      6.256864      6.256864     12.513727
     -3.198198      4.015098      4.015098      8.030196
     -3.188188      3.211194      3.211194      6.422388
     -3.178178      3.618200      3.618200      7.236399
     -3.168168      5.081321      5.081321     10.162642
     -3.158158      7.503966      7.503966     15.007931
     -3.148148     10.797350     10.797350     21.594701
     -3.138138     14.830659     14.830659     29.661319
     -3.128128     19.401951     19.401951     38.803902
     -3.118118     24.230003     24.230003     48.460006
     -3.108108     28.958480     28.958480     57.916960
     -3.098098     33.171312     33.171312     66.342624
     -3.088088     36.431621     36.431621     72.863242
     -3.078078     38.356592     38.356592     76.713185
     -3.068068     38.717659     38.717659     77.435317
     -3.058058     37.523505     37.523505     75.047010
     -3.048048     35.033014     35.033014     70.066027
     -3.038038     31.675295     31.675295     63.350590
     -3.028028     27.909801     27.909801     55.819602
     -3.018018     24.100437     24.100437     48.200875
     -3.008008     20.470191     20.470191     40.940381
     -2.997998     17.150580     17.150580     34.301161
     -2.987988     14.281269     14.281269     28.562539
     -2.977978     12.089824     12.089824     24.179647
     -2.967968     10.901121     10.901121     21.802242
     -2.957958     11.069004     11.069004     22.138007
     -2.947948     12.859113     12.859113     25.718227
     -2.937938     16.326750     16.326750     32.653501
     -2.927928     21.231749     21.231749     42.463499
     -2.917918     27.023721     27.023721     54.047441
     -2.907908     32.917230     32.917230     65.834459
     -2.897898     38.052786     38.052786     76.105571
     -2.887888     41.706026     41.706026     83.412052
     -2.877878     43.477232     43.477232     86.954464
     -2.867868     43.386386     43.386386     86.772773
     -2.857858     41.828061     41.828061     83.656122
     -2.847848     39.398442     39.398442     78.796884
     -2.837838     36.666695     36.666695     73.333390
     -2.827828     33.991498     33.991498     67.982996
     -2.817818     31.461592     31.461592     62.923183
     -2.807808     28.975313     28.975313     57.950627
     -2.797798     26.402401     26.402401     52.804802
     -2.787788     23.731983     23.731983     47.463966
     -2.777778     21.125756     21.125756     42.251512
     -2.767768     18.855205     18.855205     37.710410
     -2.757758     17.170738     17.170738     34.341476
     -2.747748     16.188110     16.188110     32.376220
     -2.737738     15.861562     15.861562     31.723125
     -2.727728     16.053854     16.053854     32.107707
     -2.717718     16.648174     16.648174     33.296349
     -2.707708     17.618823     17.618823     35.237646
     -2.697698     19.007251     19.007251     38.014501
     -2.687688     20.819931     20.819931     41.639862
     -2.677678     22.926563     22.926563     45.853125
     -2.667668     25.044932     25.044932     50.089864
     -2.657658     26.842059     26.842059     53.684118
     -2.647648     28.097334     28.097334     56.194669
     -2.637638     28.822987     28.822987     57.645974
     -2.627628     29.259515     29.259515     58.519030
     -2.617618     29.744665     29.744665     59.489329
     -2.607608     30.535460     30.535460     61.070919
     -2.597598     31.685633     31.685633     63.371265
     -2.587588     33.033448     33.033448     66.066897
     -2.577578     34.279310     34.279310     68.558621
     -2.567568     35.087998     35.087998     70.175995
     -2.557558     35.163983     35.163983     70.327966
     -2.547548     34.295815     34.295815     68.591631
     -2.537538     32.397691     32.397691     64.795382
     -2.527528     29.564883     29.564883     59.129765
     -2.517518     26.120548     26.120548     52.241096
     -2.507508     22.606022     22.606022     45.212043
     -2.497497     19.682347     19.682347     39.364693
     -2.487487     17.958567     17.958567     35.917134
     -2.477477     17.808348     17.808348     35.616696
     -2.467467     19.251340     19.251340     38.502680
     -2.457457     21.952475     21.952475     43.904949
     -2.447447     25.344522     25.344522     50.689044
     -2.437437     28.828032     28.828032     57.656063
     -2.427427     31.968357     31.968357     63.936713
     -2.417417     34.606510     34.606510     69.213019
     -2.407407     36.833941     36.833941     73.667883
     -2.397397     38.841151     38.841151     77.682302
     -2.387387     40.712124     40.712124     81.424248
     -2.377377     42.270878     42.270878     84.541755
     -2.367367     43.070746     43.070746     86.141491
     -2.357357     42.551074     42.551074     85.102148
     -2.347347     40.298012     40.298012     80.596024
     -2.337337     36.284045     36.284045     72.568089
     -2.327327     30.965140     30.965140     61.930281
     -2.317317     25.186738     25.186738     50.373476
     -2.307307     19.946848     19.946848     39.893697
     -2.297297     16.126612     16.126612     32.253225
     -2.287287     14.293736     14.293736     28.587471
     -2.277277     14.628078     14.628078     29.256157
     -2.267267     16.955775     16.955775     33.911550
     -2.257257     20.844229     20.844229     41.688458
     -2.247247     25.711009     25.711009     51.422018
     -2.237237     30.918451     30.918451     61.836902
     -2.227227     35.844557     35.844557     71.689115
     -2.217217     39.932471     39.932471     79.864941
     -2.207207     42.727171     42.727171     85.454342
     -2.197197     43.910882     43.910882     87.821765
     -2.187187     43.345188     43.345188     86.690375
     -2.177177     41.114522     41.114522     82.229045
     -2.167167     37.546696     37.546696     75.093392
     -2.157157     33.176144     33.176144     66.352287
     -2.147147     28.631050     28.631050     57.262100
     -2.137137     24.466501     24.466501     48.933001
     -2.127127     21.008504     21.008504     42.017008
     -2.117117     18.283959     18.283959     36.567917
     -2.107107     16.073938     16.073938     32.147876
     -2.097097     14.062020     14.062020     28.124041
     -2.087087     11.999084     11.999084     23.998169
     -2.077077      9.804098      9.804098     19.608197
     -2.067067      7.565079      7.565079     15.130158
     -2.057057      5.462310      5.462310     10.924621
     -2.047047      3.669990      3.669990      7.339981
     -2.037037      2.287961      2.287961      4.575922
     -2.027027      1.324952      1.324952      2.649903
     -2.017017      0.723769      0.723769      1.447538
     -2.007007      0.404448      0.404448      0.808896
     -1.996997      0.304773      0.304773      0.609545
     -1.986987      0.408837      0.408837      0.817674
     -1.976977      0.762698      0.762698      1.525397
     -1.966967      1.476969      1.476969      2.953939
     -1.956957      2.711908      2.711908      5.423816
     -1.946947      4.637894      4.637894      9.275789
     -1.936937      7.369801      7.369801     14.739602
     -1.926927     10.888942     10.888942     21.777883
     -1.916917     14.983788     14.983788     29.967575
     -1.906907     19.246449     19.246449     38.492899
     -1.896897     23.145031     23.145031     46.290061
     -1.886887     26.156023     26.156023     52.312046
     -1.876877     27.906743     27.906743     55.813486
     -1.866867     28.269835     28.269835     56.539670
     -1.856857     27.377208     27.377208     54.754416
     -1.846847     25.561059     25.561059     51.122117
     -1.836837     23.255971     23.255971     46.511942
     -1.826827     20.895211     20.895211     41.790423
     -1.816817     18.818767     18.818767     37.637534
     -1.806807     17.202684     17.202684     34.405367
     -1.796797     16.025389     16.025389     32.050778
     -1.786787     15.091442     15.091442     30.182883
     -1.776777     14.118095     14.118095     28.236190
     -1.766767     12.857443     12.857443     25.714886
     -1.756757     11.201056     11.201056     22.402113
     -1.746747      9.218982      9.218982     18.437963
     -1.736737      7.120926      7.120926     14.241851
     -1.726727      5.169674      5.169674     10.339347
     -1.716717      3.596644      3.596644      7.193288
     -1.706707      2.556827      2.556827      5.113654
     -1.696697      2.128455      2.128455      4.256910
     -1.686687      2.334756      2.334756      4.669512
     -1.676677      3.157289      3.157289      6.314579
     -1.666667      4.524096      4.524096      9.048191
     -1.656657      6.280702      6.280702     12.561404
     -1.646647      8.172312      8.172312     16.344624
     -1.636637      9.868080      9.868080     19.736160
     -1.626627     11.039062     11.039062     22.078124
