# EIG2DOS: Utility for SIESTA to obtain the electronic density of states
#  E. Artacho, Apr 1999, A. Garcia, Apr 2012
#  Nick R. Papior, Feb 2017
# ------------------------------------------
# Eigenvalues calculated from a non-polarized calculation
# Eigenvalues read from siesta.EIG
# Kpoint weights read from siesta.KP
# Using smearing parameter:   0.0500
# Using 1000 points in the energy range
# Selected bands: 1 to: 2981
# Emin, Emax in file for selected band(s):    -27.3066551    218.4021940
# Nbands, Nspin, Nk   =   2981     1     1
# E_F                 =    -4.1930 eV --> (shifted to ZERO)
# Broadening          =     0.0500 eV
#
#        E            N(up)  (=)   N(down)         Ntot
     -5.000000     31.399715     31.399715     62.799431
     -4.989990     36.444288     36.444288     72.888576
     -4.979980     41.265401     41.265401     82.530802
     -4.969970     45.039127     45.039127     90.078255
     -4.959960     47.047627     47.047627     94.095254
     -4.949950     46.918243     46.918243     93.836486
     -4.939940     44.755242     44.755242     89.510484
     -4.929930     41.123177     41.123177     82.246354
     -4.919920     36.909201     36.909201     73.818401
     -4.909910     33.128847     33.128847     66.257694
     -4.899900     30.729818     30.729818     61.459637
     -4.889890     30.414297     30.414297     60.828593
     -4.879880     32.482455     32.482455     64.964911
     -4.869870     36.717323     36.717323     73.434646
     -4.859860     42.362704     42.362704     84.725408
     -4.849850     48.249033     48.249033     96.498066
     -4.839840     53.073469     53.073469    106.146939
     -4.829830     55.760896     55.760896    111.521791
     -4.819820     55.773996     55.773996    111.547992
     -4.809810     53.247732     53.247732    106.495464
     -4.799800     48.898737     48.898737     97.797475
     -4.789790     43.760755     43.760755     87.521511
     -4.779780     38.864817     38.864817     77.729634
     -4.769770     34.983406     34.983406     69.966811
     -4.759760     32.502466     32.502466     65.004932
     -4.749750     31.417379     31.417379     62.834759
     -4.739740     31.409749     31.409749     62.819498
     -4.729730     31.961157     31.961157     63.922315
     -4.719720     32.478570     32.478570     64.957139
     -4.709710     32.419169     32.419169     64.838337
     -4.699700     31.402138     31.402138     62.804276
     -4.689690     29.290317     29.290317     58.580634
     -4.679680     26.226652     26.226652     52.453304
     -4.669670     22.620125     22.620125     45.240250
     -4.659660     19.086359     19.086359     38.172718
     -4.649650     16.352974     16.352974     32.705949
     -4.639640     15.138583     15.138583     30.277166
     -4.629630     16.012454     16.012454     32.024908
     -4.619620     19.247082     19.247082     38.494165
     -4.609610     24.691959     24.691959     49.383919
     -4.599600     31.717048     31.717048     63.434096
     -4.589590     39.279753     39.279753     78.559505
     -4.579580     46.140281     46.140281     92.280561
     -4.569570     51.187330     51.187330    102.374661
     -4.559560     53.768454     53.768454    107.536908
     -4.549550     53.891423     53.891423    107.782845
     -4.539540     52.201374     52.201374    104.402748
     -4.529530     49.730715     49.730715     99.461431
     -4.519520     47.518180     47.518180     95.036360
     -4.509510     46.249247     46.249247     92.498493
     -4.499499     46.056356     46.056356     92.112712
     -4.489489     46.543849     46.543849     93.087698
     -4.479479     47.006025     47.006025     94.012050
     -4.469469     46.731325     46.731325     93.462651
     -4.459459     45.263093     45.263093     90.526185
     -4.449449     42.523387     42.523387     85.046774
     -4.439439     38.779335     38.779335     77.558669
     -4.429429     34.503377     34.503377     69.006754
     -4.419419     30.214191     30.214191     60.428383
     -4.409409     26.369359     26.369359     52.738717
     -4.399399     23.329024     23.329024     46.658048
     -4.389389     21.358269     21.358269     42.716538
     -4.379379     20.619727     20.619727     41.239453
     -4.369369     21.135519     21.135519     42.271038
     -4.359359     22.743789     22.743789     45.487577
     -4.349349     25.100383     25.100383     50.200766
     -4.339339     27.758305     27.758305     55.516610
     -4.329329     30.308519     30.308519     60.617037
     -4.319319     32.521221     32.521221     65.042443
     -4.309309     34.417313     34.417313     68.834625
     -4.299299     36.229584     36.229584     72.459169
     -4.289289     38.262434     38.262434     76.524868
     -4.279279     40.702638     40.702638     81.405276
     -4.269269     43.457226     43.457226     86.914452
     -4.259259     46.093016     46.093016     92.186033
     -4.249249     47.923729     47.923729     95.847457
     -4.239239     48.235331     48.235331     96.470662
     -4.229229     46.572965     46.572965     93.145930
     -4.219219     42.966602     42.966602     85.933205
     -4.209209     37.982838     37.982838     75.965676
     -4.199199     32.564431     32.564431     65.128861
     -4.189189     27.721906     27.721906     55.443812
     -4.179179     24.213741     24.213741     48.427482
     -4.169169     22.351556     22.351556     44.703111
     -4.159159     21.998338     21.998338     43.996676
     -4.149149     22.733938     22.733938     45.467875
     -4.139139     24.092553     24.092553     48.185106
     -4.129129     25.758516     25.758516     51.517033
     -4.119119     27.637301     27.637301     55.274603
     -4.109109     29.779626     29.779626     59.559252
     -4.099099     32.205273     32.205273     64.410546
     -4.089089     34.725911     34.725911     69.451823
     -4.079079     36.877266     36.877266     73.754533
     -4.069069     38.024176     38.024176     76.048351
     -4.059059     37.610023     37.610023     75.220046
     -4.049049     35.432793     35.432793     70.865585
     -4.039039     31.801876     31.801876     63.603753
     -4.029029     27.487485     27.487485     54.974970
     -4.019019     23.484846     23.484846     46.969691
     -4.009009     20.708594     20.708594     41.417188
     -3.998999     19.753766     19.753766     39.507532
     -3.988989     20.805413     20.805413     41.610826
     -3.978979     23.693328     23.693328     47.386656
     -3.968969     28.026333     28.026333     56.052667
     -3.958959     33.330653     33.330653     66.661306
     -3.948949     39.149224     39.149224     78.298448
     -3.938939     45.099278     45.099278     90.198556
     -3.928929     50.903273     50.903273    101.806546
     -3.918919     56.397598     56.397598    112.795196
     -3.908909     61.505410     61.505410    123.010820
     -3.898899     66.161746     66.161746    132.323493
     -3.888889     70.207958     70.207958    140.415915
     -3.878879     73.307637     73.307637    146.615273
     -3.868869     74.945905     74.945905    149.891810
     -3.858859     74.542862     74.542862    149.085725
     -3.848849     71.654452     71.654452    143.308904
     -3.838839     66.183168     66.183168    132.366337
     -3.828829     58.506403     58.506403    117.012805
     -3.818819     49.459809     49.459809     98.919619
     -3.808809     40.171263     40.171263     80.342525
     -3.798799     31.799162     31.799162     63.598325
     -3.788789     25.261473     25.261473     50.522946
     -3.778779     21.038579     21.038579     42.077157
     -3.768769     19.101159     19.101159     38.202318
     -3.758759     18.971683     18.971683     37.943366
     -3.748749     19.891683     19.891683     39.783367
     -3.738739     21.045286     21.045286     42.090572
     -3.728729     21.782549     21.782549     43.565098
     -3.718719     21.790153     21.790153     43.580305
     -3.708709     21.168509     21.168509     42.337018
     -3.698699     20.392359     20.392359     40.784718
     -3.688689     20.156766     20.156766     40.313532
     -3.678679     21.141421     21.141421     42.282841
     -3.668669     23.757772     23.757772     47.515544
     -3.658659     27.963105     27.963105     55.926209
     -3.648649     33.217149     33.217149     66.434298
     -3.638639     38.611570     38.611570     77.223140
     -3.628629     43.132666     43.132666     86.265332
     -3.618619     45.956702     45.956702     91.913403
     -3.608609     46.662922     46.662922     93.325844
     -3.598599     45.293576     45.293576     90.587153
     -3.588589     42.266161     42.266161     84.532323
     -3.578579     38.202408     38.202408     76.404816
     -3.568569     33.749848     33.749848     67.499696
     -3.558559     29.443399     29.443399     58.886799
     -3.548549     25.620811     25.620811     51.241621
     -3.538539     22.392379     22.392379     44.784759
     -3.528529     19.667785     19.667785     39.335570
     -3.518519     17.239200     17.239200     34.478400
     -3.508509     14.899740     14.899740     29.799479
     -3.498498     12.553853     12.553853     25.107706
     -3.488488     10.274450     10.274450     20.548900
     -3.478478      8.286990      8.286990     16.573980
     -3.468468      6.895989      6.895989     13.791978
     -3.458458      6.389728      6.389728     12.779456
     -3.448448      6.955185      6.955185     13.910370
     -3.438438      8.618956      8.618956     17.237912
     -3.428428     11.219336     11.219336     22.438672
     -3.418418     14.415986     14.415986     28.831972
     -3.408408     17.746999     17.746999     35.493998
     -3.398398     20.734875     20.734875     41.469750
     -3.388388     23.020514     23.020514     46.041029
     -3.378378     24.480896     24.480896     48.961793
     -3.368368     25.280281     25.280281     50.560563
     -3.358358     25.825042     25.825042     51.650084
     -3.348348     26.629387     26.629387     53.258774
     -3.338338     28.133255     28.133255     56.266510
     -3.328328     30.529377     30.529377     61.058753
     -3.318318     33.653318     33.653318     67.306635
     -3.308308     36.976930     36.976930     73.953861
     -3.298298     39.725214     39.725214     79.450428
     -3.288288     41.102767     41.102767     82.205533
     -3.278278     40.567225     40.567225     81.134450
     -3.268268     38.044252     38.044252     76.088503
     -3.258258     33.978863     33.978863     67.957726
     -3.248248     29.181364     29.181364     58.362729
     -3.238238     24.527492     24.527492     49.054983
     -3.228228     20.650507     20.650507     41.301014
     -3.218218     17.765990     17.765990     35.531979
     -3.208208     15.695655     15.695655     31.391311
     -3.198198     14.052839     14.052839     28.105679
     -3.188188     12.481151     12.481151     24.962302
     -3.178178     10.833441     10.833441     21.666883
     -3.168168      9.230103      9.230103     18.460205
     -3.158158      8.003171      8.003171     16.006343
     -3.148148      7.575438      7.575438     15.150876
     -3.138138      8.326887      8.326887     16.653775
     -3.128128     10.479042     10.479042     20.958085
     -3.118118     14.008601     14.008601     28.017202
     -3.108108     18.601253     18.601253     37.202505
     -3.098098     23.667324     23.667324     47.334649
     -3.088088     28.440568     28.440568     56.881135
     -3.078078     32.154601     32.154601     64.309203
     -3.068068     34.247176     34.247176     68.494353
     -3.058058     34.510978     34.510978     69.021956
     -3.048048     33.120843     33.120843     66.241686
     -3.038038     30.524126     30.524126     61.048252
     -3.028028     27.252328     27.252328     54.504655
     -3.018018     23.751857     23.751857     47.503714
     -3.008008     20.312897     20.312897     40.625795
     -2.997998     17.111030     17.111030     34.222060
     -2.987988     14.310549     14.310549     28.621098
     -2.977978     12.152008     12.152008     24.304016
     -2.967968     10.968364     10.968364     21.936729
     -2.957958     11.120267     11.120267     22.240534
     -2.947948     12.879889     12.879889     25.759779
     -2.937938     16.308724     16.308724     32.617448
     -2.927928     21.172716     21.172716     42.345433
     -2.917918     26.928376     26.928376     53.856752
     -2.907908     32.798621     32.798621     65.597242
     -2.897898     37.933009     37.933009     75.866019
     -2.887888     41.614235     41.614235     83.228470
     -2.877878     43.443856     43.443856     86.887712
     -2.867868     43.434487     43.434487     86.868975
     -2.857858     41.964787     41.964787     83.929574
     -2.847848     39.610265     39.610265     79.220530
     -2.837838     36.920885     36.920885     73.841770
     -2.827828     34.243681     34.243681     68.487363
     -2.817818     31.666707     31.666707     63.333415
     -2.807808     29.098185     29.098185     58.196370
     -2.797798     26.424815     26.424815     52.849631
     -2.787788     23.655030     23.655030     47.310060
     -2.777778     20.968082     20.968082     41.936164
     -2.767768     18.648827     18.648827     37.297653
     -2.757758     16.955918     16.955918     33.911836
     -2.747748     16.007927     16.007927     32.015853
     -2.737738     15.756083     15.756083     31.512165
     -2.727728     16.053794     16.053794     32.107587
     -2.717718     16.768563     16.768563     33.537127
     -2.707708     17.853929     17.853929     35.707858
     -2.697698     19.328372     19.328372     38.656745
     -2.687688     21.177488     21.177488     42.354976
     -2.677678     23.257236     23.257236     46.514471
     -2.667668     25.283350     25.283350     50.566700
     -2.657658     26.934768     26.934768     53.869535
     -2.647648     28.015214     28.015214     56.030428
     -2.637638     28.568081     28.568081     57.136162
     -2.627628     28.864041     28.864041     57.728082
     -2.617618     29.262933     29.262933     58.525867
     -2.607608     30.031849     30.031849     60.063699
     -2.597598     31.222310     31.222310     62.444620
     -2.587588     32.660508     32.660508     65.321015
     -2.577578     34.028534     34.028534     68.057068
     -2.567568     34.970402     34.970402     69.940804
     -2.557558     35.170707     35.170707     70.341413
     -2.547548     34.401432     34.401432     68.802865
     -2.537538     32.564823     32.564823     65.129646
     -2.527528     29.749285     29.749285     59.498570
     -2.517518     26.276634     26.276634     52.553268
     -2.507508     22.693364     22.693364     45.386728
     -2.497497     19.673375     19.673375     39.346750
     -2.487487     17.846315     17.846315     35.692630
     -2.477477     17.611465     17.611465     35.222931
     -2.467467     19.012915     19.012915     38.025830
     -2.457457     21.730607     21.730607     43.461213
     -2.447447     25.195979     25.195979     50.391957
     -2.437437     28.790164     28.790164     57.580327
     -2.427427     32.046343     32.046343     64.092687
     -2.417417     34.771468     34.771468     69.542936
     -2.407407     37.033076     37.033076     74.066152
     -2.397397     39.016283     39.016283     78.032567
     -2.387387     40.819848     40.819848     81.639695
     -2.377377     42.297153     42.297153     84.594306
     -2.367367     43.034667     43.034667     86.069334
     -2.357357     42.496303     42.496303     84.992607
     -2.347347     40.275149     40.275149     80.550297
     -2.337337     36.331265     36.331265     72.662530
     -2.327327     31.095401     31.095401     62.190802
     -2.317317     25.386472     25.386472     50.772944
     -2.307307     20.185020     20.185020     40.370040
     -2.297297     16.367996     16.367996     32.735991
     -2.287287     14.509402     14.509402     29.018805
     -2.277277     14.799316     14.799316     29.598631
     -2.267267     17.072208     17.072208     34.144416
     -2.257257     20.899765     20.899765     41.799530
     -2.247247     25.701180     25.701180     51.402359
     -2.237237     30.840802     30.840802     61.681605
     -2.227227     35.701572     35.701572     71.403144
     -2.217217     39.735173     39.735173     79.470346
     -2.207207     42.497169     42.497169     84.994338
     -2.197197     43.679040     43.679040     87.358080
     -2.187187     43.146556     43.146556     86.293112
     -2.177177     40.981661     40.981661     81.963322
     -2.167167     37.506236     37.506236     75.012472
     -2.157157     33.254672     33.254672     66.509344
     -2.147147     28.874334     28.874334     57.748668
     -2.137137     24.970464     24.970464     49.940929
     -2.127127     21.952629     21.952629     43.905258
     -2.117117     19.950801     19.950801     39.901601
     -2.107107     18.835632     18.835632     37.671264
     -2.097097     18.319634     18.319634     36.639268
     -2.087087     18.075864     18.075864     36.151728
     -2.077077     17.816918     17.816918     35.633836
     -2.067067     17.320112     17.320112     34.640225
     -2.057057     16.426271     16.426271     32.852542
     -2.047047     15.046717     15.046717     30.093435
     -2.037037     13.186488     13.186488     26.372976
     -2.027027     10.961339     10.961339     21.922678
     -2.017017      8.580993      8.580993     17.161986
     -2.007007      6.294027      6.294027     12.588054
     -1.996997      4.318588      4.318588      8.637175
     -1.986987      2.793543      2.793543      5.587087
     -1.976977      1.770985      1.770985      3.541970
     -1.966967      1.246346      1.246346      2.492692
     -1.956957      1.204052      1.204052      2.408104
     -1.946947      1.652739      1.652739      3.305478
     -1.936937      2.632211      2.632211      5.264423
     -1.926927      4.188019      4.188019      8.376038
     -1.916917      6.323773      6.323773     12.647547
     -1.906907      8.952314      8.952314     17.904629
     -1.896897     11.870336     11.870336     23.740672
     -1.886887     14.773729     14.773729     29.547458
     -1.876877     17.314420     17.314420     34.628840
     -1.866867     19.181943     19.181943     38.363885
     -1.856857     20.183264     20.183264     40.366529
     -1.846847     20.295385     20.295385     40.590770
     -1.836837     19.672817     19.672817     39.345634
     -1.826827     18.602256     18.602256     37.204512
     -1.816817     17.410684     17.410684     34.821368
     -1.806807     16.352532     16.352532     32.705065
     -1.796797     15.519433     15.519433     31.038866
     -1.786787     14.816838     14.816838     29.633677
     -1.776777     14.025186     14.025186     28.050373
     -1.766767     12.919278     12.919278     25.838556
     -1.756757     11.386001     11.386001     22.772003
     -1.746747      9.482087      9.482087     18.964174
     -1.736737      7.410310      7.410310     14.820621
     -1.726727      5.438944      5.438944     10.877888
     -1.716717      3.814650      3.814650      7.629300
     -1.706707      2.710384      2.710384      5.420768
     -1.696697      2.218741      2.218741      4.437482
     -1.686687      2.371067      2.371067      4.742135
     -1.676677      3.151825      3.151825      6.303649
     -1.666667      4.489489      4.489489      8.978978
     -1.656657      6.229811      6.229811     12.459622
     -1.646647      8.118556      8.118556     16.237111
     -1.636637      9.824805      9.824805     19.649609
     -1.626627     11.017549     11.017549     22.035098
