# EIG2DOS: Utility for SIESTA to obtain the electronic density of states
#  E. Artacho, Apr 1999, A. Garcia, Apr 2012
#  Nick R. Papior, Feb 2017
# ------------------------------------------
# Eigenvalues calculated from a non-polarized calculation
# Eigenvalues read from siesta.EIG
# Kpoint weights read from siesta.KP
# Using smearing parameter:   0.0500
# Using 1000 points in the energy range
# Selected bands: 1 to: 2981
# Emin, Emax in file for selected band(s):    -27.3860023    218.4128050
# Nbands, Nspin, Nk   =   2981     1     1
# E_F                 =    -4.1846 eV --> (shifted to ZERO)
# Broadening          =     0.0500 eV
#
#        E            N(up)  (=)   N(down)         Ntot
     -5.000000     32.112905     32.112905     64.225811
     -4.989990     37.528277     37.528277     75.056553
     -4.979980     42.569324     42.569324     85.138648
     -4.969970     46.319428     46.319428     92.638857
     -4.959960     48.047679     48.047679     96.095358
     -4.949950     47.456420     47.456420     94.912839
     -4.939940     44.783344     44.783344     89.566688
     -4.929930     40.734675     40.734675     81.469349
     -4.919920     36.301770     36.301770     72.603540
     -4.909910     32.541764     32.541764     65.083529
     -4.899900     30.377911     30.377911     60.755822
     -4.889890     30.433656     30.433656     60.867312
     -4.879880     32.899616     32.899616     65.799231
     -4.869870     37.454876     37.454876     74.909751
     -4.859860     43.291638     43.291638     86.583276
     -4.849850     49.282681     49.282681     98.565362
     -4.839840     54.272330     54.272330    108.544660
     -4.829830     57.397182     57.397182    114.794364
     -4.819820     58.307005     58.307005    116.614011
     -4.809810     57.191841     57.191841    114.383682
     -4.799800     54.613513     54.613513    109.227026
     -4.789790     51.234703     51.234703    102.469406
     -4.779780     47.579745     47.579745     95.159491
     -4.769770     43.926489     43.926489     87.852977
     -4.759760     40.344448     40.344448     80.688896
     -4.749750     36.816100     36.816100     73.632199
     -4.739740     33.350107     33.350107     66.700214
     -4.729730     30.023908     30.023908     60.047816
     -4.719720     26.949411     26.949411     53.898823
     -4.709710     24.202159     24.202159     48.404318
     -4.699700     21.769805     21.769805     43.539609
     -4.689690     19.560071     19.560071     39.120143
     -4.679680     17.474036     17.474036     34.948072
     -4.669670     15.514339     15.514339     31.028678
     -4.659660     13.875712     13.875712     27.751423
     -4.649650     12.966800     12.966800     25.933600
     -4.639640     13.335926     13.335926     26.671852
     -4.629630     15.507889     15.507889     31.015778
     -4.619620     19.772737     19.772737     39.545474
     -4.609610     25.994369     25.994369     51.988738
     -4.599600     33.520135     33.520135     67.040269
     -4.589590     41.258934     41.258934     82.517868
     -4.579580     47.942317     47.942317     95.884634
     -4.569570     52.500354     52.500354    105.000707
     -4.559560     54.411681     54.411681    108.823361
     -4.549550     53.874911     53.874911    107.749823
     -4.539540     51.716600     51.716600    103.433200
     -4.529530     49.068346     49.068346     98.136691
     -4.519520     46.948852     46.948852     93.897704
     -4.509510     45.922177     45.922177     91.844355
     -4.499499     45.959013     45.959013     91.918026
     -4.489489     46.532989     46.532989     93.065978
     -4.479479     46.886661     46.886661     93.773322
     -4.469469     46.343091     46.343091     92.686183
     -4.459459     44.538109     44.538109     89.076218
     -4.449449     41.499131     41.499131     82.998263
     -4.439439     37.572041     37.572041     75.144082
     -4.429429     33.261907     33.261907     66.523813
     -4.419419     29.076682     29.076682     58.153365
     -4.409409     25.437026     25.437026     50.874052
     -4.399399     22.659299     22.659299     45.318599
     -4.389389     20.970255     20.970255     41.940511
     -4.379379     20.503075     20.503075     41.006150
     -4.369369     21.258436     21.258436     42.516871
     -4.359359     23.061684     23.061684     46.123369
     -4.349349     25.568357     25.568357     51.136714
     -4.339339     28.346917     28.346917     56.693835
     -4.329329     31.016589     31.016589     62.033179
     -4.319319     33.376766     33.376766     66.753533
     -4.309309     35.460842     35.460842     70.921684
     -4.299299     37.481744     37.481744     74.963488
     -4.289289     39.686632     39.686632     79.373264
     -4.279279     42.178942     42.178942     84.357884
     -4.269269     44.783438     44.783438     89.566875
     -4.259259     47.020962     47.020962     94.041924
     -4.249249     48.224647     48.224647     96.449294
     -4.239239     47.773047     47.773047     95.546094
     -4.229229     45.355644     45.355644     90.711289
     -4.219219     41.153924     41.153924     82.307848
     -4.209209     35.844431     35.844431     71.688862
     -4.199199     30.407423     30.407423     60.814847
     -4.189189     25.817555     25.817555     51.635110
     -4.179179     22.748918     22.748918     45.497837
     -4.169169     21.415141     21.415141     42.830281
     -4.159159     21.596477     21.596477     43.192954
     -4.149149     22.820172     22.820172     45.640343
     -4.139139     24.598984     24.598984     49.197968
     -4.129129     26.617381     26.617381     53.234762
     -4.119119     28.785381     28.785381     57.570763
     -4.109109     31.143027     31.143027     62.286055
     -4.099099     33.672112     33.672112     67.344224
     -4.089089     36.126093     36.126093     72.252186
     -4.079079     37.991905     37.991905     75.983811
     -4.069069     38.634394     38.634394     77.268789
     -4.059059     37.570084     37.570084     75.140168
     -4.049049     34.732335     34.732335     69.464671
     -4.039039     30.582867     30.582867     61.165733
     -4.029029     26.005062     26.005062     52.010124
     -4.019019     22.031717     22.031717     44.063433
     -4.009009     19.539151     19.539151     39.078302
     -3.998999     19.037395     19.037395     38.074791
     -3.988989     20.616816     20.616816     41.233631
     -3.978979     24.028090     24.028090     48.056180
     -3.968969     28.824316     28.824316     57.648632
     -3.958959     34.497069     34.497069     68.994138
     -3.948949     40.573396     40.573396     81.146791
     -3.938939     46.674303     46.674303     93.348607
     -3.928929     52.544452     52.544452    105.088904
     -3.918919     58.050163     58.050163    116.100325
     -3.908909     63.132008     63.132008    126.264017
     -3.898899     67.710629     67.710629    135.421258
     -3.888889     71.578068     71.578068    143.156135
     -3.878879     74.335330     74.335330    148.670660
     -3.868869     75.431254     75.431254    150.862508
     -3.858859     74.312898     74.312898    148.625796
     -3.848849     70.637971     70.637971    141.275942
     -3.838839     64.461320     64.461320    128.922639
     -3.828829     56.312516     56.312516    112.625033
     -3.818819     47.125692     47.125692     94.251385
     -3.808809     38.041405     38.041405     76.082810
     -3.798799     30.145693     30.145693     60.291386
     -3.788789     24.227463     24.227463     48.454925
     -3.778779     20.621849     20.621849     41.243698
     -3.768769     19.175463     19.175463     38.350925
     -3.758759     19.333394     19.333394     38.666787
     -3.748749     20.318090     20.318090     40.636179
     -3.738739     21.351663     21.351663     42.703325
     -3.728729     21.866736     21.866736     43.733473
     -3.718719     21.655156     21.655156     43.310311
     -3.708709     20.916909     20.916909     41.833818
     -3.698699     20.191993     20.191993     40.383987
     -3.688689     20.184891     20.184891     40.369781
     -3.678679     21.522554     21.522554     43.045107
     -3.668669     24.515356     24.515356     49.030711
     -3.658659     29.003297     29.003297     58.006594
     -3.648649     34.352682     34.352682     68.705365
     -3.638639     39.617624     39.617624     79.235248
     -3.628629     43.812779     43.812779     87.625559
     -3.618619     46.193208     46.193208     92.386417
     -3.608609     46.435820     46.435820     92.871640
     -3.598599     44.668210     44.668210     89.336420
     -3.588589     41.363200     41.363200     82.726400
     -3.578579     37.166491     37.166491     74.332982
     -3.568569     32.727656     32.727656     65.455313
     -3.558559     28.575071     28.575071     57.150142
     -3.548549     25.045610     25.045610     50.091220
     -3.538539     22.268717     22.268717     44.537435
     -3.528529     20.203166     20.203166     40.406333
     -3.518519     18.715270     18.715270     37.430540
     -3.508509     17.667438     17.667438     35.334876
     -3.498498     16.975133     16.975133     33.950267
     -3.488488     16.606977     16.606977     33.213954
     -3.478478     16.540621     16.540621     33.081243
     -3.468468     16.716279     16.716279     33.432558
     -3.458458     17.025055     17.025055     34.050111
     -3.448448     17.335435     17.335435     34.670871
     -3.438438     17.530116     17.530116     35.060232
     -3.428428     17.524888     17.524888     35.049777
     -3.418418     17.268595     17.268595     34.537190
     -3.408408     16.748042     16.748042     33.496083
     -3.398398     16.017366     16.017366     32.034731
     -3.388388     15.241085     15.241085     30.482170
     -3.378378     14.713553     14.713553     29.427106
     -3.368368     14.821368     14.821368     29.642735
     -3.358358     15.947517     15.947517     31.895033
     -3.348348     18.350110     18.350110     36.700220
     -3.338338     22.059489     22.059489     44.118978
     -3.328328     26.824188     26.824188     53.648376
     -3.318318     32.117535     32.117535     64.235070
     -3.308308     37.207993     37.207993     74.415987
     -3.298298     41.292334     41.292334     82.584668
     -3.288288     43.674525     43.674525     87.349050
     -3.278278     43.942304     43.942304     87.884608
     -3.268268     42.072026     42.072026     84.144052
     -3.258258     38.410499     38.410499     76.820998
     -3.248248     33.540902     33.540902     67.081803
     -3.238238     28.100296     28.100296     56.200592
     -3.228228     22.633242     22.633242     45.266483
     -3.218218     17.529253     17.529253     35.058505
     -3.208208     13.034697     13.034697     26.069395
     -3.198198      9.296435      9.296435     18.592870
     -3.188188      6.401130      6.401130     12.802259
     -3.178178      4.401414      4.401414      8.802828
     -3.168168      3.338137      3.338137      6.676274
     -3.158158      3.263850      3.263850      6.527701
     -3.148148      4.256325      4.256325      8.512650
     -3.138138      6.401020      6.401020     12.802039
     -3.128128      9.730169      9.730169     19.460338
     -3.118118     14.131664     14.131664     28.263329
     -3.108108     19.269416     19.269416     38.538832
     -3.098098     24.569214     24.569214     49.138429
     -3.088088     29.305831     29.305831     58.611663
     -3.078078     32.779896     32.779896     65.559792
     -3.068068     34.519408     34.519408     69.038816
     -3.058058     34.414642     34.414642     68.829283
     -3.048048     32.719821     32.719821     65.439641
     -3.038038     29.922305     29.922305     59.844609
     -3.028028     26.550829     26.550829     53.101657
     -3.018018     23.022999     23.022999     46.045998
     -3.008008     19.600233     19.600233     39.200466
     -2.997998     16.448807     16.448807     32.897614
     -2.987988     13.745755     13.745755     27.491510
     -2.977978     11.753556     11.753556     23.507113
     -2.967968     10.817795     10.817795     21.635590
     -2.957958     11.288850     11.288850     22.577699
     -2.947948     13.402324     13.402324     26.804648
     -2.937938     17.163324     17.163324     34.326648
     -2.927928     22.274801     22.274801     44.549602
     -2.917918     28.139901     28.139901     56.279802
     -2.907908     33.953211     33.953211     67.906422
     -2.897898     38.871170     38.871170     77.742341
     -2.887888     42.219399     42.219399     84.438798
     -2.877878     43.667961     43.667961     87.335921
     -2.867868     43.303814     43.303814     86.607629
     -2.857858     41.563164     41.563164     83.126327
     -2.847848     39.045622     39.045622     78.091244
     -2.837838     36.288824     36.288824     72.577647
     -2.827828     33.603664     33.603664     67.207329
     -2.817818     31.040531     31.040531     62.081062
     -2.807808     28.488609     28.488609     56.977219
     -2.797798     25.841128     25.841128     51.682256
     -2.787788     23.128830     23.128830     46.257661
     -2.777778     20.549385     20.549385     41.098769
     -2.767768     18.385778     18.385778     36.771557
     -2.757758     16.872616     16.872616     33.745232
     -2.747748     16.096424     16.096424     32.192847
     -2.737738     15.988914     15.988914     31.977829
     -2.727728     16.408156     16.408156     32.816311
     -2.717718     17.243092     17.243092     34.486183
     -2.707708     18.462269     18.462269     36.924538
     -2.697698     20.070078     20.070078     40.140157
     -2.687688     22.005774     22.005774     44.011548
     -2.677678     24.070306     24.070306     48.140611
     -2.667668     25.953694     25.953694     51.907388
     -2.657658     27.365393     27.365393     54.730786
     -2.647648     28.190814     28.190814     56.381627
     -2.637638     28.568801     28.568801     57.137603
     -2.627628     28.831421     28.831421     57.662842
     -2.617618     29.336668     29.336668     58.673335
     -2.607608     30.291668     30.291668     60.583336
     -2.597598     31.661719     31.661719     63.323437
     -2.587588     33.196505     33.196505     66.393009
     -2.577578     34.532188     34.532188     69.064375
     -2.567568     35.300134     35.300134     70.600268
     -2.557558     35.200691     35.200691     70.401382
     -2.547548     34.048117     34.048117     68.096235
     -2.537538     31.814264     31.814264     63.628529
     -2.527528     28.678428     28.678428     57.356857
     -2.517518     25.054166     25.054166     50.108331
     -2.507508     21.549763     21.549763     43.099526
     -2.497497     18.844130     18.844130     37.688260
     -2.487487     17.507025     17.507025     35.014050
     -2.477477     17.829045     17.829045     35.658091
     -2.467467     19.730930     19.730930     39.461860
     -2.457457     22.793182     22.793182     45.586364
     -2.447447     26.400428     26.400428     52.800855
     -2.437437     29.948609     29.948609     59.897219
     -2.427427     33.034073     33.034073     66.068147
     -2.417417     35.545164     35.545164     71.090327
     -2.407407     37.613646     37.613646     75.227292
     -2.397397     39.445024     39.445024     78.890047
     -2.387387     41.108364     41.108364     82.216729
     -2.377377     42.396105     42.396105     84.792209
     -2.367367     42.840142     42.840142     85.680284
     -2.357357     41.895329     41.895329     83.790658
     -2.347347     39.210221     39.210221     78.420441
     -2.337337     34.850473     34.850473     69.700946
     -2.327327     29.360113     29.360113     58.720225
     -2.317317     23.631194     23.631194     47.262388
     -2.307307     18.649753     18.649753     37.299506
     -2.297297     15.235566     15.235566     30.471132
     -2.287287     13.872745     13.872745     27.745490
     -2.277277     14.664310     14.664310     29.328620
     -2.267267     17.384099     17.384099     34.768198
     -2.257257     21.574364     21.574364     43.148729
     -2.247247     26.645982     26.645982     53.291965
     -2.237237     31.960551     31.960551     63.921101
     -2.227227     36.892227     36.892227     73.784453
     -2.217217     40.876600     40.876600     81.753201
     -2.207207     43.456620     43.456620     86.913240
     -2.197197     44.333894     44.333894     88.667788
     -2.187187     43.426063     43.426063     86.852126
     -2.177177     40.916142     40.916142     81.832284
     -2.167167     37.263391     37.263391     74.526781
     -2.157157     33.141402     33.141402     66.282805
     -2.147147     29.290556     29.290556     58.581111
     -2.137137     26.315645     26.315645     52.631290
     -2.127127     24.501229     24.501229     49.002458
     -2.117117     23.726352     23.726352     47.452704
     -2.107107     23.523769     23.523769     47.047537
     -2.097097     23.263885     23.263885     46.527771
     -2.087087     22.386771     22.386771     44.773543
     -2.077077     20.587696     20.587696     41.175392
     -2.067067     17.889402     17.889402     35.778804
     -2.057057     14.589333     14.589333     29.178666
     -2.047047     11.122612     11.122612     22.245224
     -2.037037      7.907800      7.907800     15.815599
     -2.027027      5.235044      5.235044     10.470088
     -2.017017      3.225265      3.225265      6.450531
     -2.007007      1.854031      1.854031      3.708062
     -1.996997      1.011737      1.011737      2.023474
     -1.986987      0.568828      0.568828      1.137657
     -1.976977      0.425553      0.425553      0.851107
     -1.966967      0.539455      0.539455      1.078909
     -1.956957      0.932076      0.932076      1.864152
     -1.946947      1.677558      1.677558      3.355116
     -1.936937      2.874093      2.874093      5.748185
     -1.926927      4.600313      4.600313      9.200625
     -1.916917      6.865087      6.865087     13.730174
     -1.906907      9.567394      9.567394     19.134788
     -1.896897     12.485641     12.485641     24.971281
     -1.886887     15.307789     15.307789     30.615577
     -1.876877     17.697380     17.697380     35.394761
     -1.866867     19.375339     19.375339     38.750678
     -1.856857     20.191606     20.191606     40.383213
     -1.846847     20.164826     20.164826     40.329651
     -1.836837     19.476745     19.476745     38.953489
     -1.826827     18.417484     18.417484     36.834967
     -1.816817     17.290997     17.290997     34.581994
     -1.806807     16.308689     16.308689     32.617377
     -1.796797     15.514628     15.514628     31.029256
     -1.786787     14.781850     14.781850     29.563700
     -1.776777     13.888411     13.888411     27.776822
     -1.766767     12.638427     12.638427     25.276855
     -1.756757     10.966503     10.966503     21.933006
     -1.746747      8.974349      8.974349     17.948698
     -1.736737      6.889614      6.889614     13.779228
     -1.726727      4.980197      4.980197      9.960393
     -1.716717      3.474448      3.474448      6.948896
     -1.706707      2.521847      2.521847      5.043693
     -1.696697      2.195870      2.195870      4.391740
     -1.686687      2.514548      2.514548      5.029096
     -1.676677      3.449466      3.449466      6.898933
     -1.666667      4.910323      4.910323      9.820646
     -1.656657      6.717373      6.717373     13.434747
     -1.646647      8.591972      8.591972     17.183944
     -1.636637     10.193533     10.193533     20.387066
     -1.626627     11.208022     11.208022     22.416044
