# EIG2DOS: Utility for SIESTA to obtain the electronic density of states
#  E. Artacho, Apr 1999, A. Garcia, Apr 2012
#  Nick R. Papior, Feb 2017
# ------------------------------------------
# Eigenvalues calculated from a non-polarized calculation
# Eigenvalues read from siesta.EIG
# Kpoint weights read from siesta.KP
# Using smearing parameter:   0.0500
# Using 1000 points in the energy range
# Selected bands: 1 to: 2981
# Emin, Emax in file for selected band(s):    -27.1139899    218.3597590
# Nbands, Nspin, Nk   =   2981     1     1
# E_F                 =    -4.2419 eV --> (shifted to ZERO)
# Broadening          =     0.0500 eV
#
#        E            N(up)  (=)   N(down)         Ntot
     -5.000000     33.693515     33.693515     67.387030
     -4.989990     38.001541     38.001541     76.003082
     -4.979980     41.787129     41.787129     83.574258
     -4.969970     44.404913     44.404913     88.809825
     -4.959960     45.382981     45.382981     90.765962
     -4.949950     44.567759     44.567759     89.135518
     -4.939940     42.176110     42.176110     84.352221
     -4.929930     38.748548     38.748548     77.497097
     -4.919920     35.040081     35.040081     70.080162
     -4.909910     31.893195     31.893195     63.786390
     -4.899900     30.111877     30.111877     60.223754
     -4.889890     30.325535     30.325535     60.651069
     -4.879880     32.831640     32.831640     65.663280
     -4.869870     37.444578     37.444578     74.889155
     -4.859860     43.425808     43.425808     86.851616
     -4.849850     49.578414     49.578414     99.156828
     -4.839840     54.530788     54.530788    109.061575
     -4.829830     57.133279     57.133279    114.266557
     -4.819820     56.811799     56.811799    113.623598
     -4.809810     53.723002     53.723002    107.446005
     -4.799800     48.645561     48.645561     97.291122
     -4.789790     42.669517     42.669517     85.339033
     -4.779780     36.833559     36.833559     73.667119
     -4.769770     31.860332     31.860332     63.720664
     -4.759760     28.064611     28.064611     56.129222
     -4.749750     25.415162     25.415162     50.830324
     -4.739740     23.673540     23.673540     47.347081
     -4.729730     22.530435     22.530435     45.060869
     -4.719720     21.693650     21.693650     43.387300
     -4.709710     20.921951     20.921951     41.843902
     -4.699700     20.026835     20.026835     40.053670
     -4.689690     18.874143     18.874143     37.748286
     -4.679680     17.409156     17.409156     34.818311
     -4.669670     15.706502     15.706502     31.413005
     -4.659660     14.020914     14.020914     28.041828
     -4.649650     12.801457     12.801457     25.602914
     -4.639640     12.638493     12.638493     25.276987
     -4.629630     14.135062     14.135062     28.270125
     -4.619620     17.722801     17.722801     35.445602
     -4.609610     23.470351     23.470351     46.940701
     -4.599600     30.954423     30.954423     61.908845
     -4.589590     39.267839     39.267839     78.535678
     -4.579580     47.206580     47.206580     94.413161
     -4.569570     53.604667     53.604667    107.209334
     -4.559560     57.700698     57.700698    115.401397
     -4.549550     59.377531     59.377531    118.755062
     -4.539540     59.157608     59.157608    118.315217
     -4.529530     57.949546     57.949546    115.899093
     -4.519520     56.663293     56.663293    113.326586
     -4.509510     55.869231     55.869231    111.738461
     -4.499499     55.640457     55.640457    111.280915
     -4.489489     55.616331     55.616331    111.232662
     -4.479479     55.222100     55.222100    110.444201
     -4.469469     53.926645     53.926645    107.853289
     -4.459459     51.432024     51.432024    102.864049
     -4.449449     47.742692     47.742692     95.485383
     -4.439439     43.123478     43.123478     86.246955
     -4.429429     37.996381     37.996381     75.992762
     -4.419419     32.835020     32.835020     65.670039
     -4.409409     28.095039     28.095039     56.190078
     -4.399399     24.182868     24.182868     48.365735
     -4.389389     21.435948     21.435948     42.871896
     -4.379379     20.084535     20.084535     40.169070
     -4.369369     20.191238     20.191238     40.382476
     -4.359359     21.599931     21.599931     43.199862
     -4.349349     23.940772     23.940772     47.881543
     -4.339339     26.716692     26.716692     53.433383
     -4.329329     29.450713     29.450713     58.901425
     -4.319319     31.834066     31.834066     63.668131
     -4.309309     33.808909     33.808909     67.617818
     -4.299299     35.548814     35.548814     71.097628
     -4.289289     37.344772     37.344772     74.689544
     -4.279279     39.440005     39.440005     78.880010
     -4.269269     41.872745     41.872745     83.745489
     -4.259259     44.385711     44.385711     88.771422
     -4.249249     46.447926     46.447926     92.895852
     -4.239239     47.404135     47.404135     94.808270
     -4.229229     46.716271     46.716271     93.432541
     -4.219219     44.205979     44.205979     88.411959
     -4.209209     40.183283     40.183283     80.366565
     -4.199199     35.383868     35.383868     70.767737
     -4.189189     30.728235     30.728235     61.456469
     -4.179179     27.009405     27.009405     54.018810
     -4.169169     24.653305     24.653305     49.306609
     -4.159159     23.653955     23.653955     47.307909
     -4.149149     23.692803     23.692803     47.385606
     -4.139139     24.363380     24.363380     48.726759
     -4.129129     25.382495     25.382495     50.764990
     -4.119119     26.687552     26.687552     53.375105
     -4.109109     28.379504     28.379504     56.759008
     -4.099099     30.546310     30.546310     61.092620
     -4.089089     33.064677     33.064677     66.129354
     -4.079079     35.500013     35.500013     71.000026
     -4.069069     37.185491     37.185491     74.370981
     -4.059059     37.468141     37.468141     74.936281
     -4.049049     36.009232     36.009232     72.018463
     -4.039039     32.981896     32.981896     65.963792
     -4.029029     29.056878     29.056878     58.113755
     -4.019019     25.181999     25.181999     50.363998
     -4.009009     22.269712     22.269712     44.539424
     -3.998999     20.942411     20.942411     41.884822
     -3.988989     21.432609     21.432609     42.865217
     -3.978979     23.638424     23.638424     47.276848
     -3.968969     27.259471     27.259471     54.518941
     -3.958959     31.924910     31.924910     63.849820
     -3.948949     37.267358     37.267358     74.534717
     -3.938939     42.951312     42.951312     85.902624
     -3.928929     48.689773     48.689773     97.379546
     -3.918919     54.265629     54.265629    108.531258
     -3.908909     59.539867     59.539867    119.079735
     -3.898899     64.415000     64.415000    128.830000
     -3.888889     68.747090     68.747090    137.494179
     -3.878879     72.246124     72.246124    144.492248
     -3.868869     74.434314     74.434314    148.868629
     -3.858859     74.717411     74.717411    149.434822
     -3.848849     72.568506     72.568506    145.137013
     -3.838839     67.758568     67.758568    135.517136
     -3.828829     60.531730     60.531730    121.063459
     -3.818819     51.638209     51.638209    103.276418
     -3.808809     42.196651     42.196651     84.393302
     -3.798799     33.429763     33.429763     66.859526
     -3.788789     26.366269     26.366269     52.732537
     -3.778779     21.607949     21.607949     43.215899
     -3.768769     19.227227     19.227227     38.454454
     -3.758759     18.810599     18.810599     37.621198
     -3.748749     19.619770     19.619770     39.239539
     -3.738739     20.817754     20.817754     41.635509
     -3.728729     21.700863     21.700863     43.401726
     -3.718719     21.882757     21.882757     43.765515
     -3.708709     21.388452     21.388452     42.776903
     -3.698699     20.633036     20.633036     41.266072
     -3.688689     20.283448     20.283448     40.566896
     -3.678679     21.031937     21.031937     42.063875
     -3.668669     23.342066     23.342066     46.684132
     -3.658659     27.249904     27.249904     54.499808
     -3.648649     32.298355     32.298355     64.596710
     -3.638639     37.641555     37.641555     75.283109
     -3.628629     42.288681     42.288681     84.577363
     -3.618619     45.393848     45.393848     90.787695
     -3.608609     46.478561     46.478561     92.957122
     -3.598599     45.510930     45.510930     91.021861
     -3.588589     42.838415     42.838415     85.676830
     -3.578579     39.031932     39.031932     78.063865
     -3.568569     34.714809     34.714809     69.429619
     -3.558559     30.424898     30.424898     60.849796
     -3.548549     26.525169     26.525169     53.050338
     -3.538539     23.164253     23.164253     46.328505
     -3.528529     20.291385     20.291385     40.582769
     -3.518519     17.728177     17.728177     35.456355
     -3.508509     15.280109     15.280109     30.560217
     -3.498498     12.846096     12.846096     25.692191
     -3.488488     10.479023     10.479023     20.958045
     -3.478478      8.372942      8.372942     16.745885
     -3.468468      6.788748      6.788748     13.577497
     -3.458458      5.954660      5.954660     11.909320
     -3.448448      5.979319      5.979319     11.958638
     -3.438438      6.802054      6.802054     13.604108
     -3.428428      8.191964      8.191964     16.383927
     -3.418418      9.800002      9.800002     19.600005
     -3.408408     11.258736     11.258736     22.517472
     -3.398398     12.306422     12.306422     24.612844
     -3.388388     12.892242     12.892242     25.784485
     -3.378378     13.215340     13.215340     26.430680
     -3.368368     13.672885     13.672885     27.345769
     -3.358358     14.732597     14.732597     29.465194
     -3.348348     16.777784     16.777784     33.555569
     -3.338338     19.977235     19.977235     39.954470
     -3.328328     24.210399     24.210399     48.420798
     -3.318318     29.052892     29.052892     58.105784
     -3.308308     33.819890     33.819890     67.639779
     -3.298298     37.673009     37.673009     75.346017
     -3.288288     39.795323     39.795323     79.590646
     -3.278278     39.609763     39.609763     79.219526
     -3.268268     36.971188     36.971188     73.942376
     -3.258258     32.242823     32.242823     64.485646
     -3.248248     26.205051     26.205051     52.410102
     -3.238238     19.825553     19.825553     39.651105
     -3.228228     13.991395     13.991395     27.982790
     -3.218218      9.316168      9.316168     18.632336
     -3.208208      6.083229      6.083229     12.166458
     -3.198198      4.309261      4.309261      8.618522
     -3.188188      3.860775      3.860775      7.721549
     -3.178178      4.553839      4.553839      9.107678
     -3.168168      6.202944      6.202944     12.405888
     -3.158158      8.627793      8.627793     17.255586
     -3.148148     11.649557     11.649557     23.299113
     -3.138138     15.100665     15.100665     30.201330
     -3.128128     18.845309     18.845309     37.690619
     -3.118118     22.785495     22.785495     45.570989
     -3.108108     26.831132     26.831132     53.662264
     -3.098098     30.843063     30.843063     61.686125
     -3.088088     34.590606     34.590606     69.181212
     -3.078078     37.767849     37.767849     75.535699
     -3.068068     40.074842     40.074842     80.149684
     -3.058058     41.317338     41.317338     82.634675
     -3.048048     41.456753     41.456753     82.913505
     -3.038038     40.575071     40.575071     81.150141
     -3.028028     38.785439     38.785439     77.570879
     -3.018018     36.164479     36.164479     72.328958
     -3.008008     32.767150     32.767150     65.534299
     -2.997998     28.719765     28.719765     57.439530
     -2.987988     24.323751     24.323751     48.647503
     -2.977978     20.090817     20.090817     40.181635
     -2.967968     16.673836     16.673836     33.347672
     -2.957958     14.718518     14.718518     29.437036
     -2.947948     14.695462     14.695462     29.390923
     -2.937938     16.767657     16.767657     33.535313
     -2.927928     20.724358     20.724358     41.448716
     -2.917918     25.993142     25.993142     51.986283
     -2.907908     31.733488     31.733488     63.466977
     -2.897898     37.005081     37.005081     74.010161
     -2.887888     40.981186     40.981186     81.962372
     -2.877878     43.148772     43.148772     86.297544
     -2.867868     43.423636     43.423636     86.847272
     -2.857858     42.129196     42.129196     84.258393
     -2.847848     39.840246     39.840246     79.680493
     -2.837838     37.154028     37.154028     74.308056
     -2.827828     34.486910     34.486910     68.973821
     -2.817818     31.983123     31.983123     63.966246
     -2.807808     29.565511     29.565511     59.131022
     -2.797798     27.086238     27.086238     54.172475
     -2.787788     24.486973     24.486973     48.973947
     -2.777778     21.880068     21.880068     43.760136
     -2.767768     19.512771     19.512771     39.025542
     -2.757758     17.646325     17.646325     35.292650
     -2.747748     16.430141     16.430141     32.860281
     -2.737738     15.849929     15.849929     31.699857
     -2.727728     15.778441     15.778441     31.556881
     -2.717718     16.089157     16.089157     32.178313
     -2.707708     16.750625     16.750625     33.501250
     -2.697698     17.831711     17.831711     35.663422
     -2.687688     19.410073     19.410073     38.820145
     -2.677678     21.447419     21.447419     42.894838
     -2.667668     23.725396     23.725396     47.450791
     -2.657658     25.900433     25.900433     51.800866
     -2.647648     27.655371     27.655371     55.310741
     -2.637638     28.855560     28.855560     57.711119
     -2.627628     29.608821     29.608821     59.217643
     -2.617618     30.190322     30.190322     60.380644
     -2.607608     30.881358     30.881358     61.762716
     -2.597598     31.821429     31.821429     63.642857
     -2.587588     32.951756     32.951756     65.903513
     -2.577578     34.058012     34.058012     68.116024
     -2.567568     34.859096     34.859096     69.718191
     -2.557558     35.082095     35.082095     70.164190
     -2.547548     34.505035     34.505035     69.010070
     -2.537538     32.992127     32.992127     65.984255
     -2.527528     30.548805     30.548805     61.097610
     -2.517518     27.386363     27.386363     54.772726
     -2.507508     23.947864     23.947864     47.895728
     -2.497497     20.847331     20.847331     41.694662
     -2.487487     18.717785     18.717785     37.435569
     -2.477477     18.019430     18.019430     36.038861
     -2.467467     18.889446     18.889446     37.778892
     -2.457457     21.101882     21.101882     42.203763
     -2.447447     24.159178     24.159178     48.318355
     -2.437437     27.479483     27.479483     54.958966
     -2.427427     30.601277     30.601277     61.202554
     -2.417417     33.316813     33.316813     66.633627
     -2.407407     35.674806     35.674806     71.349612
     -2.397397     37.851049     37.851049     75.702099
     -2.387387     39.949205     39.949205     79.898409
     -2.377377     41.833255     41.833255     83.666509
     -2.367367     43.086125     43.086125     86.172249
     -2.357357     43.133101     43.133101     86.266202
     -2.347347     41.486170     41.486170     82.972339
     -2.337337     37.997672     37.997672     75.995344
     -2.327327     32.999200     32.999200     65.998400
     -2.317317     27.256406     27.256406     54.512813
     -2.307307     21.762120     21.762120     43.524240
     -2.297297     17.463758     17.463758     34.927517
     -2.287287     15.035791     15.035791     30.071583
     -2.277277     14.765597     14.765597     29.531194
     -2.267267     16.558366     16.558366     33.116733
     -2.257257     20.022778     20.022778     40.045556
     -2.247247     24.588411     24.588411     49.176822
     -2.237237     29.617677     29.617677     59.235353
     -2.227227     34.492182     34.492182     68.984365
     -2.217217     38.667476     38.667476     77.334953
     -2.207207     41.701598     41.701598     83.403196
     -2.197197     43.272674     43.272674     86.545348
     -2.187187     43.203708     43.203708     86.407416
     -2.177177     41.501638     41.501638     83.003276
     -2.167167     38.393980     38.393980     76.787960
     -2.157157     34.325487     34.325487     68.650974
     -2.147147     29.881020     29.881020     59.762040
     -2.137137     25.637278     25.637278     51.274557
     -2.127127     21.996132     21.996132     43.992264
     -2.117117     19.078794     19.078794     38.157588
     -2.107107     16.737251     16.737251     33.474503
     -2.097097     14.676912     14.676912     29.353823
     -2.087087     12.623340     12.623340     25.246680
     -2.077077     10.447187     10.447187     20.894374
     -2.067067      8.194582      8.194582     16.389164
     -2.057057      6.028774      6.028774     12.057548
     -2.047047      4.132803      4.132803      8.265607
     -2.037037      2.629483      2.629483      5.258965
     -2.027027      1.549669      1.549669      3.099339
     -2.017017      0.846561      0.846561      1.693122
     -2.007007      0.433631      0.433631      0.867263
     -1.996997      0.222901      0.222901      0.445801
     -1.986987      0.151103      0.151103      0.302206
     -1.976977      0.192903      0.192903      0.385807
     -1.966967      0.365808      0.365808      0.731617
     -1.956957      0.730098      0.730098      1.460195
     -1.946947      1.382349      1.382349      2.764698
     -1.936937      2.437534      2.437534      4.875069
     -1.926927      3.996059      3.996059      7.992119
     -1.916917      6.099685      6.099685     12.199369
     -1.906907      8.690664      8.690664     17.381328
     -1.896897     11.594659     11.594659     23.189318
     -1.886887     14.543447     14.543447     29.086895
     -1.876877     17.237985     17.237985     34.475970
     -1.866867     19.433622     19.433622     38.867245
     -1.856857     21.017287     21.017287     42.034574
     -1.846847     22.046083     22.046083     44.092167
     -1.836837     22.726390     22.726390     45.452779
     -1.826827     23.329476     23.329476     46.658952
     -1.816817     24.063679     24.063679     48.127358
     -1.806807     24.950350     24.950350     49.900701
     -1.796797     25.766255     25.766255     51.532509
     -1.786787     26.098697     26.098697     52.197394
     -1.776777     25.506993     25.506993     51.013987
     -1.766767     23.720950     23.720950     47.441901
     -1.756757     20.777363     20.777363     41.554726
     -1.746747     17.025257     17.025257     34.050514
     -1.736737     13.003275     13.003275     26.006550
     -1.726727      9.259744      9.259744     18.519488
     -1.716717      6.205250      6.205250     12.410500
     -1.706707      4.053471      4.053471      8.106942
     -1.696697      2.848496      2.848496      5.696993
     -1.686687      2.533925      2.533925      5.067851
     -1.676677      3.010743      3.010743      6.021486
     -1.666667      4.153181      4.153181      8.306362
     -1.656657      5.786351      5.786351     11.572702
     -1.646647      7.657104      7.657104     15.314208
     -1.636637      9.437077      9.437077     18.874154
     -1.626627     10.780316     10.780316     21.560633
