# EIG2DOS: Utility for SIESTA to obtain the electronic density of states
#  E. Artacho, Apr 1999, A. Garcia, Apr 2012
#  Nick R. Papior, Feb 2017
# ------------------------------------------
# Eigenvalues calculated from a non-polarized calculation
# Eigenvalues read from siesta.EIG
# Kpoint weights read from siesta.KP
# Using smearing parameter:   0.0500
# Using 1000 points in the energy range
# Selected bands: 1 to: 2981
# Emin, Emax in file for selected band(s):    -27.0336439    218.3075690
# Nbands, Nspin, Nk   =   2981     1     1
# E_F                 =    -4.3017 eV --> (shifted to ZERO)
# Broadening          =     0.0500 eV
#
#        E            N(up)  (=)   N(down)         Ntot
     -5.000000     43.907620     43.907620     87.815239
     -4.989990     48.435291     48.435291     96.870583
     -4.979980     51.538939     51.538939    103.077878
     -4.969970     52.795725     52.795725    105.591450
     -4.959960     52.076927     52.076927    104.153853
     -4.949950     49.583145     49.583145     99.166291
     -4.939940     45.792108     45.792108     91.584216
     -4.929930     41.356019     41.356019     82.712038
     -4.919920     37.000382     37.000382     74.000763
     -4.909910     33.454371     33.454371     66.908743
     -4.899900     31.400371     31.400371     62.800742
     -4.889890     31.398719     31.398719     62.797439
     -4.879880     33.752416     33.752416     67.504832
     -4.869870     38.331131     38.331131     76.662262
     -4.859860     44.443172     44.443172     88.886345
     -4.849850     50.872244     50.872244    101.744488
     -4.839840     56.141697     56.141697    112.283393
     -4.829830     58.947035     58.947035    117.894069
     -4.819820     58.581544     58.581544    117.163089
     -4.809810     55.155378     55.155378    110.310756
     -4.799800     49.504689     49.504689     99.009378
     -4.789790     42.847705     42.847705     85.695411
     -4.779780     36.364998     36.364998     72.729995
     -4.769770     30.889212     30.889212     61.778424
     -4.759760     26.796197     26.796197     53.592393
     -4.749750     24.071548     24.071548     48.143096
     -4.739740     22.459513     22.459513     44.919026
     -4.729730     21.606103     21.606103     43.212207
     -4.719720     21.153549     21.153549     42.307097
     -4.709710     20.786180     20.786180     41.572361
     -4.699700     20.248630     20.248630     40.497259
     -4.689690     19.359688     19.359688     38.719375
     -4.679680     18.037871     18.037871     36.075743
     -4.669670     16.340987     16.340987     32.681973
     -4.659660     14.504961     14.504961     29.009921
     -4.649650     12.955286     12.955286     25.910571
     -4.639640     12.265632     12.265632     24.531263
     -4.629630     13.052361     13.052361     26.104722
     -4.619620     15.814033     15.814033     31.628067
     -4.609610     20.746775     20.746775     41.493549
     -4.599600     27.588557     27.588557     55.177114
     -4.589590     35.561561     35.561561     71.123122
     -4.579580     43.474427     43.474427     86.948855
     -4.569570     49.998817     49.998817     99.997635
     -4.559560     54.054618     54.054618    108.109236
     -4.549550     55.165174     55.165174    110.330348
     -4.539540     53.628813     53.628813    107.257625
     -4.529530     50.418330     50.418330    100.836659
     -4.519520     46.838428     46.838428     93.676857
     -4.509510     44.079121     44.079121     88.158241
     -4.499499     42.843172     42.843172     85.686343
     -4.489489     43.181277     43.181277     86.362553
     -4.479479     44.570092     44.570092     89.140185
     -4.469469     46.169307     46.169307     92.338615
     -4.459459     47.139067     47.139067     94.278133
     -4.449449     46.902274     46.902274     93.804547
     -4.439439     45.281531     45.281531     90.563061
     -4.429429     42.497769     42.497769     84.995539
     -4.419419     39.061726     39.061726     78.123453
     -4.409409     35.609736     35.609736     71.219472
     -4.399399     32.734837     32.734837     65.469674
     -4.389389     30.852252     30.852252     61.704504
     -4.379379     30.123301     30.123301     60.246603
     -4.369369     30.447306     30.447306     60.894613
     -4.359359     31.517160     31.517160     63.034320
     -4.349349     32.920975     32.920975     65.841951
     -4.339339     34.261857     34.261857     68.523713
     -4.329329     35.263820     35.263820     70.527640
     -4.319319     35.836483     35.836483     71.672966
     -4.309309     36.083662     36.083662     72.167324
     -4.299299     36.257415     36.257415     72.514831
     -4.289289     36.672703     36.672703     73.345406
     -4.279279     37.603409     37.603409     75.206818
     -4.269269     39.179338     39.179338     78.358675
     -4.259259     41.304167     41.304167     82.608335
     -4.249249     43.621740     43.621740     87.243479
     -4.239239     45.563912     45.563912     91.127825
     -4.229229     46.497705     46.497705     92.995410
     -4.219219     45.942972     45.942972     91.885944
     -4.209209     43.775710     43.775710     87.551420
     -4.199199     40.311397     40.311397     80.622794
     -4.189189     36.208658     36.208658     72.417316
     -4.179179     32.228344     32.228344     64.456687
     -4.169169     28.965748     28.965748     57.931496
     -4.159159     26.686981     26.686981     53.373962
     -4.149149     25.336759     25.336759     50.673519
     -4.139139     24.689239     24.689239     49.378479
     -4.129129     24.544504     24.544504     49.089007
     -4.119119     24.861999     24.861999     49.723998
     -4.109109     25.762776     25.762776     51.525552
     -4.099099     27.400070     27.400070     54.800141
     -4.089089     29.766017     29.766017     59.532035
     -4.079079     32.544778     32.544778     65.089556
     -4.069069     35.113827     35.113827     70.227655
     -4.059059     36.726301     36.726301     73.452603
     -4.049049     36.805021     36.805021     73.610041
     -4.039039     35.203000     35.203000     70.406000
     -4.029029     32.291245     32.291245     64.582489
     -4.019019     28.827243     28.827243     57.654485
     -4.009009     25.679565     25.679565     51.359130
     -3.998999     23.555092     23.555092     47.110183
     -3.988989     22.852190     22.852190     45.704379
     -3.978979     23.669948     23.669948     47.339896
     -3.968969     25.910706     25.910706     51.821412
     -3.958959     29.381794     29.381794     58.763588
     -3.948949     33.841697     33.841697     67.683394
     -3.938939     39.002462     39.002462     78.004923
     -3.928929     44.537529     44.537529     89.075058
     -3.918919     50.127105     50.127105    100.254210
     -3.908909     55.523375     55.523375    111.046749
     -3.898899     60.581608     60.581608    121.163216
     -3.888889     65.213219     65.213219    130.426438
     -3.878879     69.268693     69.268693    138.537385
     -3.868869     72.416697     72.416697    144.833393
     -3.858859     74.109528     74.109528    148.219055
     -3.848849     73.693181     73.693181    147.386362
     -3.838839     70.644665     70.644665    141.289330
     -3.828829     64.840108     64.840108    129.680215
     -3.818819     56.722753     56.722753    113.445506
     -3.808809     47.275819     47.275819     94.551638
     -3.798799     37.794790     37.794790     75.589581
     -3.788789     29.546262     29.546262     59.092524
     -3.778779     23.444631     23.444631     46.889262
     -3.768769     19.856383     19.856383     39.712766
     -3.758759     18.577598     18.577598     37.155197
     -3.748749     18.964639     18.964639     37.929277
     -3.738739     20.159017     20.159017     40.318034
     -3.728729     21.338642     21.338642     42.677284
     -3.718719     21.936138     21.936138     43.872276
     -3.708709     21.778369     21.778369     43.556738
     -3.698699     21.115958     21.115958     42.231915
     -3.688689     20.530910     20.530910     41.061820
     -3.678679     20.737939     20.737939     41.475878
     -3.668669     22.328666     22.328666     44.657331
     -3.658659     25.537009     25.537009     51.074019
     -3.648649     30.111821     30.111821     60.223642
     -3.638639     35.354700     35.354700     70.709401
     -3.628629     40.318597     40.318597     80.637195
     -3.618619     44.091910     44.091910     88.183820
     -3.608609     46.053492     46.053492     92.106985
     -3.598599     46.003285     46.003285     92.006569
     -3.588589     44.140752     44.140752     88.281505
     -3.578579     40.934682     40.934682     81.869363
     -3.568569     36.959110     36.959110     73.918221
     -3.558559     32.752850     32.752850     65.505700
     -3.548549     28.723403     28.723403     57.446807
     -3.538539     25.095013     25.095013     50.190026
     -3.528529     21.902644     21.902644     43.805288
     -3.518519     19.038338     19.038338     38.076675
     -3.508509     16.343514     16.343514     32.687028
     -3.498498     13.715118     13.715118     27.430235
     -3.488488     11.179098     11.179098     22.358196
     -3.478478      8.898415      8.898415     17.796831
     -3.468468      7.116298      7.116298     14.232596
     -3.458458      6.064625      6.064625     12.129250
     -3.448448      5.875133      5.875133     11.750266
     -3.438438      6.521107      6.521107     13.042214
     -3.428428      7.804067      7.804067     15.608135
     -3.418418      9.391909      9.391909     18.783818
     -3.408408     10.906908     10.906908     21.813816
     -3.398398     12.045835     12.045835     24.091670
     -3.388388     12.693365     12.693365     25.386730
     -3.378378     12.980298     12.980298     25.960596
     -3.368368     13.254367     13.254367     26.508735
     -3.358358     13.969805     13.969805     27.939610
     -3.348348     15.539134     15.539134     31.078268
     -3.338338     18.201888     18.201888     36.403775
     -3.328328     21.945018     21.945018     43.890036
     -3.318318     26.478726     26.478726     52.957452
     -3.308308     31.256839     31.256839     62.513678
     -3.298298     35.541147     35.541147     71.082295
     -3.288288     38.523837     38.523837     77.047674
     -3.278278     39.511225     39.511225     79.022450
     -3.268268     38.129244     38.129244     76.258489
     -3.258258     34.468228     34.468228     68.936456
     -3.248248     29.086170     29.086170     58.172340
     -3.238238     22.849917     22.849917     45.699834
     -3.228228     16.677342     16.677342     33.354684
     -3.218218     11.292783     11.292783     22.585566
     -3.208208      7.091034      7.091034     14.182069
     -3.198198      4.139653      4.139653      8.279307
     -3.188188      2.282763      2.282763      4.565526
     -3.178178      1.279583      1.279583      2.559165
     -3.168168      0.921864      0.921864      1.843728
     -3.158158      1.104593      1.104593      2.209185
     -3.148148      1.848963      1.848963      3.697927
     -3.138138      3.285291      3.285291      6.570582
     -3.128128      5.601445      5.601445     11.202891
     -3.118118      8.961780      8.961780     17.923560
     -3.108108     13.410183     13.410183     26.820366
     -3.098098     18.786216     18.786216     37.572432
     -3.088088     24.692875     24.692875     49.385749
     -3.078078     30.544520     30.544520     61.089040
     -3.068068     35.690916     35.690916     71.381832
     -3.058058     39.572864     39.572864     79.145729
     -3.048048     41.843538     41.843538     83.687076
     -3.038038     42.406891     42.406891     84.813781
     -3.028028     41.373897     41.373897     82.747794
     -3.018018     38.985721     38.985721     77.971442
     -3.008008     35.563958     35.563958     71.127915
     -2.997998     31.513140     31.513140     63.026280
     -2.987988     27.347683     27.347683     54.695365
     -2.977978     23.686905     23.686905     47.373810
     -2.967968     21.179298     21.179298     42.358596
     -2.957958     20.365415     20.365415     40.730829
     -2.947948     21.531044     21.531044     43.062087
     -2.937938     24.611274     24.611274     49.222549
     -2.927928     29.181854     29.181854     58.363708
     -2.917918     34.537881     34.537881     69.075763
     -2.907908     39.833572     39.833572     79.667144
     -2.897898     44.248340     44.248340     88.496679
     -2.887888     47.146713     47.146713     94.293426
     -2.877878     48.201983     48.201983     96.403967
     -2.867868     47.453506     47.453506     94.907011
     -2.857858     45.273571     45.273571     90.547142
     -2.847848     42.241313     42.241313     84.482625
     -2.837838     38.956532     38.956532     77.913063
     -2.827828     35.858661     35.858661     71.717322
     -2.817818     33.122922     33.122922     66.245845
     -2.807808     30.676029     30.676029     61.352059
     -2.797798     28.318346     28.318346     56.636692
     -2.787788     25.886875     25.886875     51.773750
     -2.777778     23.373794     23.373794     46.747588
     -2.767768     20.941456     20.941456     41.882913
     -2.757758     18.833860     18.833860     37.667721
     -2.747748     17.243744     17.243744     34.487487
     -2.737738     16.218958     16.218958     32.437916
     -2.727728     15.665785     15.665785     31.331570
     -2.717718     15.444518     15.444518     30.889037
     -2.707708     15.491910     15.491910     30.983821
     -2.697698     15.885161     15.885161     31.770323
     -2.687688     16.798051     16.798051     33.596102
     -2.677678     18.370626     18.370626     36.741252
     -2.667668     20.574331     20.574331     41.148662
     -2.657658     23.163619     23.163619     46.327238
     -2.647648     25.753844     25.753844     51.507688
     -2.637638     27.984720     27.984720     55.969440
     -2.627628     29.672109     29.672109     59.344218
     -2.617618     30.858176     30.858176     61.716352
     -2.607608     31.737424     31.737424     63.474848
     -2.597598     32.515965     32.515965     65.031929
     -2.587588     33.295718     33.295718     66.591435
     -2.577578     34.041961     34.041961     68.083921
     -2.567568     34.624035     34.624035     69.248070
     -2.557558     34.874031     34.874031     69.748063
     -2.547548     34.620602     34.620602     69.241203
     -2.537538     33.704014     33.704014     67.408028
     -2.527528     32.010955     32.010955     64.021909
     -2.517518     29.549354     29.549354     59.098707
     -2.507508     26.531706     26.531706     53.063412
     -2.497497     23.400378     23.400378     46.800756
     -2.487487     20.746345     20.746345     41.492689
     -2.477477     19.134270     19.134270     38.268541
     -2.467467     18.907948     18.907948     37.815896
     -2.457457     20.069598     20.069598     40.139196
     -2.447447     22.293766     22.293766     44.587531
     -2.437437     25.071916     25.071916     50.143832
     -2.427427     27.921315     27.921315     55.842630
     -2.417417     30.560829     30.560829     61.121659
     -2.407407     32.971003     32.971003     65.942006
     -2.397397     35.310297     35.310297     70.620593
     -2.387387     37.729383     37.729383     75.458766
     -2.377377     40.177951     40.177951     80.355903
     -2.367367     42.307343     42.307343     84.614687
     -2.357357     43.531116     43.531116     87.062233
     -2.347347     43.231346     43.231346     86.462693
     -2.337337     41.025366     41.025366     82.050733
     -2.327327     36.972694     36.972694     73.945389
     -2.317317     31.625871     31.625871     63.251742
     -2.307307     25.901376     25.901376     51.802751
     -2.297297     20.828303     20.828303     41.656606
     -2.287287     17.278574     17.278574     34.557148
     -2.277277     15.773352     15.773352     31.546705
     -2.267267     16.412016     16.412016     32.824032
     -2.257257     18.916878     18.916878     37.833756
     -2.247247     22.754072     22.754072     45.508143
     -2.237237     27.281585     27.281585     54.563171
     -2.227227     31.879922     31.879922     63.759844
     -2.217217     36.033131     36.033131     72.066261
     -2.207207     39.349202     39.349202     78.698404
     -2.197197     41.537482     41.537482     83.074965
     -2.187187     42.383832     42.383832     84.767664
     -2.177177     41.763014     41.763014     83.526029
     -2.167167     39.695464     39.695464     79.390928
     -2.157157     36.409974     36.409974     72.819948
     -2.147147     32.349720     32.349720     64.699441
     -2.137137     28.081478     28.081478     56.162955
     -2.127127     24.128313     24.128313     48.256627
     -2.117117     20.803424     20.803424     41.606848
     -2.107107     18.133298     18.133298     36.266597
     -2.097097     15.910737     15.910737     31.821474
     -2.087087     13.843764     13.843764     27.687527
     -2.077077     11.715647     11.715647     23.431295
     -2.067067      9.475442      9.475442     18.950884
     -2.057057      7.228766      7.228766     14.457532
     -2.047047      5.156849      5.156849     10.313698
     -2.037037      3.421605      3.421605      6.843210
     -2.027027      2.105137      2.105137      4.210274
     -2.017017      1.200002      1.200002      2.400003
     -2.007007      0.637045      0.637045      1.274089
     -1.996997      0.326044      0.326044      0.652088
     -1.986987      0.189886      0.189886      0.379772
     -1.976977      0.185273      0.185273      0.370546
     -1.966967      0.312050      0.312050      0.624099
     -1.956957      0.615180      0.615180      1.230359
     -1.946947      1.179941      1.179941      2.359882
     -1.936937      2.116642      2.116642      4.233285
     -1.926927      3.530753      3.530753      7.061507
     -1.916917      5.480116      5.480116     10.960232
     -1.906907      7.930802      7.930802     15.861603
     -1.896897     10.730744     10.730744     21.461489
     -1.886887     13.618417     13.618417     27.236834
     -1.876877     16.270854     16.270854     32.541707
     -1.866867     18.378037     18.378037     36.756074
     -1.856857     19.719560     19.719560     39.439119
     -1.846847     20.219720     20.219720     40.439440
     -1.836837     19.965099     19.965099     39.930199
     -1.826827     19.177434     19.177434     38.354868
     -1.816817     18.143609     18.143609     36.287217
     -1.806807     17.118309     17.118309     34.236618
     -1.796797     16.232568     16.232568     32.465135
     -1.786787     15.450504     15.450504     30.901008
     -1.776777     14.601955     14.601955     29.203910
     -1.766767     13.481012     13.481012     26.962024
     -1.756757     11.962060     11.962060     23.924121
     -1.746747     10.074082     10.074082     20.148164
     -1.736737      8.000368      8.000368     16.000735
     -1.726727      6.015850      6.015850     12.031700
     -1.716717      4.406300      4.406300      8.812600
     -1.706707      3.412656      3.412656      6.825311
     -1.696697      3.215096      3.215096      6.430192
     -1.686687      3.938148      3.938148      7.876296
     -1.676677      5.643296      5.643296     11.286592
     -1.666667      8.288311      8.288311     16.576623
     -1.656657     11.664755     11.664755     23.329510
     -1.646647     15.356404     15.356404     30.712808
     -1.636637     18.769217     18.769217     37.538434
     -1.626627     21.256272     21.256272     42.512543
