# EIG2DOS: Utility for SIESTA to obtain the electronic density of states
#  E. Artacho, Apr 1999, A. Garcia, Apr 2012
#  Nick R. Papior, Feb 2017
# ------------------------------------------
# Eigenvalues calculated from a non-polarized calculation
# Eigenvalues read from siesta.EIG
# Kpoint weights read from siesta.KP
# Using smearing parameter:   0.0500
# Using 1000 points in the energy range
# Selected bands: 1 to: 2981
# Emin, Emax in file for selected band(s):    -27.2043916    218.3534870
# Nbands, Nspin, Nk   =   2981     1     1
# E_F                 =    -4.2495 eV --> (shifted to ZERO)
# Broadening          =     0.0500 eV
#
#        E            N(up)  (=)   N(down)         Ntot
     -5.000000     32.631719     32.631719     65.263437
     -4.989990     36.774397     36.774397     73.548793
     -4.979980     40.605621     40.605621     81.211241
     -4.969970     43.493842     43.493842     86.987684
     -4.959960     44.916492     44.916492     89.832983
     -4.949950     44.616852     44.616852     89.233703
     -4.939940     42.690488     42.690488     85.380975
     -4.929930     39.576205     39.576205     79.152411
     -4.919920     35.970619     35.970619     71.941238
     -4.909910     32.706048     32.706048     65.412097
     -4.899900     30.618450     30.618450     61.236899
     -4.889890     30.404494     30.404494     60.808987
     -4.879880     32.458644     32.458644     64.917288
     -4.869870     36.710217     36.710217     73.420433
     -4.859860     42.527710     42.527710     85.055419
     -4.849850     48.776717     48.776717     97.553433
     -4.839840     54.072931     54.072931    108.145863
     -4.829830     57.174276     57.174276    114.348553
     -4.819820     57.364523     57.364523    114.729045
     -4.809810     54.661300     54.661300    109.322600
     -4.799800     49.757427     49.757427     99.514853
     -4.789790     43.734199     43.734199     87.468399
     -4.779780     37.689267     37.689267     75.378534
     -4.769770     32.439740     32.439740     64.879481
     -4.759760     28.393841     28.393841     56.787682
     -4.749750     25.586067     25.586067     51.172134
     -4.739740     23.803937     23.803937     47.607873
     -4.729730     22.725048     22.725048     45.450097
     -4.719720     22.015245     22.015245     44.030491
     -4.709710     21.378989     21.378989     42.757977
     -4.699700     20.579692     20.579692     41.159383
     -4.689690     19.455802     19.455802     38.911604
     -4.679680     17.951062     17.951062     35.902123
     -4.669670     16.159793     16.159793     32.319586
     -4.659660     14.368529     14.368529     28.737059
     -4.649650     13.064423     13.064423     26.128846
     -4.639640     12.884686     12.884686     25.769372
     -4.629630     14.496706     14.496706     28.993413
     -4.619620     18.418832     18.418832     36.837664
     -4.609610     24.815047     24.815047     49.630094
     -4.599600     33.323075     33.323075     66.646150
     -4.589590     42.995640     42.995640     85.991281
     -4.579580     52.426039     52.426039    104.852077
     -4.569570     60.072718     60.072718    120.145437
     -4.559560     64.703659     64.703659    129.407318
     -4.549550     65.797835     65.797835    131.595671
     -4.539540     63.726693     63.726693    127.453387
     -4.529530     59.618408     59.618408    119.236815
     -4.519520     54.948196     54.948196    109.896392
     -4.509510     51.023783     51.023783    102.047565
     -4.499499     48.577518     48.577518     97.155037
     -4.489489     47.616174     47.616174     95.232348
     -4.479479     47.554230     47.554230     95.108461
     -4.469469     47.534967     47.534967     95.069935
     -4.459459     46.783049     46.783049     93.566098
     -4.449449     44.850805     44.850805     89.701610
     -4.439439     41.694973     41.694973     83.389947
     -4.429429     37.605969     37.605969     75.211938
     -4.419419     33.065548     33.065548     66.131095
     -4.409409     28.611441     28.611441     57.222881
     -4.399399     24.748865     24.748865     49.497731
     -4.389389     21.900592     21.900592     43.801184
     -4.379379     20.363504     20.363504     40.727008
     -4.369369     20.253819     20.253819     40.507638
     -4.359359     21.458873     21.458873     42.917745
     -4.349349     23.637192     23.637192     47.274383
     -4.339339     26.296903     26.296903     52.593805
     -4.329329     28.940833     28.940833     57.881666
     -4.319319     31.224223     31.224223     62.448446
     -4.309309     33.057288     33.057288     66.114576
     -4.299299     34.607420     34.607420     69.214841
     -4.289289     36.198264     36.198264     72.396529
     -4.279279     38.141570     38.141570     76.283141
     -4.269269     40.560014     40.560014     81.120027
     -4.259259     43.265494     43.265494     86.530988
     -4.249249     45.749363     45.749363     91.498726
     -4.239239     47.312566     47.312566     94.625133
     -4.229229     47.310288     47.310288     94.620576
     -4.219219     45.422513     45.422513     90.845027
     -4.209209     41.826883     41.826883     83.653766
     -4.199199     37.178725     37.178725     74.357451
     -4.189189     32.393231     32.393231     64.786461
     -4.179179     28.327557     28.327557     56.655113
     -4.169169     25.511810     25.511810     51.023621
     -4.159159     24.045650     24.045650     48.091300
     -4.149149     23.685363     23.685363     47.370726
     -4.139139     24.052528     24.052528     48.105056
     -4.129129     24.848689     24.848689     49.697379
     -4.119119     25.973543     25.973543     51.947085
     -4.109109     27.498951     27.498951     54.997903
     -4.099099     29.520358     29.520358     59.040716
     -4.089089     31.966949     31.966949     63.933898
     -4.079079     34.480271     34.480271     68.960542
     -4.069069     36.448450     36.448450     72.896900
     -4.059059     37.207972     37.207972     74.415943
     -4.049049     36.328986     36.328986     72.657973
     -4.039039     33.840565     33.840565     67.681131
     -4.029029     30.273712     30.273712     60.547423
     -4.019019     26.495846     26.495846     52.991691
     -4.009009     23.421929     23.421929     46.843858
     -3.998999     21.744055     21.744055     43.488110
     -3.988989     21.792219     21.792219     43.584439
     -3.978979     23.551807     23.551807     47.103614
     -3.968969     26.779866     26.779866     53.559733
     -3.958959     31.132670     31.132670     62.265340
     -3.948949     36.247723     36.247723     72.495446
     -3.938939     41.778721     41.778721     83.557443
     -3.928929     47.415622     47.415622     94.831245
     -3.918919     52.912490     52.912490    105.824980
     -3.908909     58.110634     58.110634    116.221267
     -3.898899     62.921930     62.921930    125.843859
     -3.888889     67.252675     67.252675    134.505351
     -3.878879     70.893621     70.893621    141.787243
     -3.868869     73.442591     73.442591    146.885183
     -3.858859     74.328829     74.328829    148.657657
     -3.848849     72.964207     72.964207    145.928415
     -3.838839     68.977512     68.977512    137.955025
     -3.828829     62.433059     62.433059    124.866119
     -3.818819     53.927416     53.927416    107.854832
     -3.808809     44.505636     44.505636     89.011272
     -3.798799     35.417322     35.417322     70.834645
     -3.788789     27.801100     27.801100     55.602201
     -3.778779     22.409746     22.409746     44.819493
     -3.768769     19.461576     19.461576     38.923152
     -3.758759     18.648621     18.648621     37.297241
     -3.748749     19.279268     19.279268     38.558536
     -3.738739     20.501695     20.501695     41.003390
     -3.728729     21.545863     21.545863     43.091726
     -3.718719     21.927355     21.927355     43.854711
     -3.708709     21.567857     21.567857     43.135714
     -3.698699     20.802627     20.802627     41.605254
     -3.688689     20.266925     20.266925     40.533851
     -3.678679     20.682514     20.682514     41.365028
     -3.668669     22.598627     22.598627     45.197254
     -3.658659     26.168271     26.168271     52.336541
     -3.648649     31.043907     31.043907     62.087815
     -3.638639     36.443570     36.443570     72.887140
     -3.628629     41.373245     41.373245     82.746490
     -3.618619     44.921919     44.921919     89.843838
     -3.608609     46.512063     46.512063     93.024127
     -3.598599     46.014426     46.014426     92.028853
     -3.588589     43.707017     43.707017     87.414033
     -3.578579     40.128070     40.128070     80.256140
     -3.568569     35.900106     35.900106     71.800213
     -3.558559     31.582437     31.582437     63.164874
     -3.548549     27.573348     27.573348     55.146695
     -3.538539     24.063179     24.063179     48.126358
     -3.528529     21.040202     21.040202     42.080403
     -3.518519     18.352190     18.352190     36.704380
     -3.508509     15.811035     15.811035     31.622071
     -3.498498     13.303238     13.303238     26.606477
     -3.488488     10.859245     10.859245     21.718489
     -3.478478      8.652775      8.652775     17.305550
     -3.468468      6.936244      6.936244     13.872488
     -3.458458      5.945445      5.945445     11.890889
     -3.448448      5.811317      5.811317     11.622634
     -3.438438      6.504525      6.504525     13.009049
     -3.428428      7.825319      7.825319     15.650638
     -3.418418      9.443998      9.443998     18.887997
     -3.408408     10.989856     10.989856     21.979711
     -3.398398     12.170437     12.170437     24.340874
     -3.388388     12.882005     12.882005     25.764010
     -3.378378     13.263266     13.263266     26.526533
     -3.368368     13.661926     13.661926     27.323851
     -3.358358     14.522552     14.522552     29.045105
     -3.348348     16.240315     16.240315     32.480629
     -3.338338     19.033840     19.033840     38.067680
     -3.328328     22.869024     22.869024     45.738047
     -3.318318     27.436323     27.436323     54.872646
     -3.308308     32.173851     32.173851     64.347702
     -3.298298     36.341544     36.341544     72.683088
     -3.288288     39.162611     39.162611     78.325221
     -3.278278     40.027652     40.027652     80.055303
     -3.268268     38.705229     38.705229     77.410458
     -3.258258     35.460818     35.460818     70.921636
     -3.248248     31.001388     31.001388     62.002776
     -3.238238     26.242832     26.242832     52.485665
     -3.228228     21.995434     21.995434     43.990868
     -3.218218     18.711949     18.711949     37.423897
     -3.208208     16.409829     16.409829     32.819658
     -3.198198     14.786350     14.786350     29.572699
     -3.188188     13.451672     13.451672     26.903345
     -3.178178     12.161618     12.161618     24.323237
     -3.168168     10.952737     10.952737     21.905475
     -3.158158     10.142310     10.142310     20.284619
     -3.148148     10.215135     10.215135     20.430271
     -3.138138     11.649920     11.649920     23.299839
     -3.128128     14.739618     14.739618     29.479236
     -3.118118     19.449715     19.449715     38.899431
     -3.108108     25.351069     25.351069     50.702137
     -3.098098     31.657710     31.657710     63.315421
     -3.088088     37.380775     37.380775     74.761550
     -3.078078     41.570272     41.570272     83.140544
     -3.068068     43.570757     43.570757     87.141513
     -3.058058     43.194379     43.194379     86.388759
     -3.048048     40.738379     40.738379     81.476758
     -3.038038     36.839972     36.839972     73.679944
     -3.028028     32.237135     32.237135     64.474270
     -3.018018     27.545962     27.545962     55.091925
     -3.008008     23.148647     23.148647     46.297294
     -2.997998     19.220772     19.220772     38.441545
     -2.987988     15.852469     15.852469     31.704939
     -2.977978     13.178131     13.178131     26.356261
     -2.967968     11.440841     11.440841     22.881681
     -2.957958     10.963452     10.963452     21.926905
     -2.947948     12.045437     12.045437     24.090875
     -2.937938     14.830711     14.830711     29.661423
     -2.927928     19.195670     19.195670     38.391339
     -2.917918     24.699148     24.699148     49.398295
     -2.907908     30.622556     30.622556     61.245112
     -2.897898     36.105770     36.105770     72.211541
     -2.887888     40.350454     40.350454     80.700908
     -2.877878     42.827621     42.827621     85.655242
     -2.867868     43.410853     43.410853     86.821706
     -2.857858     42.376857     42.376857     84.753714
     -2.847848     40.268157     40.268157     80.536314
     -2.837838     37.674714     37.674714     75.349429
     -2.827828     35.029566     35.029566     70.059132
     -2.817818     32.505975     32.505975     65.011951
     -2.807808     30.052123     30.052123     60.104246
     -2.797798     27.530045     27.530045     55.060089
     -2.787788     24.875059     24.875059     49.750117
     -2.777778     22.187187     22.187187     44.374375
     -2.767768     19.709340     19.709340     39.418680
     -2.757758     17.713821     17.713821     35.427643
     -2.747748     16.371207     16.371207     32.742414
     -2.737738     15.683345     15.683345     31.366689
     -2.727728     15.520095     15.520095     31.040190
     -2.717718     15.732182     15.732182     31.464365
     -2.707708     16.261900     16.261900     32.523801
     -2.697698     17.173285     17.173285     34.346570
     -2.687688     18.576669     18.576669     37.153338
     -2.677678     20.496428     20.496428     40.992856
     -2.667668     22.775355     22.775355     45.550710
     -2.657658     25.091024     25.091024     50.182048
     -2.647648     27.086901     27.086901     54.173803
     -2.637638     28.541746     28.541746     57.083492
     -2.627628     29.471039     29.471039     58.942078
     -2.617618     30.096929     30.096929     60.193859
     -2.607608     30.709059     30.709059     61.418118
     -2.597598     31.505595     31.505595     63.011189
     -2.587588     32.504809     32.504809     65.009618
     -2.577578     33.557584     33.557584     67.115169
     -2.567568     34.422262     34.422262     68.844524
     -2.557558     34.839350     34.839350     69.678700
     -2.547548     34.575285     34.575285     69.150569
     -2.537538     33.453019     33.453019     66.906038
     -2.527528     31.403165     31.403165     62.806329
     -2.517518     28.538427     28.538427     57.076853
     -2.507508     25.208028     25.208028     50.416055
     -2.497497     21.973835     21.973835     43.947671
     -2.487487     19.484097     19.484097     38.968195
     -2.477477     18.280906     18.280906     36.561813
     -2.467467     18.621968     18.621968     37.243936
     -2.457457     20.398212     20.398212     40.796425
     -2.447447     23.187512     23.187512     46.375023
     -2.437437     26.423646     26.423646     52.847291
     -2.427427     29.607145     29.607145     59.214290
     -2.417417     32.463984     32.463984     64.927967
     -2.407407     34.980159     34.980159     69.960319
     -2.397397     37.297820     37.297820     74.595639
     -2.387387     39.526531     39.526531     79.053062
     -2.377377     41.568480     41.568480     83.136961
     -2.367367     43.054645     43.054645     86.109290
     -2.357357     43.438166     43.438166     86.876332
     -2.347347     42.213678     42.213678     84.427356
     -2.337337     39.165006     39.165006     78.330013
     -2.327327     34.524154     34.524154     69.048309
     -2.317317     28.964891     28.964891     57.929781
     -2.307307     23.433485     23.433485     46.866971
     -2.297297     18.892409     18.892409     37.784819
     -2.287287     16.080570     16.080570     32.161140
     -2.277277     15.368045     15.368045     30.736091
     -2.267267     16.729494     16.729494     33.458989
     -2.257257     19.813217     19.813217     39.626434
     -2.247247     24.061269     24.061269     48.122538
     -2.237237     28.837243     28.837243     57.674485
     -2.227227     33.530121     33.530121     67.060242
     -2.217217     37.617387     37.617387     75.234774
     -2.207207     40.687516     40.687516     81.375031
     -2.197197     42.439513     42.439513     84.879026
     -2.187187     42.687107     42.687107     85.374215
     -2.177177     41.387132     41.387132     82.774264
     -2.167167     38.684458     38.684458     77.368915
     -2.157157     34.935601     34.935601     69.871202
     -2.147147     30.665806     30.665806     61.331612
     -2.137137     26.444716     26.444716     52.889432
     -2.127127     22.719659     22.719659     45.439318
     -2.117117     19.685010     19.685010     39.370020
     -2.107107     17.257583     17.257583     34.515167
     -2.097097     15.171756     15.171756     30.343512
     -2.087087     13.140752     13.140752     26.281505
     -2.077077     10.997668     10.997668     21.995335
     -2.067067      8.750942      8.750942     17.501885
     -2.057057      6.544931      6.544931     13.089862
     -2.047047      4.567149      4.567149      9.134298
     -2.037037      2.960286      2.960286      5.920572
     -2.027027      1.777907      1.777907      3.555814
     -2.017017      0.989188      0.989188      1.978376
     -2.007007      0.513488      0.513488      1.026976
     -1.996997      0.260216      0.260216      0.520432
     -1.986987      0.158449      0.158449      0.316898
     -1.976977      0.173036      0.173036      0.346073
     -1.966967      0.311199      0.311199      0.622397
     -1.956957      0.623760      0.623760      1.247519
     -1.946947      1.200843      1.200843      2.401685
     -1.936937      2.157522      2.157522      4.315044
     -1.926927      3.604851      3.604851      7.209702
     -1.916917      5.607850      5.607850     11.215700
     -1.906907      8.142377      8.142377     16.284754
     -1.896897     11.070830     11.070830     22.141661
     -1.886887     14.154921     14.154921     28.309842
     -1.876877     17.109752     17.109752     34.219504
     -1.866867     19.683277     19.683277     39.366555
     -1.856857     21.730170     21.730170     43.460340
     -1.846847     23.247857     23.247857     46.495713
     -1.836837     24.355672     24.355672     48.711345
     -1.826827     25.220160     25.220160     50.440320
     -1.816817     25.953225     25.953225     51.906450
     -1.806807     26.527120     26.527120     53.054239
     -1.796797     26.751322     26.751322     53.502644
     -1.786787     26.333879     26.333879     52.667758
     -1.776777     25.008542     25.008542     50.017084
     -1.766767     22.670258     22.670258     45.340515
     -1.756757     19.451560     19.451560     38.903120
     -1.746747     15.701447     15.701447     31.402894
     -1.736737     11.879985     11.879985     23.759969
     -1.726727      8.423616      8.423616     16.847233
     -1.716717      5.643544      5.643544     11.287089
     -1.706707      3.692468      3.692468      7.384936
     -1.696697      2.594306      2.594306      5.188611
     -1.686687      2.301811      2.301811      4.603623
     -1.676677      2.741297      2.741297      5.482594
     -1.666667      3.820025      3.820025      7.640050
     -1.656657      5.399017      5.399017     10.798035
     -1.646647      7.258367      7.258367     14.516733
     -1.636637      9.091606      9.091606     18.183213
     -1.626627     10.553909     10.553909     21.107817
