# EIG2DOS: Utility for SIESTA to obtain the electronic density of states
#  E. Artacho, Apr 1999, A. Garcia, Apr 2012
#  Nick R. Papior, Feb 2017
# ------------------------------------------
# Eigenvalues calculated from a non-polarized calculation
# Eigenvalues read from siesta.EIG
# Kpoint weights read from siesta.KP
# Using smearing parameter:   0.0500
# Using 1000 points in the energy range
# Selected bands: 1 to: 2981
# Emin, Emax in file for selected band(s):    -27.0418727    218.3124990
# Nbands, Nspin, Nk   =   2981     1     1
# E_F                 =    -4.2958 eV --> (shifted to ZERO)
# Broadening          =     0.0500 eV
#
#        E            N(up)  (=)   N(down)         Ntot
     -5.000000     42.107413     42.107413     84.214826
     -4.989990     47.183905     47.183905     94.367809
     -4.979980     51.106747     51.106747    102.213494
     -4.969970     53.284344     53.284344    106.568689
     -4.959960     53.382260     53.382260    106.764520
     -4.949950     51.431574     51.431574    102.863149
     -4.939940     47.831922     47.831922     95.663844
     -4.929930     43.261409     43.261409     86.522819
     -4.919920     38.545556     38.545556     77.091112
     -4.909910     34.537177     34.537177     69.074354
     -4.899900     32.022055     32.022055     64.044110
     -4.889890     31.623175     31.623175     63.246350
     -4.879880     33.668736     33.668736     67.337473
     -4.869870     38.032281     38.032281     76.064563
     -4.859860     44.020179     44.020179     88.040358
     -4.849850     50.414767     50.414767    100.829535
     -4.839840     55.735173     55.735173    111.470345
     -4.829830     58.662424     58.662424    117.324848
     -4.819820     58.461595     58.461595    116.923190
     -4.809810     55.205824     55.205824    110.411649
     -4.799800     49.696884     49.696884     99.393769
     -4.789790     43.132406     43.132406     86.264813
     -4.779780     36.690522     36.690522     73.381045
     -4.769770     31.215558     31.215558     62.431117
     -4.759760     27.100445     27.100445     54.200890
     -4.749750     24.345402     24.345402     48.690804
     -4.739740     22.703150     22.703150     45.406300
     -4.729730     21.822244     21.822244     43.644489
     -4.719720     21.343541     21.343541     42.687082
     -4.709710     20.948162     20.948162     41.896323
     -4.699700     20.377452     20.377452     40.754904
     -4.689690     19.448417     19.448417     38.896835
     -4.679680     18.080415     18.080415     36.160831
     -4.669670     16.334744     16.334744     32.669487
     -4.659660     14.452143     14.452143     28.904285
     -4.649650     12.862325     12.862325     25.724650
     -4.639640     12.141451     12.141451     24.282901
     -4.629630     12.907130     12.907130     25.814261
     -4.619620     15.659519     15.659519     31.319039
     -4.609610     20.597768     20.597768     41.195536
     -4.599600     27.463459     27.463459     54.926919
     -4.589590     35.480340     35.480340     70.960681
     -4.579580     43.454019     43.454019     86.908037
     -4.569570     50.048362     50.048362    100.096725
     -4.559560     54.173755     54.173755    108.347510
     -4.549550     55.346895     55.346895    110.693790
     -4.539540     53.865094     53.865094    107.730189
     -4.529530     50.704234     50.704234    101.408469
     -4.519520     47.170741     47.170741     94.341481
     -4.509510     44.449013     44.449013     88.898026
     -4.499499     43.226902     43.226902     86.453804
     -4.489489     43.535620     43.535620     87.071240
     -4.479479     44.838124     44.838124     89.676247
     -4.469469     46.297407     46.297407     92.594814
     -4.459459     47.099723     47.099723     94.199446
     -4.449449     46.712637     46.712637     93.425273
     -4.439439     45.007417     45.007417     90.014833
     -4.429429     42.237855     42.237855     84.475711
     -4.419419     38.915340     38.915340     77.830680
     -4.409409     35.640126     35.640126     71.280251
     -4.399399     32.943616     32.943616     65.887232
     -4.389389     31.177132     31.177132     62.354264
     -4.379379     30.461099     30.461099     60.922198
     -4.369369     30.692363     30.692363     61.384726
     -4.359359     31.598067     31.598067     63.196134
     -4.349349     32.820084     32.820084     65.640168
     -4.339339     34.011598     34.011598     68.023195
     -4.329329     34.925716     34.925716     69.851431
     -4.319319     35.476066     35.476066     70.952132
     -4.309309     35.753680     35.753680     71.507361
     -4.299299     35.994189     35.994189     71.988378
     -4.289289     36.501543     36.501543     73.003085
     -4.279279     37.543994     37.543994     75.087988
     -4.269269     39.243604     39.243604     78.487208
     -4.259259     41.486170     41.486170     82.972341
     -4.249249     43.886555     43.886555     87.773110
     -4.239239     45.845661     45.845661     91.691322
     -4.229229     46.712619     46.712619     93.425239
     -4.219219     46.014377     46.014377     92.028755
     -4.209209     43.659870     43.659870     87.319739
     -4.199199     40.011876     40.011876     80.023752
     -4.189189     35.773098     35.773098     71.546196
     -4.179179     31.730846     31.730846     63.461692
     -4.169169     28.484411     28.484411     56.968822
     -4.159159     26.286141     26.286141     52.572282
     -4.149149     25.058582     25.058582     50.117164
     -4.139139     24.553471     24.553471     49.106941
     -4.129129     24.552009     24.552009     49.104018
     -4.119119     24.998124     24.998124     49.996248
     -4.109109     25.999172     25.999172     51.998344
     -4.099099     27.696217     27.696217     55.392434
     -4.089089     30.072582     30.072582     60.145165
     -4.079079     32.809933     32.809933     65.619865
     -4.069069     35.291617     35.291617     70.583234
     -4.059059     36.784655     36.784655     73.569309
     -4.049049     36.730997     36.730997     73.461994
     -4.039039     35.004326     35.004326     70.008651
     -4.029029     31.994885     31.994885     63.989770
     -4.019019     28.476281     28.476281     56.952562
     -4.009009     25.328683     25.328683     50.657365
     -3.998999     23.263689     23.263689     46.527377
     -3.988989     22.674383     22.674383     45.348765
     -3.978979     23.642844     23.642844     47.285689
     -3.968969     26.044896     26.044896     52.089793
     -3.958959     29.658560     29.658560     59.317120
     -3.948949     34.218986     34.218986     68.437971
     -3.938939     39.427618     39.427618     78.855237
     -3.928929     44.961720     44.961720     89.923441
     -3.918919     50.515955     50.515955    101.031910
     -3.908909     55.860364     55.860364    111.720728
     -3.898899     60.863908     60.863908    121.727815
     -3.888889     65.442601     65.442601    130.885201
     -3.878879     69.442227     69.442227    138.884453
     -3.868869     72.522290     72.522290    145.044579
     -3.858859     74.129244     74.129244    148.258488
     -3.848849     73.613111     73.613111    147.226223
     -3.838839     70.465954     70.465954    140.931908
     -3.828829     64.584525     64.584525    129.169050
     -3.818819     56.429114     56.429114    112.858227
     -3.808809     46.988850     46.988850     93.977699
     -3.798799     37.552137     37.552137     75.104274
     -3.788789     29.369591     29.369591     58.739182
     -3.778779     23.337660     23.337660     46.675320
     -3.768769     19.808733     19.808733     39.617466
     -3.758759     18.571233     18.571233     37.142466
     -3.748749     18.979870     18.979870     37.959740
     -3.738739     20.178650     20.178650     40.357300
     -3.728729     21.350245     21.350245     42.700490
     -3.718719     21.933015     21.933015     43.866031
     -3.708709     21.759711     21.759711     43.519422
     -3.698699     21.086351     21.086351     42.172703
     -3.688689     20.499209     20.499209     40.998417
     -3.678679     20.715440     20.715440     41.430880
     -3.668669     22.326605     22.326605     44.653211
     -3.658659     25.563560     25.563560     51.127121
     -3.648649     30.169124     30.169124     60.338248
     -3.638639     35.436886     35.436886     70.873771
     -3.628629     40.411876     40.411876     80.823752
     -3.618619     44.177338     44.177338     88.354676
     -3.608609     46.111941     46.111941     92.223881
     -3.598599     46.021000     46.021000     92.042000
     -3.588589     44.113388     44.113388     88.226775
     -3.578579     40.868193     40.868193     81.736386
     -3.568569     36.867269     36.867269     73.734537
     -3.558559     32.652555     32.652555     65.305110
     -3.548549     28.629786     28.629786     57.259572
     -3.538539     25.018090     25.018090     50.036180
     -3.528529     21.846314     21.846314     43.692629
     -3.518519     19.001383     19.001383     38.002765
     -3.508509     16.321575     16.321575     32.643149
     -3.498498     13.702598     13.702598     27.405197
     -3.488488     11.170413     11.170413     22.340826
     -3.478478      8.888556      8.888556     17.777111
     -3.468468      7.101094      7.101094     14.202187
     -3.458458      6.041131      6.041131     12.082263
     -3.448448      5.842359      5.842359     11.684717
     -3.438438      6.480917      6.480917     12.961833
     -3.428428      7.761740      7.761740     15.523480
     -3.418418      9.355741      9.355741     18.711482
     -3.408408     10.886565     10.886565     21.773130
     -3.398398     12.049751     12.049751     24.099502
     -3.388388     12.726018     12.726018     25.452036
     -3.378378     13.040308     13.040308     26.080617
     -3.368368     13.334052     13.334052     26.668104
     -3.358358     14.056353     14.056353     28.112705
     -3.348348     15.617245     15.617245     31.234490
     -3.338338     18.257495     18.257495     36.514991
     -3.328328     21.969309     21.969309     43.938618
     -3.318318     26.471133     26.471133     52.942265
     -3.308308     31.225463     31.225463     62.450927
     -3.298298     35.499846     35.499846     70.999693
     -3.288288     38.486876     38.486876     76.973752
     -3.278278     39.487951     39.487951     78.975902
     -3.268268     38.121414     38.121414     76.242828
     -3.258258     34.471097     34.471097     68.942194
     -3.248248     29.092260     29.092260     58.184520
     -3.238238     22.853056     22.853056     45.706112
     -3.228228     16.674923     16.674923     33.349845
     -3.218218     11.285704     11.285704     22.571407
     -3.208208      7.082226      7.082226     14.164452
     -3.198198      4.132605      4.132605      8.265211
     -3.188188      2.281069      2.281069      4.562138
     -3.178178      1.287754      1.287754      2.575508
     -3.168168      0.947111      0.947111      1.894222
     -3.158158      1.158998      1.158998      2.317996
     -3.148148      1.951421      1.951421      3.902842
     -3.138138      3.462612      3.462612      6.925224
     -3.128128      5.888199      5.888199     11.776397
     -3.118118      9.398666      9.398666     18.797331
     -3.108108     14.040725     14.040725     28.081450
     -3.098098     19.650849     19.650849     39.301698
     -3.088088     25.818399     25.818399     51.636798
     -3.078078     31.927059     31.927059     63.854118
     -3.068068     37.274075     37.274075     74.548149
     -3.058058     41.230060     41.230060     82.460119
     -3.048048     43.380183     43.380183     86.760367
     -3.038038     43.596816     43.596816     87.193632
     -3.028028     42.030248     42.030248     84.060497
     -3.018018     39.044020     39.044020     78.088040
     -3.008008     35.137860     35.137860     70.275720
     -2.997998     30.885900     30.885900     61.771800
     -2.987988     26.887731     26.887731     53.775461
     -2.977978     23.712592     23.712592     47.425183
     -2.967968     21.826436     21.826436     43.652873
     -2.957958     21.516299     21.516299     43.032597
     -2.947948     22.841114     22.841114     45.682228
     -2.937938     25.628196     25.628196     51.256391
     -2.927928     29.509471     29.509471     59.018943
     -2.917918     33.975514     33.975514     67.951027
     -2.907908     38.432802     38.432802     76.865605
     -2.897898     42.270445     42.270445     84.540890
     -2.887888     44.951319     44.951319     89.902638
     -2.877878     46.124249     46.124249     92.248499
     -2.867868     45.720454     45.720454     91.440908
     -2.857858     43.979721     43.979721     87.959443
     -2.847848     41.371988     41.371988     82.743975
     -2.837838     38.431727     38.431727     76.863453
     -2.827828     35.573897     35.573897     71.147794
     -2.817818     32.976574     32.976574     65.953148
     -2.807808     30.583950     30.583950     61.167901
     -2.797798     28.220784     28.220784     56.441567
     -2.787788     25.751092     25.751092     51.502185
     -2.777778     23.192916     23.192916     46.385832
     -2.767768     20.729057     20.729057     41.458114
     -2.757758     18.615115     18.615115     37.230231
     -2.747748     17.045825     17.045825     34.091649
     -2.737738     16.063888     16.063888     32.127776
     -2.727728     15.567585     15.567585     31.135170
     -2.717718     15.410069     15.410069     30.820139
     -2.707708     15.523114     15.523114     31.046228
     -2.697698     15.979820     15.979820     31.959641
     -2.687688     16.948451     16.948451     33.896903
     -2.677678     18.561039     18.561039     37.122078
     -2.667668     20.780145     20.780145     41.560290
     -2.657658     23.354415     23.354415     46.708829
     -2.647648     25.900481     25.900481     51.800961
     -2.637638     28.067736     28.067736     56.135472
     -2.627628     29.687407     29.687407     59.374813
     -2.617618     30.817199     30.817199     61.634397
     -2.607608     31.662059     31.662059     63.324117
     -2.597598     32.431033     32.431033     64.862066
     -2.587588     33.222338     33.222338     66.444677
     -2.577578     33.993405     33.993405     67.986810
     -2.567568     34.603798     34.603798     69.207596
     -2.557558     34.875387     34.875387     69.750774
     -2.547548     34.627824     34.627824     69.255648
     -2.537538     33.696123     33.696123     67.392245
     -2.527528     31.968006     31.968006     63.936013
     -2.517518     29.459431     29.459431     58.918862
     -2.507508     26.395610     26.395610     52.791220
     -2.497497     23.231912     23.231912     46.463825
     -2.487487     20.568449     20.568449     41.136899
     -2.477477     18.973351     18.973351     37.946703
     -2.467467     18.789044     18.789044     37.578089
     -2.457457     20.013682     20.013682     40.027364
     -2.447447     22.316733     22.316733     44.633465
     -2.437437     25.183983     25.183983     50.367965
     -2.427427     28.125833     28.125833     56.251665
     -2.417417     30.852361     30.852361     61.704721
     -2.407407     33.333193     33.333193     66.666386
     -2.397397     35.714435     35.714435     71.428869
     -2.387387     38.134771     38.134771     76.269542
     -2.377377     40.535293     40.535293     81.070586
     -2.367367     42.565977     42.565977     85.131953
     -2.357357     43.649623     43.649623     87.299245
     -2.347347     43.189033     43.189033     86.378065
     -2.337337     40.830440     40.830440     81.660880
     -2.327327     36.663072     36.663072     73.326145
     -2.317317     31.261063     31.261063     62.522127
     -2.307307     25.547711     25.547711     51.095423
     -2.297297     20.542741     20.542741     41.085482
     -2.287287     17.096759     17.096759     34.193517
     -2.277277     15.705422     15.705422     31.410843
     -2.267267     16.446310     16.446310     32.892620
     -2.257257     19.028831     19.028831     38.057661
     -2.247247     22.916063     22.916063     45.832126
     -2.237237     27.469737     27.469737     54.939474
     -2.227227     32.075599     32.075599     64.151199
     -2.217217     36.219832     36.219832     72.439663
     -2.207207     39.508192     39.508192     79.016383
     -2.197197     41.646358     41.646358     83.292717
     -2.187187     42.420324     42.420324     84.840648
     -2.177177     41.712734     41.712734     83.425467
     -2.167167     39.559333     39.559333     79.118665
     -2.157157     36.206709     36.206709     72.413417
     -2.147147     32.111247     32.111247     64.222495
     -2.137137     27.842970     27.842970     55.685939
     -2.127127     23.917365     23.917365     47.834729
     -2.117117     20.633169     20.633169     41.266338
     -2.107107     18.002041     18.002041     36.004082
     -2.097097     15.807276     15.807276     31.614551
     -2.087087     13.755018     13.755018     27.510037
     -2.077077     11.632737     11.632737     23.265474
     -2.067067      9.395936      9.395936     18.791872
     -2.057057      7.155251      7.155251     14.310503
     -2.047047      5.093670      5.093670     10.187341
     -2.037037      3.371925      3.371925      6.743851
     -2.027027      2.069560      2.069560      4.139120
     -2.017017      1.176771      1.176771      2.353541
     -2.007007      0.623088      0.623088      1.246176
     -1.996997      0.318031      0.318031      0.636061
     -1.986987      0.184815      0.184815      0.369630
     -1.976977      0.180532      0.180532      0.361064
     -1.966967      0.305155      0.305155      0.610309
     -1.956957      0.603533      0.603533      1.207065
     -1.946947      1.160941      1.160941      2.321883
     -1.936937      2.088396      2.088396      4.176792
     -1.926927      3.493355      3.493355      6.986710
     -1.916917      5.437058      5.437058     10.874116
     -1.906907      7.889621      7.889621     15.779242
     -1.896897     10.701962     10.701962     21.403925
     -1.886887     13.612395     13.612395     27.224791
     -1.876877     16.293355     16.293355     32.586710
     -1.866867     18.426386     18.426386     36.852772
     -1.856857     19.781538     19.781538     39.563076
     -1.846847     20.276340     20.276340     40.552679
     -1.836837     19.996554     19.996554     39.993109
     -1.826827     19.169955     19.169955     38.339909
     -1.816817     18.094468     18.094468     36.188935
     -1.806807     17.037073     17.037073     34.074146
     -1.796797     16.138248     16.138248     32.276495
     -1.786787     15.365791     15.365791     30.731582
     -1.776777     14.546738     14.546738     29.093476
     -1.766767     13.467694     13.467694     26.935387
     -1.756757     11.994785     11.994785     23.989570
     -1.746747     10.152885     10.152885     20.305770
     -1.736737      8.129665      8.129665     16.259330
     -1.726727      6.214894      6.214894     12.429788
     -1.716717      4.717446      4.717446      9.434892
     -1.706707      3.901885      3.901885      7.803770
     -1.696697      3.959117      3.959117      7.918234
     -1.686687      4.995437      4.995437      9.990873
     -1.676677      7.013898      7.013898     14.027796
     -1.666667      9.877485      9.877485     19.754969
     -1.656657     13.272290     13.272290     26.544580
     -1.646647     16.708935     16.708935     33.417870
     -1.636637     19.594317     19.594317     39.188634
     -1.626627     21.372722     21.372722     42.745444
