# EIG2DOS: Utility for SIESTA to obtain the electronic density of states
#  E. Artacho, Apr 1999, A. Garcia, Apr 2012
#  Nick R. Papior, Feb 2017
# ------------------------------------------
# Eigenvalues calculated from a non-polarized calculation
# Eigenvalues read from siesta.EIG
# Kpoint weights read from siesta.KP
# Using smearing parameter:   0.0500
# Using 1000 points in the energy range
# Selected bands: 1 to: 2981
# Emin, Emax in file for selected band(s):    -27.0563140    218.3109630
# Nbands, Nspin, Nk   =   2981     1     1
# E_F                 =    -4.2982 eV --> (shifted to ZERO)
# Broadening          =     0.0500 eV
#
#        E            N(up)  (=)   N(down)         Ntot
     -5.000000     43.488058     43.488058     86.976115
     -4.989990     48.223429     48.223429     96.446857
     -4.979980     51.585810     51.585810    103.171620
     -4.969970     53.094450     53.094450    106.188899
     -4.959960     52.565495     52.565495    105.130991
     -4.949950     50.165640     50.165640    100.331280
     -4.939940     46.368013     46.368013     92.736026
     -4.929930     41.845042     41.845042     83.690083
     -4.919920     37.354626     37.354626     74.709251
     -4.909910     33.657132     33.657132     67.314265
     -4.899900     31.456717     31.456717     62.913434
     -4.889890     31.324921     31.324921     62.649842
     -4.879880     33.569555     33.569555     67.139111
     -4.869870     38.064535     38.064535     76.129069
     -4.859860     44.125493     44.125493     88.250985
     -4.849850     50.545601     50.545601    101.091201
     -4.839840     55.854552     55.854552    111.709105
     -4.829830     58.744730     58.744730    117.489460
     -4.819820     58.493991     58.493991    116.987982
     -4.809810     55.188252     55.188252    110.376503
     -4.799800     49.639170     49.639170     99.278341
     -4.789790     43.049065     43.049065     86.098130
     -4.779780     36.595407     36.595407     73.190815
     -4.769770     31.118511     31.118511     62.237022
     -4.759760     27.006664     27.006664     54.013328
     -4.749750     24.256718     24.256718     48.513436
     -4.739740     22.619801     22.619801     45.239602
     -4.729730     21.744239     21.744239     43.488478
     -4.719720     21.271448     21.271448     42.542895
     -4.709710     20.883535     20.883535     41.767070
     -4.699700     20.322998     20.322998     40.645996
     -4.689690     19.407853     19.407853     38.815707
     -4.679680     18.058082     18.058082     36.116163
     -4.669670     16.335203     16.335203     32.670405
     -4.659660     14.479931     14.479931     28.959862
     -4.649650     12.921536     12.921536     25.843073
     -4.639640     12.234373     12.234373     24.468746
     -4.629630     13.031353     13.031353     26.062707
     -4.619620     15.804127     15.804127     31.608253
     -4.609610     20.740866     20.740866     41.481733
     -4.599600     27.574036     27.574036     55.148073
     -4.589590     35.526018     35.526018     71.052037
     -4.579580     43.412806     43.412806     86.825612
     -4.569570     49.919027     49.919027     99.838055
     -4.559560     53.978769     53.978769    107.957539
     -4.549550     55.125281     55.125281    110.250561
     -4.539540     53.658230     53.658230    107.316459
     -4.529530     50.541884     50.541884    101.083767
     -4.519520     47.064366     47.064366     94.128733
     -4.509510     44.395101     44.395101     88.790201
     -4.499499     43.217751     43.217751     86.435502
     -4.489489     43.572230     43.572230     87.144461
     -4.479479     44.940478     44.940478     89.880956
     -4.469469     46.509832     46.509832     93.019665
     -4.459459     47.490401     47.490401     94.980803
     -4.449449     47.365369     47.365369     94.730737
     -4.439439     46.002103     46.002103     92.004205
     -4.429429     43.617567     43.617567     87.235135
     -4.419419     40.645145     40.645145     81.290291
     -4.409409     37.573979     37.573979     75.147958
     -4.399399     34.822712     34.822712     69.645425
     -4.389389     32.676655     32.676655     65.353311
     -4.379379     31.280090     31.280090     62.560180
     -4.369369     30.654174     30.654174     61.308347
     -4.359359     30.715410     30.715410     61.430820
     -4.349349     31.291721     31.291721     62.583442
     -4.339339     32.151709     32.151709     64.303418
     -4.329329     33.060576     33.060576     66.121153
     -4.319319     33.854603     33.854603     67.709205
     -4.309309     34.503925     34.503925     69.007849
     -4.299299     35.129703     35.129703     70.259407
     -4.289289     35.959512     35.959512     71.919024
     -4.279279     37.230383     37.230383     74.460766
     -4.269269     39.068082     39.068082     78.136164
     -4.259259     41.381048     41.381048     82.762096
     -4.249249     43.812068     43.812068     87.624135
     -4.239239     45.786550     45.786550     91.573101
     -4.229229     46.670316     46.670316     93.340632
     -4.219219     45.997830     45.997830     91.995659
     -4.209209     43.677305     43.677305     87.354610
     -4.199199     40.065228     40.065228     80.130457
     -4.189189     35.855981     35.855981     71.711961
     -4.179179     31.829847     31.829847     63.659693
     -4.169169     28.582540     28.582540     57.165081
     -4.159159     26.366899     26.366899     52.733797
     -4.149149     25.109308     25.109308     50.218615
     -4.139139     24.567256     24.567256     49.134512
     -4.129129     24.528104     24.528104     49.056208
     -4.119119     24.941224     24.941224     49.882448
     -4.109109     25.918123     25.918123     51.836246
     -4.099099     27.602521     27.602521     55.205041
     -4.089089     29.978898     29.978898     59.957797
     -4.079079     32.728667     32.728667     65.457335
     -4.069069     35.233671     35.233671     70.467341
     -4.059059     36.758386     36.758386     73.516773
     -4.049049     36.741374     36.741374     73.482748
     -4.039039     35.052132     35.052132     70.104263
     -4.029029     32.075926     32.075926     64.151851
     -4.019019     28.580837     28.580837     57.161674
     -4.009009     25.441821     25.441821     50.883642
     -3.998999     23.367114     23.367114     46.734227
     -3.988989     22.749968     22.749968     45.499935
     -3.978979     23.676997     23.676997     47.353993
     -3.968969     26.032119     26.032119     52.064238
     -3.958959     29.602659     29.602659     59.205318
     -3.948949     34.131408     34.131408     68.262816
     -3.938939     39.323727     39.323727     78.647455
     -3.928929     44.856579     44.856579     89.713157
     -3.918919     50.421057     50.421057    100.842113
     -3.908909     55.782085     55.782085    111.564169
     -3.898899     60.803797     60.803797    121.607594
     -3.888889     65.399164     65.399164    130.798328
     -3.878879     69.413402     69.413402    138.826804
     -3.868869     72.507421     72.507421    145.014841
     -3.858859     74.129399     74.129399    148.258799
     -3.848849     73.629461     73.629461    147.258923
     -3.838839     70.497259     70.497259    140.994517
     -3.828829     64.625593     64.625593    129.251186
     -3.818819     56.471571     56.471571    112.943142
     -3.808809     47.023975     47.023975     94.047950
     -3.798799     37.574090     37.574090     75.148180
     -3.788789     29.377183     29.377183     58.754365
     -3.778779     23.333898     23.333898     46.667797
     -3.768769     19.798791     19.798791     39.597582
     -3.758759     18.560159     18.560159     37.120318
     -3.748749     18.971109     18.971109     37.942217
     -3.738739     20.173679     20.173679     40.347358
     -3.728729     21.349022     21.349022     42.698044
     -3.718719     21.934732     21.934732     43.869464
     -3.708709     21.763449     21.763449     43.526898
     -3.698699     21.091428     21.091428     42.182856
     -3.688689     20.505168     20.505168     41.010336
     -3.678679     20.721795     20.721795     41.443591
     -3.668669     22.332572     22.332572     44.665145
     -3.658659     25.568069     25.568069     51.136137
     -3.648649     30.171262     30.171262     60.342525
     -3.638639     35.436633     35.436633     70.873266
     -3.628629     40.410641     40.410641     80.821283
     -3.618619     44.177790     44.177790     88.355581
     -3.608609     46.116928     46.116928     92.233856
     -3.598599     46.031980     46.031980     92.063960
     -3.588589     44.129237     44.129237     88.258474
     -3.578579     40.885204     40.885204     81.770408
     -3.568569     36.880490     36.880490     73.760980
     -3.558559     32.657830     32.657830     65.315660
     -3.548549     28.625412     28.625412     57.250824
     -3.538539     25.005291     25.005291     50.010583
     -3.528529     21.828440     21.828440     43.656880
     -3.518519     18.982431     18.982431     37.964861
     -3.508509     16.304864     16.304864     32.609727
     -3.498498     13.690128     13.690128     27.380256
     -3.488488     11.162960     11.162960     22.325920
     -3.478478      8.886177      8.886177     17.772354
     -3.468468      7.103612      7.103612     14.207223
     -3.458458      6.048314      6.048314     12.096629
     -3.448448      5.853738      5.853738     11.707476
     -3.438438      6.495403      6.495403     12.990805
     -3.428428      7.777323      7.777323     15.554646
     -3.418418      9.369555      9.369555     18.739111
     -3.408408     10.895440     10.895440     21.790881
     -3.398398     12.051112     12.051112     24.102224
     -3.388388     12.718793     12.718793     25.437586
     -3.378378     13.025470     13.025470     26.050940
     -3.368368     13.314575     13.314575     26.629150
     -3.358358     14.036602     14.036602     28.073203
     -3.348348     15.601960     15.601960     31.203919
     -3.338338     18.250592     18.250592     36.501184
     -3.328328     21.972738     21.972738     43.945477
     -3.318318     26.484108     26.484108     52.968215
     -3.308308     31.244424     31.244424     62.488848
     -3.298298     35.519393     35.519393     71.038785
     -3.288288     38.501480     38.501480     77.002960
     -3.278278     39.493812     39.493812     78.987623
     -3.268268     38.117619     38.117619     76.235237
     -3.258258     34.459584     34.459584     68.919168
     -3.248248     29.076689     29.076689     58.153379
     -3.238238     22.837247     22.837247     45.674493
     -3.228228     16.661623     16.661623     33.323246
     -3.218218     11.276133     11.276133     22.552266
     -3.208208      7.076377      7.076377     14.152755
     -3.198198      4.130058      4.130058      8.260116
     -3.188188      2.282195      2.282195      4.564390
     -3.178178      1.295700      1.295700      2.591400
     -3.168168      0.971564      0.971564      1.943128
     -3.158158      1.223244      1.223244      2.446487
     -3.148148      2.103905      2.103905      4.207810
     -3.138138      3.792163      3.792163      7.584325
     -3.128128      6.537559      6.537559     13.075117
     -3.118118     10.564749     10.564749     21.129497
     -3.108108     15.945894     15.945894     31.891788
     -3.098098     22.473922     22.473922     44.947844
     -3.088088     29.591971     29.591971     59.183941
     -3.078078     36.435804     36.435804     72.871609
     -3.068068     42.011423     42.011423     84.022846
     -3.058058     45.466353     45.466353     90.932705
     -3.048048     46.352837     46.352837     92.705675
     -3.038038     44.766720     44.766720     89.533439
     -3.028028     41.297027     41.297027     82.594055
     -3.018018     36.813746     36.813746     73.627491
     -3.008008     32.197789     32.197789     64.395578
     -2.997998     28.130274     28.130274     56.260548
     -2.987988     25.006866     25.006866     50.013731
     -2.977978     22.970429     22.970429     45.940859
     -2.967968     22.008730     22.008730     44.017460
     -2.957958     22.058246     22.058246     44.116492
     -2.947948     23.072374     23.072374     46.144748
     -2.937938     25.031443     25.031443     50.062886
     -2.927928     27.890979     27.890979     55.781958
     -2.917918     31.491380     31.491380     62.982760
     -2.907908     35.481678     35.481678     70.963355
     -2.897898     39.319297     39.319297     78.638593
     -2.887888     42.377405     42.377405     84.754810
     -2.877878     44.130519     44.130519     88.261039
     -2.867868     44.334748     44.334748     88.669497
     -2.857858     43.109816     43.109816     86.219633
     -2.847848     40.875769     40.875769     81.751539
     -2.837838     38.172058     38.172058     76.344116
     -2.827828     35.446913     35.446913     70.893826
     -2.817818     32.917212     32.917212     65.834423
     -2.807808     30.558525     30.558525     61.117049
     -2.797798     28.215469     28.215469     56.430939
     -2.787788     25.761594     25.761594     51.523188
     -2.777778     23.217426     23.217426     46.434852
     -2.767768     20.764704     20.764704     41.529407
     -2.757758     18.657189     18.657189     37.314377
     -2.747748     17.088711     17.088711     34.177423
     -2.737738     16.102633     16.102633     32.205265
     -2.727728     15.599215     15.599215     31.198430
     -2.717718     15.434187     15.434187     30.868374
     -2.707708     15.541589     15.541589     31.083178
     -2.697698     15.995703     15.995703     31.991407
     -2.687688     16.964439     16.964439     33.928879
     -2.677678     18.578019     18.578019     37.156037
     -2.667668     20.796387     20.796387     41.592774
     -2.657658     23.365832     23.365832     46.731663
     -2.647648     25.901949     25.901949     51.803898
     -2.637638     28.054997     28.054997     56.109995
     -2.627628     29.658758     29.658758     59.317515
     -2.617618     30.774247     30.774247     61.548494
     -2.607608     31.609269     31.609269     63.218538
     -2.597598     32.374349     32.374349     64.748699
     -2.587588     33.167584     33.167584     66.335167
     -2.577578     33.945167     33.945167     67.890334
     -2.567568     34.565160     34.565160     69.130320
     -2.557558     34.848343     34.848343     69.696686
     -2.547548     34.613856     34.613856     69.227712
     -2.537538     33.696428     33.696428     67.392856
     -2.527528     31.983219     31.983219     63.966439
     -2.517518     29.489121     29.489121     58.978242
     -2.507508     26.437991     26.437991     52.875982
     -2.497497     23.283967     23.283967     46.567934
     -2.487487     20.626269     20.626269     41.252538
     -2.477477     19.032273     19.032273     38.064547
     -2.467467     18.843416     18.843416     37.686832
     -2.457457     20.056542     20.056542     40.113085
     -2.447447     22.340030     22.340030     44.680060
     -2.437437     25.179789     25.179789     50.359578
     -2.427427     28.088418     28.088418     56.176836
     -2.417417     30.780357     30.780357     61.560714
     -2.407407     33.230870     33.230870     66.461740
     -2.397397     35.591492     35.591492     71.182984
     -2.387387     38.004780     38.004780     76.009559
     -2.377377     40.413435     40.413435     80.826870
     -2.367367     42.466751     42.466751     84.933501
     -2.357357     43.584771     43.584771     87.169542
     -2.347347     43.165636     43.165636     86.331271
     -2.337337     40.849284     40.849284     81.698569
     -2.327327     36.717860     36.717860     73.435721
     -2.317317     31.339255     31.339255     62.678511
     -2.307307     25.633317     25.633317     51.266634
     -2.297297     20.620414     20.620414     41.240827
     -2.287287     17.155720     17.155720     34.311440
     -2.277277     15.741656     15.741656     31.483312
     -2.267267     16.462207     16.462207     32.924415
     -2.257257     19.030598     19.030598     38.061197
     -2.247247     22.910228     22.910228     45.820456
     -2.237237     27.460408     27.460408     54.920817
     -2.227227     32.063721     32.063721     64.127443
     -2.217217     36.204550     36.204550     72.409099
     -2.207207     39.489294     39.489294     78.978589
     -2.197197     41.626187     41.626187     83.252373
     -2.187187     42.403940     42.403940     84.807880
     -2.177177     41.706247     41.706247     83.412495
     -2.167167     39.567367     39.567367     79.134734
     -2.157157     36.230394     36.230394     72.460787
     -2.147147     32.147734     32.147734     64.295469
     -2.137137     27.886567     27.886567     55.773133
     -2.127127     23.961603     23.961603     47.923207
     -2.117117     20.672794     20.672794     41.345589
     -2.107107     18.034140     18.034140     36.068281
     -2.097097     15.831318     15.831318     31.662636
     -2.087087     13.772106     13.772106     27.544213
     -2.077077     11.644619     11.644619     23.289239
     -2.067067      9.404246      9.404246     18.808492
     -2.057057      7.161161      7.161161     14.322322
     -2.047047      5.097893      5.097893     10.195786
     -2.037037      3.374881      3.374881      6.749763
     -2.027027      2.071539      2.071539      4.143078
     -2.017017      1.178026      1.178026      2.356052
     -2.007007      0.623865      0.623865      1.247731
     -1.996997      0.318578      0.318578      0.637156
     -1.986987      0.185404      0.185404      0.370809
     -1.976977      0.181508      0.181508      0.363016
     -1.966967      0.306997      0.306997      0.613993
     -1.956957      0.606881      0.606881      1.213761
     -1.946947      1.166528      1.166528      2.333057
     -1.936937      2.096823      2.096823      4.193647
     -1.926927      3.504718      3.504718      7.009437
     -1.916917      5.450532      5.450532     10.901064
     -1.906907      7.903243      7.903243     15.806485
     -1.896897     10.712869     10.712869     21.425739
     -1.886887     13.617629     13.617629     27.235258
     -1.876877     16.291029     16.291029     32.582058
     -1.866867     18.416735     18.416735     36.833470
     -1.856857     19.767283     19.767283     39.534566
     -1.846847     20.262069     20.262069     40.524138
     -1.836837     19.987277     19.987277     39.974554
     -1.826827     19.169385     19.169385     38.338770
     -1.816817     18.103726     18.103726     36.207452
     -1.806807     17.054308     17.054308     34.108617
     -1.796797     16.159356     16.159356     32.318713
     -1.786787     15.386122     15.386122     30.772244
     -1.776777     14.563565     14.563565     29.127130
     -1.766767     13.483365     13.483365     26.966730
     -1.756757     12.020709     12.020709     24.041419
     -1.746747     10.214646     10.214646     20.429293
     -1.736737      8.272912      8.272912     16.545825
     -1.726727      6.509756      6.509756     13.019512
     -1.716717      5.256333      5.256333     10.512667
     -1.706707      4.783649      4.783649      9.567298
     -1.696697      5.254924      5.254924     10.509848
     -1.686687      6.700755      6.700755     13.401509
     -1.676677      9.004441      9.004441     18.008881
     -1.666667     11.896448     11.896448     23.792895
     -1.656657     14.971195     14.971195     29.942389
     -1.646647     17.741155     17.741155     35.482309
     -1.636637     19.729099     19.729099     39.458199
     -1.626627     20.578675     20.578675     41.157350
