# EIG2DOS: Utility for SIESTA to obtain the electronic density of states
#  E. Artacho, Apr 1999, A. Garcia, Apr 2012
#  Nick R. Papior, Feb 2017
# ------------------------------------------
# Eigenvalues calculated from a non-polarized calculation
# Eigenvalues read from siesta.EIG
# Kpoint weights read from siesta.KP
# Using smearing parameter:   0.0500
# Using 1000 points in the energy range
# Selected bands: 1 to: 2981
# Emin, Emax in file for selected band(s):    -27.1967980    218.3494740
# Nbands, Nspin, Nk   =   2981     1     1
# E_F                 =    -4.2581 eV --> (shifted to ZERO)
# Broadening          =     0.0500 eV
#
#        E            N(up)  (=)   N(down)         Ntot
     -5.000000     34.651093     34.651093     69.302186
     -4.989990     38.255074     38.255074     76.510148
     -4.979980     41.295686     41.295686     82.591372
     -4.969970     43.275433     43.275433     86.550866
     -4.959960     43.853783     43.853783     87.707566
     -4.949950     42.941309     42.941309     85.882617
     -4.939940     40.732302     40.732302     81.464605
     -4.929930     37.674744     37.674744     75.349487
     -4.919920     34.400870     34.400870     68.801741
     -4.909910     31.642619     31.642619     63.285239
     -4.899900     30.135650     30.135650     60.271301
     -4.889890     30.495015     30.495015     60.990029
     -4.879880     33.051807     33.051807     66.103613
     -4.869870     37.681364     37.681364     75.362729
     -4.859860     43.703897     43.703897     87.407793
     -4.849850     49.950983     49.950983     99.901965
     -4.839840     55.035581     55.035581    110.071163
     -4.829830     57.757282     57.757282    115.514563
     -4.819820     57.482728     57.482728    114.965456
     -4.809810     54.330760     54.330760    108.661519
     -4.799800     49.080481     49.080481     98.160961
     -4.789790     42.857637     42.857637     85.715275
     -4.779780     36.755088     36.755088     73.510176
     -4.769770     31.549201     31.549201     63.098402
     -4.759760     27.595235     27.595235     55.190469
     -4.749750     24.883497     24.883497     49.766995
     -4.739740     23.176725     23.176725     46.353451
     -4.729730     22.147714     22.147714     44.295428
     -4.719720     21.472248     21.472248     42.944497
     -4.709710     20.872130     20.872130     41.744260
     -4.699700     20.127880     20.127880     40.255759
     -4.689690     19.088303     19.088303     38.176605
     -4.679680     17.697120     17.697120     35.394241
     -4.669670     16.038446     16.038446     32.076892
     -4.659660     14.380898     14.380898     28.761797
     -4.649650     13.187509     13.187509     26.375019
     -4.639640     13.063831     13.063831     26.127661
     -4.629630     14.636830     14.636830     29.273661
     -4.619620     18.381956     18.381956     36.763911
     -4.609610     24.437699     24.437699     48.875398
     -4.599600     32.463701     32.463701     64.927402
     -4.589590     41.605100     41.605100     83.210200
     -4.579580     50.611097     50.611097    101.222194
     -4.569570     58.110517     58.110517    116.221034
     -4.559560     62.980047     62.980047    125.960095
     -4.549550     64.682295     64.682295    129.364591
     -4.539540     63.437846     63.437846    126.875692
     -4.529530     60.146940     60.146940    120.293880
     -4.519520     56.076092     56.076092    112.152184
     -4.509510     52.426975     52.426975    104.853949
     -4.499499     49.957045     49.957045     99.914091
     -4.489489     48.795293     48.795293     97.590587
     -4.479479     48.505104     48.505104     97.010209
     -4.469469     48.337777     48.337777     96.675555
     -4.459459     47.549609     47.549609     95.099218
     -4.449449     45.652829     45.652829     91.305659
     -4.439439     42.526518     42.526518     85.053036
     -4.429429     38.389620     38.389620     76.779240
     -4.419419     33.692330     33.692330     67.384659
     -4.409409     28.992013     28.992013     57.984027
     -4.399399     24.851947     24.851947     49.703894
     -4.389389     21.763374     21.763374     43.526749
     -4.379379     20.073459     20.073459     40.146918
     -4.369369     19.914430     19.914430     39.828859
     -4.359359     21.157139     21.157139     42.314277
     -4.349349     23.426483     23.426483     46.852967
     -4.339339     26.198414     26.198414     52.396828
     -4.329329     28.956632     28.956632     57.913263
     -4.319319     31.349959     31.349959     62.699918
     -4.309309     33.284999     33.284999     66.569999
     -4.299299     34.916947     34.916947     69.833895
     -4.289289     36.545027     36.545027     73.090053
     -4.279279     38.453258     38.453258     76.906515
     -4.269269     40.751181     40.751181     81.502361
     -4.259259     43.268147     43.268147     86.536294
     -4.249249     45.545875     45.545875     91.091749
     -4.239239     46.952872     46.952872     93.905744
     -4.229229     46.902112     46.902112     93.804225
     -4.219219     45.097372     45.097372     90.194743
     -4.209209     41.696736     41.696736     83.393471
     -4.199199     37.301281     37.301281     74.602563
     -4.189189     32.757650     32.757650     65.515300
     -4.179179     28.862123     28.862123     57.724246
     -4.169169     26.107231     26.107231     52.214462
     -4.159159     24.584690     24.584690     49.169381
     -4.149149     24.070543     24.070543     48.141087
     -4.139139     24.226282     24.226282     48.452565
     -4.129129     24.802938     24.802938     49.605876
     -4.119119     25.747524     25.747524     51.495048
     -4.109109     27.165795     27.165795     54.331591
     -4.099099     29.165173     29.165173     58.330345
     -4.089089     31.662412     31.662412     63.324824
     -4.079079     34.268400     34.268400     68.536799
     -4.069069     36.336465     36.336465     72.672931
     -4.059059     37.180253     37.180253     74.360506
     -4.049049     36.368161     36.368161     72.736321
     -4.039039     33.944463     33.944463     67.888926
     -4.029029     30.456582     30.456582     60.913165
     -4.019019     26.772075     26.772075     53.544150
     -4.009009     23.782583     23.782583     47.565166
     -3.998999     22.142529     22.142529     44.285058
     -3.988989     22.150463     22.150463     44.300925
     -3.978979     23.785844     23.785844     47.571688
     -3.968969     26.831263     26.831263     53.662525
     -3.958959     30.989308     30.989308     61.978617
     -3.948949     35.944516     35.944516     71.889033
     -3.938939     41.380876     41.380876     82.761752
     -3.928929     46.995333     46.995333     93.990665
     -3.918919     52.530058     52.530058    105.060117
     -3.908909     57.805094     57.805094    115.610188
     -3.898899     62.710012     62.710012    125.420024
     -3.888889     67.132276     67.132276    134.264552
     -3.878879     70.848625     70.848625    141.697250
     -3.868869     73.447586     73.447586    146.895172
     -3.858859     74.353376     74.353376    148.706753
     -3.848849     72.976996     72.976996    145.953992
     -3.838839     68.951168     68.951168    137.902335
     -3.828829     62.350093     62.350093    124.700186
     -3.818819     53.786228     53.786228    107.572455
     -3.808809     44.323580     44.323580     88.647159
     -3.798799     35.227634     35.227634     70.455268
     -3.788789     27.642963     27.642963     55.285926
     -3.778779     22.314673     22.314673     44.629345
     -3.768769     19.441873     19.441873     38.883746
     -3.758759     18.693119     18.693119     37.386237
     -3.748749     19.358214     19.358214     38.716429
     -3.738739     20.578756     20.578756     41.157511
     -3.728729     21.592544     21.592544     43.185089
     -3.718719     21.934581     21.934581     43.869162
     -3.708709     21.550569     21.550569     43.101137
     -3.698699     20.795442     20.795442     41.590884
     -3.688689     20.311589     20.311589     40.623179
     -3.678679     20.810859     20.810859     41.621717
     -3.668669     22.817200     22.817200     45.634399
     -3.658659     26.451440     26.451440     52.902881
     -3.648649     31.339727     31.339727     62.679454
     -3.638639     36.691133     36.691133     73.382265
     -3.628629     41.524188     41.524188     83.048377
     -3.618619     44.955975     44.955975     89.911950
     -3.608609     46.439568     46.439568     92.879137
     -3.598599     45.866080     45.866080     91.732159
     -3.588589     43.518057     43.518057     87.036114
     -3.578579     39.925815     39.925815     79.851631
     -3.568569     35.699724     35.699724     71.399449
     -3.558559     31.389620     31.389620     62.779240
     -3.548549     27.389044     27.389044     54.778089
     -3.538539     23.886561     23.886561     47.773122
     -3.528529     20.869534     20.869534     41.739067
     -3.518519     18.185607     18.185607     36.371214
     -3.508509     15.648751     15.648751     31.297502
     -3.498498     13.150548     13.150548     26.301096
     -3.488488     10.728259     10.728259     21.456518
     -3.478478      8.561212      8.561212     17.122424
     -3.468468      6.903109      6.903109     13.806217
     -3.458458      5.984728      5.984728     11.969457
     -3.448448      5.925403      5.925403     11.850806
     -3.438438      6.679285      6.679285     13.358569
     -3.428428      8.029150      8.029150     16.058300
     -3.418418      9.632742      9.632742     19.265484
     -3.408408     11.117827     11.117827     22.235653
     -3.398398     12.204886     12.204886     24.409771
     -3.388388     12.815957     12.815957     25.631913
     -3.378378     13.121658     13.121658     26.243315
     -3.368368     13.498561     13.498561     26.997123
     -3.358358     14.408775     14.408775     28.817549
     -3.348348     16.248194     16.248194     32.496389
     -3.338338     19.216755     19.216755     38.433510
     -3.328328     23.242354     23.242354     46.484707
     -3.318318     27.962304     27.962304     55.924609
     -3.308308     32.756509     32.756509     65.513017
     -3.298298     36.836936     36.836936     73.673871
     -3.288288     39.404376     39.404376     78.808752
     -3.278278     39.860431     39.860431     79.720862
     -3.268268     38.014860     38.014860     76.029720
     -3.258258     34.194447     34.194447     68.388895
     -3.248248     29.179672     29.179672     58.359345
     -3.238238     23.971239     23.971239     47.942479
     -3.228228     19.475417     19.475417     38.950833
     -3.218218     16.239365     16.239365     32.478729
     -3.208208     14.341114     14.341114     28.682228
     -3.198198     13.464441     13.464441     26.928881
     -3.188188     13.110214     13.110214     26.220428
     -3.178178     12.848446     12.848446     25.696892
     -3.168168     12.511825     12.511825     25.023650
     -3.158158     12.264641     12.264641     24.529281
     -3.148148     12.532455     12.532455     25.064911
     -3.138138     13.826864     13.826864     27.653728
     -3.128128     16.530464     16.530464     33.060928
     -3.118118     20.714181     20.714181     41.428361
     -3.108108     26.046031     26.046031     52.092061
     -3.098098     31.823979     31.823979     63.647957
     -3.088088     37.130430     37.130430     74.260860
     -3.078078     41.067123     41.067123     82.134246
     -3.068068     42.996734     42.996734     85.993468
     -3.058058     42.706680     42.706680     85.413360
     -3.048048     40.433479     40.433479     80.866958
     -3.038038     36.740394     36.740394     73.480788
     -3.028028     32.304979     32.304979     64.609958
     -3.018018     27.713140     27.713140     55.426279
     -3.008008     23.347492     23.347492     46.694983
     -2.997998     19.402778     19.402778     38.805556
     -2.987988     15.992353     15.992353     31.984706
     -2.977978     13.268168     13.268168     26.536337
     -2.967968     11.482713     11.482713     22.965426
     -2.957958     10.962581     10.962581     21.925163
     -2.947948     12.009063     12.009063     24.018126
     -2.937938     14.768268     14.768268     29.536536
     -2.927928     19.119207     19.119207     38.238413
     -2.917918     24.622181     24.622181     49.244361
     -2.907908     30.557026     30.557026     61.114051
     -2.897898     36.058046     36.058046     72.116092
     -2.887888     40.318118     40.318118     80.636237
     -2.877878     42.798851     42.798851     85.597702
     -2.867868     43.367533     43.367533     86.735065
     -2.857858     42.301211     42.301211     84.602423
     -2.847848     40.151081     40.151081     80.302162
     -2.837838     37.522704     37.522704     75.045407
     -2.827828     34.867022     34.867022     69.734045
     -2.817818     32.371057     32.371057     64.742113
     -2.807808     29.986860     29.986860     59.973719
     -2.797798     27.567993     27.567993     55.135986
     -2.787788     25.030922     25.030922     50.061844
     -2.777778     22.452015     22.452015     44.904030
     -2.767768     20.052598     20.052598     40.105195
     -2.757758     18.091185     18.091185     36.182370
     -2.747748     16.735477     16.735477     33.470954
     -2.737738     15.995590     15.995590     31.991181
     -2.727728     15.758405     15.758405     31.516810
     -2.717718     15.895682     15.895682     31.791364
     -2.707708     16.368369     16.368369     32.736739
     -2.697698     17.250443     17.250443     34.500886
     -2.687688     18.649969     18.649969     37.299938
     -2.677678     20.578567     20.578567     41.157133
     -2.667668     22.862704     22.862704     45.725407
     -2.657658     25.169000     25.169000     50.337999
     -2.647648     27.141339     27.141339     54.282678
     -2.637638     28.569652     28.569652     57.139303
     -2.627628     29.484274     29.484274     58.968548
     -2.617618     30.116597     30.116597     60.233195
     -2.607608     30.754002     30.754002     61.508004
     -2.597598     31.581831     31.581831     63.163661
     -2.587588     32.601736     32.601736     65.203472
     -2.577578     33.652302     33.652302     67.304604
     -2.567568     34.488687     34.488687     68.977375
     -2.557558     34.857110     34.857110     69.714220
     -2.547548     34.535204     34.535204     69.070408
     -2.537538     33.359210     33.359210     66.718420
     -2.527528     31.273356     31.273356     62.546713
     -2.517518     28.403195     28.403195     56.806390
     -2.507508     25.107488     25.107488     50.214976
     -2.497497     21.949644     21.949644     43.899288
     -2.487487     19.566546     19.566546     39.133093
     -2.477477     18.474488     18.474488     36.948976
     -2.467467     18.895610     18.895610     37.791221
     -2.457457     20.686231     20.686231     41.372461
     -2.447447     23.403580     23.403580     46.807159
     -2.437437     26.484298     26.484298     52.968597
     -2.427427     29.456563     29.456563     58.913125
     -2.417417     32.090905     32.090905     64.181810
     -2.407407     34.421337     34.421337     68.842674
     -2.397397     36.628197     36.628197     73.256395
     -2.387387     38.840854     38.840854     77.681708
     -2.377377     40.960299     40.960299     81.920599
     -2.367367     42.597463     42.597463     85.194926
     -2.357357     43.171876     43.171876     86.343753
     -2.347347     42.138598     42.138598     84.277196
     -2.337337     39.244948     39.244948     78.489896
     -2.327327     34.698010     34.698010     69.396019
     -2.317317     29.163412     29.163412     58.326824
     -2.307307     23.596091     23.596091     47.192183
     -2.297297     18.979288     18.979288     37.958575
     -2.287287     16.077693     16.077693     32.155386
     -2.277277     15.285272     15.285272     30.570544
     -2.267267     16.593475     16.593475     33.186950
     -2.257257     19.657467     19.657467     39.314935
     -2.247247     23.916206     23.916206     47.832411
     -2.237237     28.723196     28.723196     57.446393
     -2.227227     33.455539     33.455539     66.911077
     -2.217217     37.582227     37.582227     75.164455
     -2.207207     40.689226     40.689226     81.378453
     -2.197197     42.477779     42.477779     84.955558
     -2.187187     42.764761     42.764761     85.529522
     -2.177177     41.507309     41.507309     83.014619
     -2.167167     38.846324     38.846324     77.692648
     -2.157157     35.131402     35.131402     70.262804
     -2.147147     30.880779     30.880779     61.761559
     -2.137137     26.659690     26.659690     53.319381
     -2.127127     22.915075     22.915075     45.830150
     -2.117117     19.844898     19.844898     39.689797
     -2.107107     17.372423     17.372423     34.744845
     -2.097097     15.239670     15.239670     30.479341
     -2.087087     13.166936     13.166936     26.333873
     -2.077077     10.992320     10.992320     21.984641
     -2.067067      8.726347      8.726347     17.452694
     -2.057057      6.512547      6.512547     13.025094
     -2.047047      4.535547      4.535547      9.071095
     -2.037037      2.934368      2.934368      5.868737
     -2.027027      1.759332      1.759332      3.518663
     -2.017017      0.977531      0.977531      1.955063
     -2.007007      0.507611      0.507611      1.015222
     -1.996997      0.259508      0.259508      0.519017
     -1.986987      0.163906      0.163906      0.327812
     -1.976977      0.188255      0.188255      0.376509
     -1.966967      0.343210      0.343210      0.686421
     -1.956957      0.683241      0.683241      1.366481
     -1.946947      1.300774      1.300774      2.601549
     -1.936937      2.309359      2.309359      4.618717
     -1.926927      3.811952      3.811952      7.623904
     -1.916917      5.857405      5.857405     11.714811
     -1.906907      8.398504      8.398504     16.797007
     -1.896897     11.271841     11.271841     22.543683
     -1.886887     14.216375     14.216375     28.432749
     -1.876877     16.932866     16.932866     33.865732
     -1.866867     19.167727     19.167727     38.335453
     -1.856857     20.792102     20.792102     41.584204
     -1.846847     21.845789     21.845789     43.691578
     -1.836837     22.524114     22.524114     45.048228
     -1.826827     23.101268     23.101268     46.202537
     -1.816817     23.805957     23.805957     47.611914
     -1.806807     24.692486     24.692486     49.384972
     -1.796797     25.569361     25.569361     51.138723
     -1.786787     26.037128     26.037128     52.074256
     -1.776777     25.638772     25.638772     51.277543
     -1.766767     24.061184     24.061184     48.122368
     -1.756757     21.288483     21.288483     42.576965
     -1.746747     17.628932     17.628932     35.257865
     -1.736737     13.606940     13.606940     27.213880
     -1.726727      9.783753      9.783753     19.567505
     -1.716717      6.598634      6.598634     13.197268
     -1.706707      4.294588      4.294588      8.589176
     -1.696697      2.935503      2.935503      5.871005
     -1.686687      2.474066      2.474066      4.948132
     -1.676677      2.815845      2.815845      5.631690
     -1.666667      3.843365      3.843365      7.686730
     -1.656657      5.398008      5.398008     10.796015
     -1.646647      7.247522      7.247522     14.495045
     -1.636637      9.078745      9.078745     18.157491
     -1.626627     10.543053     10.543053     21.086106
