# EIG2DOS: Utility for SIESTA to obtain the electronic density of states
#  E. Artacho, Apr 1999, A. Garcia, Apr 2012
#  Nick R. Papior, Feb 2017
# ------------------------------------------
# Eigenvalues calculated from a non-polarized calculation
# Eigenvalues read from siesta.EIG
# Kpoint weights read from siesta.KP
# Using smearing parameter:   0.0500
# Using 1000 points in the energy range
# Selected bands: 1 to: 2981
# Emin, Emax in file for selected band(s):    -27.2469234    218.4032890
# Nbands, Nspin, Nk   =   2981     1     1
# E_F                 =    -4.1871 eV --> (shifted to ZERO)
# Broadening          =     0.0500 eV
#
#        E            N(up)  (=)   N(down)         Ntot
     -5.000000     33.580552     33.580552     67.161104
     -4.989990     38.813230     38.813230     77.626460
     -4.979980     43.429063     43.429063     86.858125
     -4.969970     46.576977     46.576977     93.153954
     -4.959960     47.653058     47.653058     95.306117
     -4.949950     46.505827     46.505827     93.011654
     -4.939940     43.488360     43.488360     86.976719
     -4.929930     39.358120     39.358120     78.716239
     -4.919920     35.089852     35.089852     70.179705
     -4.909910     31.676910     31.676910     63.353820
     -4.899900     29.959211     29.959211     59.918423
     -4.889890     30.475375     30.475375     60.950750
     -4.879880     33.332728     33.332728     66.665457
     -4.869870     38.122778     38.122778     76.245556
     -4.859860     43.942035     43.942035     87.884071
     -4.849850     49.565415     49.565415     99.130829
     -4.839840     53.754433     53.754433    107.508865
     -4.829830     55.603331     55.603331    111.206662
     -4.819820     54.788249     54.788249    109.576498
     -4.809810     51.618020     51.618020    103.236040
     -4.799800     46.873743     46.873743     93.747486
     -4.789790     41.517423     41.517423     83.034845
     -4.779780     36.397169     36.397169     72.794339
     -4.769770     32.058187     32.058187     64.116373
     -4.759760     28.704103     28.704103     57.408206
     -4.749750     26.282366     26.282366     52.564731
     -4.739740     24.624479     24.624479     49.248958
     -4.729730     23.567977     23.567977     47.135955
     -4.719720     23.012803     23.012803     46.025606
     -4.709710     22.903826     22.903826     45.807651
     -4.699700     23.168625     23.168625     46.337250
     -4.689690     23.662562     23.662562     47.325124
     -4.679680     24.170862     24.170862     48.341725
     -4.669670     24.487311     24.487311     48.974621
     -4.659660     24.542916     24.542916     49.085832
     -4.649650     24.518481     24.518481     49.036962
     -4.639640     24.864997     24.864997     49.729993
     -4.629630     26.185628     26.185628     52.371256
     -4.619620     28.995503     28.995503     57.991006
     -4.609610     33.446070     33.446070     66.892140
     -4.599600     39.143627     39.143627     78.287254
     -4.589590     45.174463     45.174463     90.348927
     -4.579580     50.365190     50.365190    100.730379
     -4.569570     53.690229     53.690229    107.380458
     -4.559560     54.652743     54.652743    109.305486
     -4.549550     53.465179     53.465179    106.930357
     -4.539540     50.947064     50.947064    101.894128
     -4.529530     48.190339     48.190339     96.380678
     -4.519520     46.143671     46.143671     92.287342
     -4.509510     45.288910     45.288910     90.577821
     -4.499499     45.525807     45.525807     91.051613
     -4.489489     46.283605     46.283605     92.567209
     -4.479479     46.787694     46.787694     93.575388
     -4.469469     46.360426     46.360426     92.720853
     -4.459459     44.639986     44.639986     89.279972
     -4.449449     41.651289     41.651289     83.302578
     -4.439439     37.733544     37.733544     75.467087
     -4.429429     33.387943     33.387943     66.775886
     -4.419419     29.129073     29.129073     58.258146
     -4.409409     25.397554     25.397554     50.795108
     -4.399399     22.538207     22.538207     45.076414
     -4.389389     20.804022     20.804022     41.608043
     -4.379379     20.341297     20.341297     40.682595
     -4.369369     21.146055     21.146055     42.292111
     -4.359359     23.025773     23.025773     46.051545
     -4.349349     25.615945     25.615945     51.231889
     -4.339339     28.473398     28.473398     56.946796
     -4.329329     31.217504     31.217504     62.435008
     -4.319319     33.653642     33.653642     67.307283
     -4.309309     35.815714     35.815714     71.631429
     -4.299299     37.902729     37.902729     75.805458
     -4.289289     40.133749     40.133749     80.267498
     -4.279279     42.581067     42.581067     85.162134
     -4.269269     45.052280     45.052280     90.104560
     -4.259259     47.078813     47.078813     94.157627
     -4.249249     48.034485     48.034485     96.068971
     -4.239239     47.357248     47.357248     94.714496
     -4.229229     44.794487     44.794487     89.588974
     -4.219219     40.564392     40.564392     81.128784
     -4.209209     35.348142     35.348142     70.696283
     -4.199199     30.099643     30.099643     60.199287
     -4.189189     25.746593     25.746593     51.493186
     -4.179179     22.909595     22.909595     45.819191
     -4.169169     21.755195     21.755195     43.510390
     -4.159159     22.032554     22.032554     44.065108
     -4.149149     23.259617     23.259617     46.519234
     -4.139139     24.963081     24.963081     49.926162
     -4.129129     26.860147     26.860147     53.720294
     -4.119119     28.901172     28.901172     57.802344
     -4.109109     31.158651     31.158651     62.317301
     -4.099099     33.625841     33.625841     67.251682
     -4.089089     36.043826     36.043826     72.087651
     -4.079079     37.874009     37.874009     75.748018
     -4.069069     38.461580     38.461580     76.923159
     -4.059059     37.325033     37.325033     74.650066
     -4.049049     34.423307     34.423307     68.846615
     -4.039039     30.253661     30.253661     60.507321
     -4.029029     25.724022     25.724022     51.448044
     -4.019019     21.865220     21.865220     43.730440
     -4.009009     19.523866     19.523866     39.047731
     -3.998999     19.165617     19.165617     38.331234
     -3.988989     20.841422     20.841422     41.682844
     -3.978979     24.283459     24.283459     48.566917
     -3.968969     29.052562     29.052562     58.105124
     -3.958959     34.668166     34.668166     69.336332
     -3.948949     40.692353     40.692353     81.384705
     -3.938939     46.775117     46.775117     93.550233
     -3.928929     52.675254     52.675254    105.350508
     -3.918919     58.255302     58.255302    116.510604
     -3.908909     63.435741     63.435741    126.871482
     -3.898899     68.105784     68.105784    136.211568
     -3.888889     72.022349     72.022349    144.044697
     -3.878879     74.757054     74.757054    149.514107
     -3.868869     75.744277     75.744277    151.488554
     -3.858859     74.437575     74.437575    148.875149
     -3.848849     70.522553     70.522553    141.045106
     -3.838839     64.097605     64.097605    128.195210
     -3.828829     55.740889     55.740889    111.481778
     -3.818819     46.427497     46.427497     92.854994
     -3.808809     37.320066     37.320066     74.640133
     -3.798799     29.501501     29.501501     59.003003
     -3.788789     23.733367     23.733367     47.466734
     -3.778779     20.307766     20.307766     40.615533
     -3.768769     19.025935     19.025935     38.051869
     -3.758759     19.298825     19.298825     38.597650
     -3.748749     20.335180     20.335180     40.670360
     -3.738739     21.365968     21.365968     42.731937
     -3.728729     21.850278     21.850278     43.700557
     -3.718719     21.614122     21.614122     43.228245
     -3.708709     20.887603     20.887603     41.775206
     -3.698699     20.226357     20.226357     40.452714
     -3.688689     20.329837     20.329837     40.659675
     -3.678679     21.799656     21.799656     43.599312
     -3.668669     24.908332     24.908332     49.816664
     -3.658659     29.458905     29.458905     58.917810
     -3.648649     34.795618     34.795618     69.591236
     -3.638639     39.973596     39.973596     79.947193
     -3.628629     44.029711     44.029711     88.059422
     -3.618619     46.251607     46.251607     92.503214
     -3.608609     46.345576     46.345576     92.691151
     -3.598599     44.456307     44.456307     88.912614
     -3.588589     41.060049     41.060049     82.120098
     -3.578579     36.795776     36.795776     73.591551
     -3.568569     32.298421     32.298421     64.596842
     -3.558559     28.070357     28.070357     56.140713
     -3.548549     24.402942     24.402942     48.805884
     -3.538539     21.353939     21.353939     42.707878
     -3.528529     18.787444     18.787444     37.574888
     -3.518519     16.471628     16.471628     32.943255
     -3.508509     14.204201     14.204201     28.408403
     -3.498498     11.915798     11.915798     23.831595
     -3.488488      9.707744      9.707744     19.415488
     -3.478478      7.812614      7.812614     15.625227
     -3.468468      6.501743      6.501743     13.003486
     -3.458458      5.981320      5.981320     11.962640
     -3.448448      6.313443      6.313443     12.626886
     -3.438438      7.383523      7.383523     14.767046
     -3.428428      8.923545      8.923545     17.847089
     -3.418418     10.591945     10.591945     21.183890
     -3.408408     12.096415     12.096415     24.192830
     -3.398398     13.323221     13.323221     26.646443
     -3.388388     14.418428     14.418428     28.836856
     -3.378378     15.771720     15.771720     31.543440
     -3.368368     17.889656     17.889656     35.779312
     -3.358358     21.196608     21.196608     42.393216
     -3.348348     25.838793     25.838793     51.677587
     -3.338338     31.567328     31.567328     63.134656
     -3.328328     37.741687     37.741687     75.483375
     -3.318318     43.448556     43.448556     86.897113
     -3.308308     47.698256     47.698256     95.396513
     -3.298298     49.649819     49.649819     99.299639
     -3.288288     48.815693     48.815693     97.631386
     -3.278278     45.196576     45.196576     90.393152
     -3.268268     39.300956     39.300956     78.601911
     -3.258258     32.028686     32.028686     64.057372
     -3.248248     24.446862     24.446862     48.893724
     -3.238238     17.535532     17.535532     35.071065
     -3.228228     11.995037     11.995037     23.990074
     -3.218218      8.171508      8.171508     16.343017
     -3.208208      6.094710      6.094710     12.189420
     -3.198198      5.574832      5.574832     11.149665
     -3.188188      6.299729      6.299729     12.599458
     -3.178178      7.905541      7.905541     15.811082
     -3.168168     10.030662     10.030662     20.061324
     -3.158158     12.374953     12.374953     24.749907
     -3.148148     14.765531     14.765531     29.531061
     -3.138138     17.197561     17.197561     34.395123
     -3.128128     19.806224     19.806224     39.612448
     -3.118118     22.753745     22.753745     45.507491
     -3.108108     26.071205     26.071205     52.142410
     -3.098098     29.539687     29.539687     59.079374
     -3.088088     32.691002     32.691002     65.382005
     -3.078078     34.947864     34.947864     69.895728
     -3.068068     35.841136     35.841136     71.682271
     -3.058058     35.191643     35.191643     70.383286
     -3.048048     33.161784     33.161784     66.323568
     -3.038038     30.158610     30.158610     60.317219
     -3.028028     26.655481     26.655481     53.310963
     -3.018018     23.038479     23.038479     46.076958
     -3.008008     19.554256     19.554256     39.108512
     -2.997998     16.363757     16.363757     32.727515
     -2.987988     13.642663     13.642663     27.285327
     -2.977978     11.652609     11.652609     23.305218
     -2.967968     10.737105     10.737105     21.474209
     -2.957958     11.242921     11.242921     22.485843
     -2.947948     13.401046     13.401046     26.802092
     -2.937938     17.211434     17.211434     34.422868
     -2.927928     22.371156     22.371156     44.742312
     -2.917918     28.276104     28.276104     56.552208
     -2.907908     34.112152     34.112152     68.224303
     -2.897898     39.027093     39.027093     78.054186
     -2.887888     42.341206     42.341206     84.682412
     -2.877878     43.726139     43.726139     87.452279
     -2.867868     43.279166     43.279166     86.558331
     -2.857858     41.453827     41.453827     82.907655
     -2.847848     38.869085     38.869085     77.738170
     -2.837838     36.077751     36.077751     72.155502
     -2.827828     33.397327     33.397327     66.794654
     -2.817818     30.875413     30.875413     61.750826
     -2.807808     28.391508     28.391508     56.783016
     -2.797798     25.826121     25.826121     51.652243
     -2.787788     23.197427     23.197427     46.394855
     -2.777778     20.692333     20.692333     41.384667
     -2.767768     18.585714     18.585714     37.171429
     -2.757758     17.107954     17.107954     34.215908
     -2.747748     16.347169     16.347169     32.694338
     -2.737738     16.243571     16.243571     32.487143
     -2.727728     16.668492     16.668492     33.336983
     -2.717718     17.522472     17.522472     35.044945
     -2.707708     18.775658     18.775658     37.551316
     -2.697698     20.419225     20.419225     40.838450
     -2.687688     22.368199     22.368199     44.736397
     -2.677678     24.400905     24.400905     48.801810
     -2.667668     26.201441     26.201441     52.402882
     -2.657658     27.497846     27.497846     54.995692
     -2.647648     28.212768     28.212768     56.425536
     -2.637638     28.523519     28.523519     57.047038
     -2.627628     28.782801     28.782801     57.565602
     -2.617618     29.341849     29.341849     58.683698
     -2.607608     30.378311     30.378311     60.756622
     -2.597598     31.819898     31.819898     63.639796
     -2.587588     33.385736     33.385736     66.771472
     -2.577578     34.696721     34.696721     69.393441
     -2.567568     35.384663     35.384663     70.769326
     -2.557558     35.162704     35.162704     70.325407
     -2.547548     33.867281     33.867281     67.734561
     -2.537538     31.499735     31.499735     62.999471
     -2.527528     28.272357     28.272357     56.544715
     -2.517518     24.627626     24.627626     49.255252
     -2.507508     21.188777     21.188777     42.377553
     -2.497497     18.627939     18.627939     37.255877
     -2.487487     17.485196     17.485196     34.970393
     -2.477477     18.005564     18.005564     36.011128
     -2.467467     20.061310     20.061310     40.122621
     -2.457457     23.196076     23.196076     46.392153
     -2.447447     26.780066     26.780066     53.560132
     -2.437437     30.220650     30.220650     60.441300
     -2.427427     33.146433     33.146433     66.292867
     -2.417417     35.487510     35.487510     70.975020
     -2.407407     37.413531     37.413531     74.827063
     -2.397397     39.153232     39.153232     78.306464
     -2.387387     40.779333     40.779333     81.558667
     -2.377377     42.070515     42.070515     84.141030
     -2.367367     42.535673     42.535673     85.071346
     -2.357357     41.608234     41.608234     83.216468
     -2.347347     38.925630     38.925630     77.851260
     -2.337337     34.555370     34.555370     69.110739
     -2.327327     29.052241     29.052241     58.104481
     -2.317317     23.320425     23.320425     46.640849
     -2.307307     18.353441     18.353441     36.706881
     -2.297297     14.972586     14.972586     29.945172
     -2.287287     13.660233     13.660233     27.320466
     -2.277277     14.517680     14.517680     29.035361
     -2.267267     17.317777     17.317777     34.635554
     -2.257257     21.600195     21.600195     43.200390
     -2.247247     26.768508     26.768508     53.537016
     -2.237237     32.171250     32.171250     64.342500
     -2.227227     37.166100     37.166100     74.332201
     -2.217217     41.173325     41.173325     82.346651
     -2.207207     43.725693     43.725693     87.451386
     -2.197197     44.520301     44.520301     89.040602
     -2.187187     43.471231     43.471231     86.942462
     -2.177177     40.748962     40.748962     81.497924
     -2.167167     36.778808     36.778808     73.557616
     -2.157157     32.170422     32.170422     64.340844
     -2.147147     27.574920     27.574920     55.149839
     -2.137137     23.508763     23.508763     47.017525
     -2.127127     20.216743     20.216743     40.433486
     -2.117117     17.640768     17.640768     35.281537
     -2.107107     15.511669     15.511669     31.023338
     -2.097097     13.516674     13.516674     27.033348
     -2.087087     11.458073     11.458073     22.916146
     -2.077077      9.332352      9.332352     18.664704
     -2.067067      7.310500      7.310500     14.620999
     -2.057057      5.651787      5.651787     11.303574
     -2.047047      4.603648      4.603648      9.207297
     -2.037037      4.325592      4.325592      8.651184
     -2.027027      4.846707      4.846707      9.693414
     -2.017017      6.049621      6.049621     12.099242
     -2.007007      7.677258      7.677258     15.354516
     -1.996997      9.370517      9.370517     18.741035
     -1.986987     10.745827     10.745827     21.491654
     -1.976977     11.503444     11.503444     23.006889
     -1.966967     11.531550     11.531550     23.063100
     -1.956957     10.959136     10.959136     21.918271
     -1.946947     10.125937     10.125937     20.251874
     -1.936937      9.473921      9.473921     18.947842
     -1.926927      9.400778      9.400778     18.801557
     -1.916917     10.131388     10.131388     20.262777
     -1.906907     11.652394     11.652394     23.304789
     -1.896897     13.726762     13.726762     27.453525
     -1.886887     15.974541     15.974541     31.949081
     -1.876877     17.985838     17.985838     35.971675
     -1.866867     19.428231     19.428231     38.856463
     -1.856857     20.121037     20.121037     40.242074
     -1.846847     20.063919     20.063919     40.127837
     -1.836837     19.418175     19.418175     38.836349
     -1.826827     18.444688     18.444688     36.889375
     -1.816817     17.410296     17.410296     34.820592
     -1.806807     16.489037     16.489037     32.978073
     -1.796797     15.698037     15.698037     31.396073
     -1.786787     14.902876     14.902876     29.805753
     -1.776777     13.896572     13.896572     27.793143
     -1.766767     12.515053     12.515053     25.030106
     -1.756757     10.729261     10.729261     21.458521
     -1.746747      8.668200      8.668200     17.336400
     -1.736737      6.569335      6.569335     13.138670
     -1.726727      4.692912      4.692912      9.385825
     -1.716717      3.249123      3.249123      6.498246
     -1.706707      2.367898      2.367898      4.735796
     -1.696697      2.108359      2.108359      4.216717
     -1.686687      2.481312      2.481312      4.962623
     -1.676677      3.456467      3.456467      6.912933
     -1.666667      4.943905      4.943905      9.887810
     -1.656657      6.764356      6.764356     13.528712
     -1.646647      8.639413      8.639413     17.278825
     -1.636637     10.229566     10.229566     20.459132
     -1.626627     11.223928     11.223928     22.447857
