# EIG2DOS: Utility for SIESTA to obtain the electronic density of states
#  E. Artacho, Apr 1999, A. Garcia, Apr 2012
#  Nick R. Papior, Feb 2017
# ------------------------------------------
# Eigenvalues calculated from a non-polarized calculation
# Eigenvalues read from siesta.EIG
# Kpoint weights read from siesta.KP
# Using smearing parameter:   0.0500
# Using 1000 points in the energy range
# Selected bands: 1 to: 2981
# Emin, Emax in file for selected band(s):    -27.1343289    218.3748110
# Nbands, Nspin, Nk   =   2981     1     1
# E_F                 =    -4.2227 eV --> (shifted to ZERO)
# Broadening          =     0.0500 eV
#
#        E            N(up)  (=)   N(down)         Ntot
     -5.000000     33.970180     33.970180     67.940359
     -4.989990     38.323800     38.323800     76.647601
     -4.979980     42.053231     42.053231     84.106462
     -4.969970     44.546243     44.546243     89.092486
     -4.959960     45.366008     45.366008     90.732016
     -4.949950     44.395013     44.395013     88.790026
     -4.939940     41.882115     41.882115     83.764231
     -4.929930     38.390516     38.390516     76.781033
     -4.919920     34.685850     34.685850     69.371700
     -4.909910     31.609020     31.609020     63.218040
     -4.899900     29.951130     29.951130     59.902259
     -4.889890     30.318316     30.318316     60.636632
     -4.879880     32.976235     32.976235     65.952471
     -4.869870     37.703899     37.703899     75.407799
     -4.859860     43.732865     43.732865     87.465730
     -4.849850     49.852365     49.852365     99.704731
     -4.839840     54.699881     54.699881    109.399762
     -4.829830     57.156234     57.156234    114.312469
     -4.819820     56.688620     56.688620    113.377241
     -4.809810     53.490684     53.490684    106.981369
     -4.799800     48.361301     48.361301     96.722602
     -4.789790     42.389535     42.389535     84.779070
     -4.779780     36.596424     36.596424     73.192849
     -4.769770     31.679974     31.679974     63.359948
     -4.759760     27.932917     27.932917     55.865834
     -4.749750     25.310457     25.310457     50.620914
     -4.739740     23.570623     23.570623     47.141246
     -4.729730     22.409068     22.409068     44.818136
     -4.719720     21.543924     21.543924     43.087847
     -4.709710     20.746048     20.746048     41.492095
     -4.699700     19.837910     19.837910     39.675820
     -4.689690     18.694331     18.694331     37.388661
     -4.679680     17.269387     17.269387     34.538774
     -4.669670     15.649947     15.649947     31.299893
     -4.659660     14.109570     14.109570     28.219141
     -4.649650     13.123075     13.123075     26.246150
     -4.639640     13.310105     13.310105     26.620211
     -4.629630     15.300474     15.300474     30.600948
     -4.619620     19.543197     19.543197     39.086393
     -4.609610     26.107415     26.107415     52.214829
     -4.599600     34.542677     34.542677     69.085355
     -4.589590     43.869689     43.869689     87.739378
     -4.579580     52.746574     52.746574    105.493147
     -4.569570     59.794731     59.794731    119.589462
     -4.559560     63.991650     63.991650    127.983300
     -4.549550     64.986359     64.986359    129.972719
     -4.539540     63.203680     63.203680    126.407361
     -4.529530     59.681742     59.681742    119.363485
     -4.519520     55.699436     55.699436    111.398873
     -4.509510     52.341303     52.341303    104.682607
     -4.499499     50.171137     50.171137    100.342275
     -4.489489     49.131112     49.131112     98.262223
     -4.479479     48.679385     48.679385     97.358770
     -4.469469     48.078709     48.078709     96.157418
     -4.459459     46.699360     46.699360     93.398721
     -4.449449     44.219233     44.219233     88.438466
     -4.439439     40.672621     40.672621     81.345242
     -4.429429     36.375176     36.375176     72.750351
     -4.419419     31.796268     31.796268     63.592535
     -4.409409     27.445254     27.445254     54.890507
     -4.399399     23.798293     23.798293     47.596586
     -4.389389     21.250562     21.250562     42.501124
     -4.379379     20.065383     20.065383     40.130766
     -4.369369     20.313510     20.313510     40.627019
     -4.359359     21.830482     21.830482     43.660963
     -4.349349     24.234637     24.234637     48.469274
     -4.339339     27.026119     27.026119     54.052239
     -4.329329     29.741164     29.741164     59.482328
     -4.319319     32.098560     32.098560     64.197120
     -4.309309     34.072539     34.072539     68.145079
     -4.299299     35.859151     35.859151     71.718301
     -4.289289     37.749536     37.749536     75.499072
     -4.279279     39.958988     39.958988     79.917976
     -4.269269     42.474836     42.474836     84.949672
     -4.259259     44.982562     44.982562     89.965123
     -4.249249     46.911547     46.911547     93.823093
     -4.239239     47.606243     47.606243     95.212485
     -4.229229     46.575627     46.575627     93.151253
     -4.219219     43.722907     43.722907     87.445814
     -4.209209     39.444013     39.444013     78.888025
     -4.199199     34.531351     34.531351     69.062702
     -4.189189     29.912934     29.912934     59.825868
     -4.179179     26.343032     26.343032     52.686064
     -4.169169     24.184936     24.184936     48.369873
     -4.159159     23.374713     23.374713     46.749427
     -4.149149     23.560962     23.560962     47.121925
     -4.139139     24.334125     24.334125     48.668250
     -4.129129     25.427849     25.427849     50.855698
     -4.119119     26.799312     26.799312     53.598624
     -4.109109     28.556996     28.556996     57.113991
     -4.099099     30.777747     30.777747     61.555493
     -4.089089     33.313729     33.313729     66.627458
     -4.079079     35.706747     35.706747     71.413494
     -4.069069     37.283486     37.283486     74.566972
     -4.059059     37.410483     37.410483     74.820965
     -4.049049     35.790281     35.790281     71.580563
     -4.039039     32.643270     32.643270     65.286541
     -4.029029     28.674469     28.674469     57.348938
     -4.019019     24.840919     24.840919     49.681837
     -4.009009     22.039424     22.039424     44.078849
     -3.998999     20.862192     20.862192     41.724383
     -3.988989     21.510245     21.510245     43.020490
     -3.978979     23.858069     23.858069     47.716138
     -3.968969     27.591986     27.591986     55.183971
     -3.958959     32.336237     32.336237     64.672475
     -3.948949     37.724500     37.724500     75.449000
     -3.938939     43.427561     43.427561     86.855122
     -3.928929     49.169459     49.169459     98.338918
     -3.918919     54.745653     54.745653    109.491306
     -3.908909     60.024356     60.024356    120.048712
     -3.898899     64.902612     64.902612    129.805225
     -3.888889     69.216223     69.216223    138.432446
     -3.878879     72.647004     72.647004    145.294009
     -3.868869     74.695073     74.695073    149.390145
     -3.858859     74.764194     74.764194    149.528388
     -3.848849     72.351866     72.351866    144.703732
     -3.838839     67.274769     67.274769    134.549538
     -3.828829     59.830024     59.830024    119.660049
     -3.818819     50.811490     50.811490    101.622980
     -3.808809     41.359336     41.359336     82.718672
     -3.798799     32.690593     32.690593     65.381186
     -3.788789     25.804217     25.804217     51.608435
     -3.778779     21.257457     21.257457     42.514914
     -3.768769     19.075707     19.075707     38.151413
     -3.758759     18.807691     18.807691     37.615383
     -3.748749     19.695034     19.695034     39.390067
     -3.738739     20.901855     20.901855     41.803710
     -3.728729     21.744989     21.744989     43.489977
     -3.718719     21.871633     21.871633     43.743266
     -3.708709     21.343645     21.343645     42.687290
     -3.698699     20.605193     20.605193     41.210387
     -3.688689     20.334702     20.334702     40.669404
     -3.678679     21.212873     21.212873     42.425747
     -3.668669     23.670423     23.670423     47.340846
     -3.658659     27.699061     27.699061     55.398121
     -3.648649     32.801101     32.801101     65.602203
     -3.638639     38.108779     38.108779     76.217557
     -3.628629     42.635798     42.635798     85.271595
     -3.618619     45.564072     45.564072     91.128145
     -3.608609     46.454130     46.454130     92.908261
     -3.598599     45.310058     45.310058     90.620117
     -3.588589     42.502784     42.502784     85.005567
     -3.578579     38.612352     38.612352     77.224704
     -3.568569     34.260405     34.260405     68.520810
     -3.558559     29.976782     29.976782     59.953564
     -3.548549     26.112940     26.112940     52.225881
     -3.538539     22.804129     22.804129     45.608257
     -3.528529     19.986529     19.986529     39.973059
     -3.518519     17.472211     17.472211     34.944422
     -3.508509     15.063231     15.063231     30.126461
     -3.498498     12.661339     12.661339     25.322678
     -3.488488     10.325799     10.325799     20.651597
     -3.478478      8.256580      8.256580     16.513160
     -3.468468      6.716852      6.716852     13.433703
     -3.458458      5.932320      5.932320     11.864640
     -3.448448      6.005133      6.005133     12.010266
     -3.438438      6.866235      6.866235     13.732471
     -3.428428      8.277260      8.277260     16.554520
     -3.418418      9.885641      9.885641     19.771282
     -3.408408     11.326797     11.326797     22.653595
     -3.398398     12.348847     12.348847     24.697695
     -3.388388     12.915860     12.915860     25.831720
     -3.378378     13.242663     13.242663     26.485326
     -3.368368     13.737987     13.737987     27.475973
     -3.358358     14.873106     14.873106     29.746212
     -3.348348     17.024791     17.024791     34.049582
     -3.338338     20.344708     20.344708     40.689416
     -3.328328     24.685601     24.685601     49.371202
     -3.318318     29.590482     29.590482     59.180965
     -3.308308     34.344153     34.344153     68.688306
     -3.298298     38.092635     38.092635     76.185271
     -3.288288     40.031417     40.031417     80.062833
     -3.278278     39.631400     39.631400     79.262800
     -3.268268     36.828087     36.828087     73.656174
     -3.258258     32.085115     32.085115     64.170231
     -3.248248     26.284831     26.284831     52.569661
     -3.238238     20.478423     20.478423     40.956846
     -3.228228     15.594399     15.594399     31.188798
     -3.218218     12.214381     12.214381     24.428762
     -3.208208     10.480899     10.480899     20.961797
     -3.198198     10.140831     10.140831     20.281662
     -3.188188     10.687401     10.687401     21.374802
     -3.178178     11.551404     11.551404     23.102808
     -3.168168     12.293758     12.293758     24.587515
     -3.158158     12.752784     12.752784     25.505569
     -3.148148     13.103308     13.103308     26.206617
     -3.138138     13.801354     13.801354     27.602708
     -3.128128     15.420981     15.420981     30.841962
     -3.118118     18.427802     18.427802     36.855604
     -3.108108     22.961097     22.961097     45.922194
     -3.098098     28.702181     28.702181     57.404362
     -3.088088     34.887189     34.887189     69.774377
     -3.078078     40.478813     40.478813     80.957626
     -3.068068     44.451971     44.451971     88.903941
     -3.058058     46.093768     46.093768     92.187535
     -3.048048     45.199552     45.199552     90.399103
     -3.038038     42.085917     42.085917     84.171835
     -3.028028     37.427126     37.427126     74.854252
     -3.018018     32.006614     32.006614     64.013228
     -3.008008     26.506934     26.506934     53.013867
     -2.997998     21.420774     21.420774     42.841549
     -2.987988     17.084206     17.084206     34.168413
     -2.977978     13.766938     13.766938     27.533876
     -2.967968     11.740140     11.740140     23.480281
     -2.957958     11.275180     11.275180     22.550360
     -2.947948     12.574055     12.574055     25.148111
     -2.937938     15.665991     15.665991     31.331981
     -2.927928     20.316972     20.316972     40.633944
     -2.917918     25.996113     25.996113     51.992226
     -2.907908     31.929078     31.929078     63.858157
     -2.897898     37.243023     37.243023     74.486046
     -2.887888     41.171109     41.171109     82.342219
     -2.877878     43.250411     43.250411     86.500823
     -2.867868     43.435341     43.435341     86.870683
     -2.857858     42.073619     42.073619     84.147238
     -2.847848     39.748045     39.748045     79.496089
     -2.837838     37.049165     37.049165     74.098331
     -2.827828     34.378191     34.378191     68.756383
     -2.817818     31.864828     31.864828     63.729656
     -2.807808     29.426083     29.426083     58.852165
     -2.797798     26.920013     26.920013     53.840026
     -2.787788     24.302397     24.302397     48.604795
     -2.777778     21.699912     21.699912     43.399823
     -2.767768     19.366723     19.366723     38.733445
     -2.757758     17.561105     17.561105     35.122210
     -2.747748     16.423871     16.423871     32.847742
     -2.737738     15.934446     15.934446     31.868892
     -2.727728     15.967019     15.967019     31.934037
     -2.717718     16.401744     16.401744     32.803487
     -2.707708     17.208455     17.208455     34.416910
     -2.697698     18.439566     18.439566     36.879131
     -2.687688     20.134453     20.134453     40.268905
     -2.677678     22.205675     22.205675     44.411350
     -2.667668     24.398347     24.398347     48.796694
     -2.657658     26.368576     26.368576     52.737152
     -2.647648     27.843470     27.843470     55.686940
     -2.637638     28.762782     28.762782     57.525563
     -2.627628     29.308049     29.308049     58.616098
     -2.617618     29.797377     29.797377     59.594754
     -2.607608     30.511054     30.511054     61.022108
     -2.597598     31.551900     31.551900     63.103799
     -2.587588     32.809716     32.809716     65.619432
     -2.577578     34.023718     34.023718     68.047437
     -2.567568     34.881373     34.881373     69.762746
     -2.557558     35.094912     35.094912     70.189824
     -2.547548     34.443326     34.443326     68.886651
     -2.537538     32.808148     32.808148     65.616296
     -2.527528     30.228059     30.228059     60.456119
     -2.517518     26.957513     26.957513     53.915027
     -2.507508     23.479872     23.479872     46.959743
     -2.497497     20.431799     20.431799     40.863598
     -2.487487     18.441932     18.441932     36.883864
     -2.477477     17.940070     17.940070     35.880139
     -2.467467     19.017700     19.017700     38.035399
     -2.457457     21.403247     21.403247     42.806494
     -2.447447     24.567161     24.567161     49.134323
     -2.437437     27.916395     27.916395     55.832789
     -2.427427     30.998222     30.998222     61.996445
     -2.417417     33.626479     33.626479     67.252957
     -2.407407     35.874258     35.874258     71.748515
     -2.397397     37.935918     37.935918     75.871836
     -2.387387     39.923711     39.923711     79.847421
     -2.377377     41.701551     41.701551     83.403102
     -2.367367     42.849201     42.849201     85.698403
     -2.357357     42.792485     42.792485     85.584970
     -2.347347     41.051949     41.051949     82.103898
     -2.337337     37.495701     37.495701     74.991403
     -2.327327     32.472409     32.472409     64.944817
     -2.317317     26.758299     26.758299     53.516597
     -2.307307     21.344993     21.344993     42.689986
     -2.297297     17.166998     17.166998     34.333997
     -2.287287     14.879092     14.879092     29.758183
     -2.277277     14.748825     14.748825     29.497650
     -2.267267     16.666367     16.666367     33.332733
     -2.257257     20.231655     20.231655     40.463311
     -2.247247     24.870210     24.870210     49.740420
     -2.237237     29.942100     29.942100     59.884201
     -2.227227     34.826044     34.826044     69.652089
     -2.217217     38.974030     38.974030     77.948060
     -2.207207     41.942271     41.942271     83.884543
     -2.197197     43.412655     43.412655     86.825310
     -2.187187     43.220564     43.220564     86.441128
     -2.177177     41.393681     41.393681     82.787361
     -2.167167     38.183812     38.183812     76.367623
     -2.157157     34.055374     34.055374     68.110748
     -2.147147     29.600321     29.600321     59.200641
     -2.137137     25.386521     25.386521     50.773043
     -2.127127     21.794772     21.794772     43.589544
     -2.117117     18.922333     18.922333     37.844666
     -2.107107     16.604682     16.604682     33.209363
     -2.097097     14.544084     14.544084     29.088168
     -2.087087     12.475191     12.475191     24.950382
     -2.077077     10.283232     10.283232     20.566464
     -2.067067      8.026459      8.026459     16.052919
     -2.057057      5.872864      5.872864     11.745728
     -2.047047      4.002653      4.002653      8.005307
     -2.037037      2.531517      2.531517      5.063034
     -2.027027      1.483007      1.483007      2.966014
     -2.017017      0.805590      0.805590      1.611180
     -2.007007      0.411317      0.411317      0.822634
     -1.996997      0.213426      0.213426      0.426851
     -1.986987      0.151446      0.151446      0.302891
     -1.976977      0.203686      0.203686      0.407372
     -1.966967      0.391920      0.391920      0.783840
     -1.956957      0.781468      0.781468      1.562935
     -1.946947      1.475237      1.475237      2.950475
     -1.936937      2.597166      2.597166      5.194331
     -1.926927      4.262354      4.262354      8.524707
     -1.916917      6.538325      6.538325     13.076650
     -1.906907      9.410109      9.410109     18.820218
     -1.896897     12.764299     12.764299     25.528598
     -1.886887     16.399524     16.399524     32.799049
     -1.876877     20.056967     20.056967     40.113934
     -1.866867     23.455743     23.455743     46.911486
     -1.856857     26.322541     26.322541     52.645083
     -1.846847     28.418145     28.418145     56.836291
     -1.836837     29.569948     29.569948     59.139895
     -1.826827     29.709169     29.709169     59.418339
     -1.816817     28.893145     28.893145     57.786290
     -1.806807     27.288599     27.288599     54.577199
     -1.796797     25.112953     25.112953     50.225905
     -1.786787     22.562885     22.562885     45.125770
     -1.776777     19.773069     19.773069     39.546138
     -1.766767     16.827646     16.827646     33.655293
     -1.756757     13.808012     13.808012     27.616024
     -1.746747     10.835503     10.835503     21.671006
     -1.736737      8.076262      8.076262     16.152524
     -1.726727      5.707808      5.707808     11.415616
     -1.716717      3.874575      3.874575      7.749150
     -1.706707      2.662590      2.662590      5.325180
     -1.696697      2.103626      2.103626      4.207251
     -1.686687      2.194984      2.194984      4.389967
     -1.676677      2.910318      2.910318      5.820636
     -1.666667      4.185625      4.185625      8.371250
     -1.656657      5.885938      5.885938     11.771875
     -1.646647      7.778719      7.778719     15.557438
     -1.636637      9.545754      9.545754     19.091508
     -1.626627     10.849916     10.849916     21.699832
