# EIG2DOS: Utility for SIESTA to obtain the electronic density of states
#  E. Artacho, Apr 1999, A. Garcia, Apr 2012
#  Nick R. Papior, Feb 2017
# ------------------------------------------
# Eigenvalues calculated from a non-polarized calculation
# Eigenvalues read from siesta.EIG
# Kpoint weights read from siesta.KP
# Using smearing parameter:   0.0500
# Using 1000 points in the energy range
# Selected bands: 1 to: 2981
# Emin, Emax in file for selected band(s):    -27.3170539    218.3979460
# Nbands, Nspin, Nk   =   2981     1     1
# E_F                 =    -4.1955 eV --> (shifted to ZERO)
# Broadening          =     0.0500 eV
#
#        E            N(up)  (=)   N(down)         Ntot
     -5.000000     30.700965     30.700965     61.401929
     -4.989990     35.868533     35.868533     71.737065
     -4.979980     40.917987     40.917987     81.835975
     -4.969970     44.987950     44.987950     89.975900
     -4.959960     47.300916     47.300916     94.601831
     -4.949950     47.420929     47.420929     94.841857
     -4.939940     45.405411     45.405411     90.810821
     -4.929930     41.801277     41.801277     83.602555
     -4.919920     37.507989     37.507989     75.015978
     -4.909910     33.573765     33.573765     67.147529
     -4.899900     30.985776     30.985776     61.971553
     -4.889890     30.481414     30.481414     60.962829
     -4.879880     32.386616     32.386616     64.773233
     -4.869870     36.500660     36.500660     73.001320
     -4.859860     42.076061     42.076061     84.152123
     -4.849850     47.945642     47.945642     95.891285
     -4.839840     52.802095     52.802095    105.604190
     -4.829830     55.557687     55.557687    111.115373
     -4.819820     55.654135     55.654135    111.308270
     -4.809810     53.199269     53.199269    106.398538
     -4.799800     48.880932     48.880932     97.761864
     -4.789790     43.708239     43.708239     87.416478
     -4.779780     38.698237     38.698237     77.396475
     -4.769770     34.627274     34.627274     69.254548
     -4.759760     31.910182     31.910182     63.820365
     -4.749750     30.599459     30.599459     61.198918
     -4.739740     30.454567     30.454567     60.909134
     -4.729730     31.033160     31.033160     62.066319
     -4.719720     31.783689     31.783689     63.567377
     -4.709710     32.142629     32.142629     64.285258
     -4.699700     31.641938     31.641938     63.283877
     -4.689690     30.017193     30.017193     60.034386
     -4.679680     27.290567     27.290567     54.581135
     -4.669670     23.799847     23.799847     47.599693
     -4.659660     20.157965     20.157965     40.315930
     -4.649650     17.148326     17.148326     34.296652
     -4.639640     15.576430     15.576430     31.152860
     -4.629630     16.101811     16.101811     32.203622
     -4.619620     19.072337     19.072337     38.144674
     -4.609610     24.388203     24.388203     48.776406
     -4.599600     31.438518     31.438518     62.877036
     -4.589590     39.162762     39.162762     78.325524
     -4.579580     46.267105     46.267105     92.534211
     -4.569570     51.563622     51.563622    103.127245
     -4.559560     54.325826     54.325826    108.651652
     -4.549550     54.516500     54.516500    109.032999
     -4.539540     52.778933     52.778933    105.557865
     -4.529530     50.181182     50.181182    100.362364
     -4.519520     47.813909     47.813909     95.627817
     -4.509510     46.406441     46.406441     92.812883
     -4.499499     46.111847     46.111847     92.223694
     -4.489489     46.531190     46.531190     93.062381
     -4.479479     46.942235     46.942235     93.884470
     -4.469469     46.617709     46.617709     93.235417
     -4.459459     45.096063     45.096063     90.192126
     -4.449449     42.307370     42.307370     84.614739
     -4.439439     38.534361     38.534361     77.068721
     -4.429429     34.263598     34.263598     68.527197
     -4.419419     30.018236     30.018236     60.036472
     -4.409409     26.247257     26.247257     52.494513
     -4.399399     23.291867     23.291867     46.583734
     -4.389389     21.395282     21.395282     42.790565
     -4.379379     20.703712     20.703712     41.407423
     -4.369369     21.233550     21.233550     42.467100
     -4.359359     22.827772     22.827772     45.655543
     -4.349349     25.152788     25.152788     50.305576
     -4.339339     27.771545     27.771545     55.543090
     -4.329329     30.280182     30.280182     60.560365
     -4.319319     32.449579     32.449579     64.899158
     -4.309309     34.300935     34.300935     68.601870
     -4.299299     36.071869     36.071869     72.143737
     -4.289289     38.077986     38.077986     76.155972
     -4.279279     40.520243     40.520243     81.040486
     -4.269269     43.315235     43.315235     86.630471
     -4.259259     46.027178     46.027178     92.054357
     -4.249249     47.952350     47.952350     95.904700
     -4.239239     48.349073     48.349073     96.698145
     -4.229229     46.734821     46.734821     93.469642
     -4.219219     43.122716     43.122716     86.245433
     -4.209209     38.079811     38.079811     76.159622
     -4.199199     32.566340     32.566340     65.132680
     -4.189189     27.621092     27.621092     55.242185
     -4.179179     24.032313     24.032313     48.064626
     -4.169169     22.133807     22.133807     44.267613
     -4.159159     21.796884     21.796884     43.593769
     -4.149149     22.594071     22.594071     45.188143
     -4.139139     24.039793     24.039793     48.079587
     -4.129129     25.793328     25.793328     51.586656
     -4.119119     27.738446     27.738446     55.476892
     -4.109109     29.914419     29.914419     59.828837
     -4.099099     32.342417     32.342417     64.684834
     -4.089089     34.845658     34.845658     69.691316
     -4.079079     36.974858     36.974858     73.949716
     -4.069069     38.105551     38.105551     76.211102
     -4.059059     37.682393     37.682393     75.364786
     -4.049049     35.495296     35.495296     70.990591
     -4.039039     31.841578     31.841578     63.683155
     -4.029029     27.483297     27.483297     54.966595
     -4.019019     23.417783     23.417783     46.835566
     -4.009009     20.573325     20.573325     41.146651
     -3.998999     19.565540     19.565540     39.131081
     -3.988989     20.598542     20.598542     41.197084
     -3.978979     23.511475     23.511475     47.022949
     -3.968969     27.908762     27.908762     55.817524
     -3.958959     33.300304     33.300304     66.600609
     -3.948949     39.207203     39.207203     78.414407
     -3.938939     45.227100     45.227100     90.454199
     -3.928929     51.071006     51.071006    102.142011
     -3.918919     56.574414     56.574414    113.148829
     -3.908909     61.669005     61.669005    123.338010
     -3.898899     66.303821     66.303821    132.607642
     -3.888889     70.334014     70.334014    140.668029
     -3.878879     73.431060     73.431060    146.862120
     -3.868869     75.078750     75.078750    150.157500
     -3.858859     74.687806     74.687806    149.375612
     -3.848849     71.802129     71.802129    143.604258
     -3.838839     66.316143     66.316143    132.632287
     -3.828829     58.607056     58.607056    117.214112
     -3.818819     49.517367     49.517367     99.034733
     -3.808809     40.184460     40.184460     80.368920
     -3.798799     31.774374     31.774374     63.548748
     -3.788789     25.208820     25.208820     50.417640
     -3.778779     20.968851     20.968851     41.937702
     -3.768769     19.024711     19.024711     38.049421
     -3.758759     18.898545     18.898545     37.797089
     -3.748749     19.831409     19.831409     39.662818
     -3.738739     21.005652     21.005652     42.011304
     -3.728729     21.767412     21.767412     43.534823
     -3.718719     21.797587     21.797587     43.595174
     -3.708709     21.190442     21.190442     42.380884
     -3.698699     20.416309     20.416309     40.832618
     -3.688689     20.169410     20.169410     40.338821
     -3.678679     21.132846     21.132846     42.265693
     -3.668669     23.724792     23.724792     47.449584
     -3.658659     27.910216     27.910216     55.820432
     -3.648649     33.154633     33.154633     66.309266
     -3.638639     38.551576     38.551576     77.103153
     -3.628629     43.085150     43.085150     86.170299
     -3.618619     45.927108     45.927108     91.854216
     -3.608609     46.652388     46.652388     93.304776
     -3.598599     45.300858     45.300858     90.601716
     -3.588589     42.289594     42.289594     84.579188
     -3.578579     38.240579     38.240579     76.481158
     -3.568569     33.800943     33.800943     67.601886
     -3.558559     29.504284     29.504284     59.008567
     -3.548549     25.686954     25.686954     51.373909
     -3.538539     22.458848     22.458848     44.917697
     -3.528529     19.730506     19.730506     39.461013
     -3.518519     17.295418     17.295418     34.590836
     -3.508509     14.947079     14.947079     29.894157
     -3.498498     12.588103     12.588103     25.176205
     -3.488488     10.286502     10.286502     20.573003
     -3.478478      8.259284      8.259284     16.518568
     -3.468468      6.798977      6.798977     13.597955
     -3.458458      6.179836      6.179836     12.359672
     -3.448448      6.577360      6.577360     13.154721
     -3.438438      8.017788      8.017788     16.035575
     -3.428428     10.360857     10.360857     20.721714
     -3.418418     13.316501     13.316501     26.633001
     -3.408408     16.497346     16.497346     32.994691
     -3.398398     19.503661     19.503661     39.007323
     -3.388388     22.024090     22.024090     44.048179
     -3.378378     23.922721     23.922721     47.845443
     -3.368368     25.281181     25.281181     50.562363
     -3.358358     26.376110     26.376110     52.752221
     -3.348348     27.591839     27.591839     55.183678
     -3.338338     29.286644     29.286644     58.573287
     -3.328328     31.644827     31.644827     63.289654
     -3.318318     34.556909     34.556909     69.113819
     -3.308308     37.575712     37.575712     75.151424
     -3.298298     39.988325     39.988325     79.976649
     -3.288288     41.010962     41.010962     82.021925
     -3.278278     40.057245     40.057245     80.114490
     -3.268268     36.977670     36.977670     73.955340
     -3.258258     32.159343     32.159343     64.318686
     -3.248248     26.429600     26.429600     52.859200
     -3.238238     20.799221     20.799221     41.598441
     -3.228228     16.154406     16.154406     32.308812
     -3.218218     13.018968     13.018968     26.037935
     -3.208208     11.461715     11.461715     22.923431
     -3.198198     11.156891     11.156891     22.313783
     -3.188188     11.555068     11.555068     23.110137
     -3.178178     12.100082     12.100082     24.200164
     -3.168168     12.425708     12.425708     24.851416
     -3.158158     12.475064     12.475064     24.950127
     -3.148148     12.506119     12.506119     25.012239
     -3.138138     12.979880     12.979880     25.959760
     -3.128128     14.366782     14.366782     28.733565
     -3.118118     16.937339     16.937339     33.874678
     -3.108108     20.612386     20.612386     41.224773
     -3.098098     24.931878     24.931878     49.863755
     -3.088088     29.162305     29.162305     58.324609
     -3.078078     32.511306     32.511306     65.022612
     -3.068068     34.371203     34.371203     68.742407
     -3.058058     34.494074     34.494074     68.988147
     -3.048048     33.026539     33.026539     66.053078
     -3.038038     30.397617     30.397617     60.795235
     -3.028028     27.125326     27.125326     54.250653
     -3.018018     23.644330     23.644330     47.288660
     -3.008008     20.234335     20.234335     40.468670
     -2.997998     17.062649     17.062649     34.125298
     -2.987988     14.288319     14.288319     28.576638
     -2.977978     12.149650     12.149650     24.299301
     -2.967968     10.979508     10.979508     21.959017
     -2.957958     11.139482     11.139482     22.278965
     -2.947948     12.902853     12.902853     25.805705
     -2.937938     16.332093     16.332093     32.664187
     -2.927928     21.194235     21.194235     42.388469
     -2.917918     26.947355     26.947355     53.894709
     -2.907908     32.816513     32.816513     65.633025
     -2.897898     37.953533     37.953533     75.907065
     -2.887888     41.642614     41.642614     83.285229
     -2.877878     43.485139     43.485139     86.970278
     -2.867868     43.491335     43.491335     86.982670
     -2.857858     42.035461     42.035461     84.070923
     -2.847848     39.687625     39.687625     79.375251
     -2.837838     36.993027     36.993027     73.986054
     -2.827828     34.296357     34.296357     68.592715
     -2.817818     31.686952     31.686952     63.373904
     -2.807808     29.077913     29.077913     58.155825
     -2.797798     26.363024     26.363024     52.726049
     -2.787788     23.557795     23.557795     47.115591
     -2.777778     20.846452     20.846452     41.692903
     -2.767768     18.515504     18.515504     37.031008
     -2.757758     16.821775     16.821775     33.643549
     -2.747748     15.879112     15.879112     31.758224
     -2.737738     15.632243     15.632243     31.264487
     -2.727728     15.928010     15.928010     31.856019
     -2.717718     16.629773     16.629773     33.259545
     -2.707708     17.692143     17.692143     35.384287
     -2.697698     19.141524     19.141524     38.283047
     -2.687688     20.976923     20.976923     41.953847
     -2.677678     23.068192     23.068192     46.136385
     -2.667668     25.138399     25.138399     50.276797
     -2.657658     26.861908     26.861908     53.723816
     -2.647648     28.025885     28.025885     56.051771
     -2.637638     28.651247     28.651247     57.302493
     -2.627628     28.989648     28.989648     57.979296
     -2.617618     29.393108     29.393108     58.786217
     -2.607608     30.134250     30.134250     60.268500
     -2.597598     31.279611     31.279611     62.559223
     -2.587588     32.672877     32.672877     65.345754
     -2.577578     34.009884     34.009884     68.019767
     -2.567568     34.941592     34.941592     69.883184
     -2.557558     35.152762     35.152762     70.305523
     -2.547548     34.410215     34.410215     68.820430
     -2.537538     32.607261     32.607261     65.214521
     -2.527528     29.821119     29.821119     59.642237
     -2.517518     26.362323     26.362323     52.724646
     -2.507508     22.769089     22.769089     45.538178
     -2.497497     19.713359     19.713359     39.426719
     -2.487487     17.831219     17.831219     35.662438
     -2.477477     17.536280     17.536280     35.072560
     -2.467467     18.891398     18.891398     37.782796
     -2.457457     21.594128     21.594128     43.188257
     -2.447447     25.086499     25.086499     50.172998
     -2.437437     28.749278     28.749278     57.498556
     -2.427427     32.103934     32.103934     64.207868
     -2.417417     34.937621     34.937621     69.875242
     -2.407407     37.295487     37.295487     74.590975
     -2.397397     39.343225     39.343225     78.686451
     -2.387387     41.167203     41.167203     82.334407
     -2.377377     42.617571     42.617571     85.235142
     -2.367367     43.287112     43.287112     86.574224
     -2.357357     42.654341     42.654341     85.308683
     -2.347347     40.332092     40.332092     80.664184
     -2.337337     36.300507     36.300507     72.601015
     -2.327327     31.005507     31.005507     62.011013
     -2.317317     25.272530     25.272530     50.545060
     -2.307307     20.079264     20.079264     40.158527
     -2.297297     16.292766     16.292766     32.585532
     -2.287287     14.474243     14.474243     28.948486
     -2.277277     14.802244     14.802244     29.604488
     -2.267267     17.103913     17.103913     34.207827
     -2.257257     20.948910     20.948910     41.897820
     -2.247247     25.758932     25.758932     51.517864
     -2.237237     30.903043     30.903043     61.806086
     -2.227227     35.768000     35.768000     71.536001
     -2.217217     39.805786     39.805786     79.611572
     -2.207207     42.567922     42.567922     85.135844
     -2.197197     43.739078     43.739078     87.478156
     -2.187187     43.178540     43.178540     86.357081
     -2.177177     40.964449     40.964449     81.928899
     -2.167167     37.416515     37.416515     74.833029
     -2.157157     33.062554     33.062554     66.125107
     -2.147147     28.528794     28.528794     57.057587
     -2.137137     24.374348     24.374348     48.748695
     -2.127127     20.933579     20.933579     41.867157
     -2.117117     18.242286     18.242286     36.484572
     -2.107107     16.088027     16.088027     32.176054
     -2.097097     14.159853     14.159853     28.319707
     -2.087087     12.220568     12.220568     24.441136
     -2.077077     10.219121     10.219121     20.438242
     -2.067067      8.301527      8.301527     16.603054
     -2.057057      6.734224      6.734224     13.468447
     -2.047047      5.788448      5.788448     11.576896
     -2.037037      5.634642      5.634642     11.269285
     -2.027027      6.275484      6.275484     12.550967
     -2.017017      7.527027      7.527027     15.054053
     -2.007007      9.049716      9.049716     18.099431
     -1.996997     10.427401     10.427401     20.854802
     -1.986987     11.281421     11.281421     22.562841
     -1.976977     11.388323     11.388323     22.776647
     -1.966967     10.757989     10.757989     21.515977
     -1.956957      9.638138      9.638138     19.276277
     -1.946947      8.440749      8.440749     16.881498
     -1.936937      7.618504      7.618504     15.237008
     -1.926927      7.535946      7.535946     15.071893
     -1.916917      8.374561      8.374561     16.749122
     -1.906907     10.092615     10.092615     20.185230
     -1.896897     12.442213     12.442213     24.884427
     -1.886887     15.033551     15.033551     30.067102
     -1.876877     17.428747     17.428747     34.857494
     -1.866867     19.243158     19.243158     38.486315
     -1.856857     20.231351     20.231351     40.462703
     -1.846847     20.338509     20.338509     40.677018
     -1.836837     19.704033     19.704033     39.408065
     -1.826827     18.611862     18.611862     37.223723
     -1.816817     17.394277     17.394277     34.788553
     -1.806807     16.314771     16.314771     32.629541
     -1.796797     15.473576     15.473576     30.947153
     -1.786787     14.780683     14.780683     29.561367
     -1.776777     14.014990     14.014990     28.029980
     -1.766767     12.944100     12.944100     25.888200
     -1.756757     11.444859     11.444859     22.889719
     -1.746747      9.565060      9.565060     19.130120
     -1.736737      7.502832      7.502832     15.005664
     -1.726727      5.527102      5.527102     11.054205
     -1.716717      3.889180      3.889180      7.778360
     -1.706707      2.768102      2.768102      5.536203
     -1.696697      2.261575      2.261575      4.523150
     -1.686687      2.403749      2.403749      4.807497
     -1.676677      3.179402      3.179402      6.358803
     -1.666667      4.515443      4.515443      9.030887
     -1.656657      6.255111      6.255111     12.510222
     -1.646647      8.141717      8.141717     16.283434
     -1.636637      9.842850      9.842850     19.685699
     -1.626627     11.027581     11.027581     22.055163
