# EIG2DOS: Utility for SIESTA to obtain the electronic density of states
#  E. Artacho, Apr 1999, A. Garcia, Apr 2012
#  Nick R. Papior, Feb 2017
# ------------------------------------------
# Eigenvalues calculated from a non-polarized calculation
# Eigenvalues read from siesta.EIG
# Kpoint weights read from siesta.KP
# Using smearing parameter:   0.0500
# Using 1000 points in the energy range
# Selected bands: 1 to: 2981
# Emin, Emax in file for selected band(s):    -27.0543264    218.3263130
# Nbands, Nspin, Nk   =   2981     1     1
# E_F                 =    -4.2801 eV --> (shifted to ZERO)
# Broadening          =     0.0500 eV
#
#        E            N(up)  (=)   N(down)         Ntot
     -5.000000     40.139288     40.139288     80.278575
     -4.989990     41.984450     41.984450     83.968901
     -4.979980     43.520241     43.520241     87.040483
     -4.969970     44.417952     44.417952     88.835904
     -4.959960     44.358763     44.358763     88.717526
     -4.949950     43.172038     43.172038     86.344075
     -4.939940     40.922000     40.922000     81.844000
     -4.929930     37.923769     37.923769     75.847538
     -4.919920     34.704240     34.704240     69.408479
     -4.909910     31.932415     31.932415     63.864830
     -4.899900     30.327111     30.327111     60.654222
     -4.889890     30.528630     30.528630     61.057259
     -4.879880     32.924041     32.924041     65.848081
     -4.869870     37.455347     37.455347     74.910694
     -4.859860     43.493504     43.493504     86.987007
     -4.849850     49.880678     49.880678     99.761356
     -4.839840     55.191095     55.191095    110.382189
     -4.829830     58.149829     58.149829    116.299659
     -4.819820     58.044572     58.044572    116.089144
     -4.809810     54.943739     54.943739    109.887478
     -4.799800     49.621918     49.621918     99.243836
     -4.789790     43.241023     43.241023     86.482045
     -4.779780     36.949636     36.949636     73.899271
     -4.769770     31.576350     31.576350     63.152701
     -4.759760     27.511116     27.511116     55.022232
     -4.749750     24.758470     24.758470     49.516940
     -4.739740     23.078360     23.078360     46.156721
     -4.729730     22.128278     22.128278     44.256556
     -4.719720     21.560097     21.560097     43.120193
     -4.709710     21.067537     21.067537     42.135074
     -4.699700     20.404198     20.404198     40.808397
     -4.689690     19.397142     19.397142     38.794285
     -4.679680     17.973393     17.973393     35.946786
     -4.669670     16.200873     16.200873     32.401746
     -4.659660     14.327147     14.327147     28.654294
     -4.649650     12.788295     12.788295     25.576591
     -4.639640     12.163272     12.163272     24.326544
     -4.629630     13.064216     13.064216     26.128431
     -4.619620     15.973344     15.973344     31.946689
     -4.609610     21.058503     21.058503     42.117007
     -4.599600     28.021754     28.021754     56.043508
     -4.589590     36.051244     36.051244     72.102488
     -4.579580     43.937055     43.937055     87.874110
     -4.569570     50.360638     50.360638    100.721276
     -4.559560     54.284908     54.284908    108.569816
     -4.549550     55.301098     55.301098    110.602196
     -4.539540     53.779986     53.779986    107.559972
     -4.529530     50.748131     50.748131    101.496261
     -4.519520     47.531232     47.531232     95.062464
     -4.509510     45.310497     45.310497     90.620995
     -4.499499     44.767785     44.767785     89.535569
     -4.489489     45.940291     45.940291     91.880581
     -4.479479     48.302544     48.302544     96.605089
     -4.469469     51.000808     51.000808    102.001617
     -4.459459     53.126443     53.126443    106.252885
     -4.449449     53.936824     53.936824    107.873649
     -4.439439     52.986766     52.986766    105.973533
     -4.429429     50.180425     50.180425    100.360849
     -4.419419     45.769211     45.769211     91.538422
     -4.409409     40.308637     40.308637     80.617274
     -4.399399     34.568919     34.568919     69.137837
     -4.389389     29.392810     29.392810     58.785620
     -4.379379     25.515167     25.515167     51.030333
     -4.369369     23.388698     23.388698     46.777396
     -4.359359     23.076653     23.076653     46.153307
     -4.349349     24.259778     24.259778     48.519557
     -4.339339     26.363246     26.363246     52.726492
     -4.329329     28.759003     28.759003     57.518006
     -4.319319     30.966691     30.966691     61.933382
     -4.309309     32.779431     32.779431     65.558862
     -4.299299     34.276098     34.276098     68.552197
     -4.289289     35.727963     35.727963     71.455926
     -4.279279     37.441264     37.441264     74.882528
     -4.269269     39.589376     39.589376     79.178751
     -4.259259     42.086316     42.086316     84.172633
     -4.249249     44.547057     44.547057     89.094114
     -4.239239     46.365941     46.365941     92.731882
     -4.229229     46.909857     46.909857     93.819714
     -4.219219     45.767478     45.767478     91.534956
     -4.209209     42.947942     42.947942     85.895883
     -4.199199     38.923598     38.923598     77.847197
     -4.189189     34.479204     34.479204     68.958407
     -4.179179     30.431767     30.431767     60.863535
     -4.169169     27.356432     27.356432     54.712864
     -4.159159     25.446678     25.446678     50.893357
     -4.149149     24.558529     24.558529     49.117059
     -4.139139     24.390942     24.390942     48.781884
     -4.129129     24.694236     24.694236     49.388472
     -4.119119     25.398509     25.398509     50.797018
     -4.109109     26.602475     26.602475     53.204949
     -4.099099     28.433063     28.433063     56.866126
     -4.089089     30.851460     30.851460     61.702919
     -4.079079     33.517269     33.517269     67.034538
     -4.069069     35.806647     35.806647     71.613295
     -4.059059     37.007007     37.007007     74.014014
     -4.049049     36.610240     36.610240     73.220479
     -4.039039     34.557906     34.557906     69.115813
     -4.029029     31.306141     31.306141     62.612282
     -4.019019     27.674012     27.674012     55.348024
     -4.009009     24.557548     24.557548     49.115096
     -3.998999     22.655962     22.655962     45.311925
     -3.988989     22.329337     22.329337     44.658674
     -3.978979     23.614929     23.614929     47.229859
     -3.968969     26.339723     26.339723     52.679446
     -3.958959     30.236446     30.236446     60.472892
     -3.948949     35.006636     35.006636     70.013273
     -3.938939     40.337016     40.337016     80.674032
     -3.928929     45.911697     45.911697     91.823395
     -3.918919     51.448815     51.448815    102.897630
     -3.908909     56.746025     56.746025    113.492050
     -3.898899     61.688690     61.688690    123.377380
     -3.888889     66.187550     66.187550    132.375101
     -3.878879     70.062890     70.062890    140.125780
     -3.868869     72.943499     72.943499    145.886997
     -3.858859     74.262124     74.262124    148.524248
     -3.848849     73.389459     73.389459    146.778918
     -3.838839     69.874080     69.874080    139.748160
     -3.828829     63.687936     63.687936    127.375872
     -3.818819     55.357414     55.357414    110.714828
     -3.808809     45.904242     45.904242     91.808485
     -3.798799     36.606210     36.606210     73.212419
     -3.788789     28.667465     28.667465     57.334931
     -3.778779     22.920294     22.920294     45.840587
     -3.768769     19.654748     19.654748     39.309497
     -3.758759     18.612878     18.612878     37.225756
     -3.748749     19.125831     19.125831     38.251661
     -3.738739     20.337824     20.337824     40.675649
     -3.728729     21.452496     21.452496     42.904993
     -3.718719     21.943904     21.943904     43.887808
     -3.708709     21.686564     21.686564     43.373127
     -3.698699     20.973886     20.973886     41.947773
     -3.688689     20.414904     20.414904     40.829809
     -3.678679     20.727738     20.727738     41.455476
     -3.668669     22.481864     22.481864     44.963727
     -3.658659     25.869074     25.869074     51.738148
     -3.648649     30.588317     30.588317     61.176633
     -3.638639     35.898690     35.898690     71.797380
     -3.628629     40.830795     40.830795     81.661590
     -3.618619     44.476423     44.476423     88.952846
     -3.608609     46.240426     46.240426     92.480852
     -3.598599     45.961862     45.961862     91.923724
     -3.588589     43.881186     43.881186     87.762373
     -3.578579     40.500904     40.500904     81.001809
     -3.568569     36.415972     36.415972     72.831944
     -3.558559     32.171091     32.171091     64.342183
     -3.548549     28.165280     28.165280     56.330561
     -3.538539     24.603555     24.603555     49.207111
     -3.528529     21.497227     21.497227     42.994453
     -3.518519     18.717514     18.717514     37.435028
     -3.508509     16.093242     16.093242     32.186484
     -3.498498     13.518334     13.518334     27.036667
     -3.488488     11.022625     11.022625     22.045249
     -3.478478      8.775273      8.775273     17.550547
     -3.468468      7.024163      7.024163     14.048326
     -3.458458      6.002688      6.002688     12.005376
     -3.448448      5.841538      5.841538     11.683076
     -3.438438      6.512064      6.512064     13.024128
     -3.428428      7.814690      7.814690     15.629380
     -3.418418      9.418256      9.418256     18.836512
     -3.408408     10.948509     10.948509     21.897018
     -3.398398     12.107773     12.107773     24.215546
     -3.388388     12.786849     12.786849     25.573698
     -3.378378     13.120914     13.120914     26.241828
     -3.368368     13.458089     13.458089     26.916178
     -3.358358     14.248030     14.248030     28.496061
     -3.348348     15.894582     15.894582     31.789165
     -3.338338     18.626420     18.626420     37.252840
     -3.328328     22.418807     22.418807     44.837614
     -3.318318     26.969325     26.969325     53.938651
     -3.308308     31.717996     31.717996     63.435992
     -3.298298     35.914073     35.914073     71.828146
     -3.288288     38.745068     38.745068     77.490137
     -3.278278     39.528509     39.528509     79.057017
     -3.268268     37.920730     37.920730     75.841461
     -3.258258     34.055373     34.055373     68.110746
     -3.248248     28.531884     28.531884     57.063767
     -3.238238     22.240975     22.240975     44.481951
     -3.228228     16.098868     16.098868     32.197737
     -3.218218     10.806515     10.806515     21.613029
     -3.208208      6.725906      6.725906     13.451811
     -3.198198      3.896003      3.896003      7.792006
     -3.188188      2.145442      2.145442      4.290883
     -3.178178      1.233407      1.233407      2.466813
     -3.168168      0.964677      0.964677      1.929354
     -3.158158      1.255937      1.255937      2.511874
     -3.148148      2.153866      2.153866      4.307732
     -3.138138      3.812664      3.812664      7.625328
     -3.128128      6.436284      6.436284     12.872569
     -3.118118     10.190924     10.190924     20.381849
     -3.108108     15.102877     15.102877     30.205753
     -3.098098     20.971869     20.971869     41.943739
     -3.088088     27.338422     27.338422     54.676844
     -3.078078     33.533701     33.533701     67.067403
     -3.068068     38.810354     38.810354     77.620709
     -3.058058     42.515733     42.515733     85.031467
     -3.048048     44.246229     44.246229     88.492459
     -3.038038     43.928590     43.928590     87.857179
     -3.028028     41.808580     41.808580     83.617161
     -3.018018     38.368262     38.368262     76.736523
     -3.008008     34.215605     34.215605     68.431210
     -2.997998     29.983852     29.983852     59.967703
     -2.987988     26.254496     26.254496     52.508992
     -2.977978     23.499545     23.499545     46.999090
     -2.967968     22.038402     22.038402     44.076804
     -2.957958     22.014665     22.014665     44.029330
     -2.947948     23.400256     23.400256     46.800513
     -2.937938     26.021458     26.021458     52.042916
     -2.927928     29.586835     29.586835     59.173669
     -2.917918     33.700553     33.700553     67.401105
     -2.907908     37.869265     37.869265     75.738530
     -2.897898     41.534852     41.534852     83.069705
     -2.887888     44.161364     44.161364     88.322728
     -2.877878     45.366926     45.366926     90.733853
     -2.867868     45.045913     45.045913     90.091827
     -2.857858     43.410737     43.410737     86.821475
     -2.847848     40.914325     40.914325     81.828651
     -2.837838     38.077304     38.077304     76.154608
     -2.827828     35.298753     35.298753     70.597506
     -2.817818     32.741297     32.741297     65.482593
     -2.807808     30.342295     30.342295     60.684590
     -2.797798     27.935338     27.935338     55.870677
     -2.787788     25.408513     25.408513     50.817027
     -2.777778     22.810007     22.810007     45.620013
     -2.767768     20.345726     20.345726     40.691452
     -2.757758     18.277965     18.277965     36.555930
     -2.747748     16.791782     16.791782     33.583563
     -2.737738     15.913088     15.913088     31.826176
     -2.727728     15.528484     15.528484     31.056969
     -2.717718     15.491306     15.491306     30.982612
     -2.707708     15.741415     15.741415     31.482830
     -2.697698     16.355111     16.355111     32.710222
     -2.687688     17.485819     17.485819     34.971638
     -2.677678     19.229453     19.229453     38.458906
     -2.667668     21.502979     21.502979     43.005958
     -2.657658     24.022402     24.022402     48.044804
     -2.647648     26.405136     26.405136     52.810272
     -2.637638     28.340043     28.340043     56.680085
     -2.627628     29.721832     29.721832     59.443664
     -2.617618     30.668884     30.668884     61.337767
     -2.607608     31.420419     31.420419     62.840837
     -2.597598     32.185229     32.185229     64.370458
     -2.587588     33.035028     33.035028     66.070056
     -2.577578     33.889966     33.889966     67.779931
     -2.567568     34.573721     34.573721     69.147441
     -2.557558     34.879129     34.879129     69.758257
     -2.547548     34.606487     34.606487     69.212975
     -2.537538     33.586125     33.586125     67.172250
     -2.527528     31.721849     31.721849     63.443698
     -2.517518     29.067243     29.067243     58.134486
     -2.507508     25.896960     25.896960     51.793919
     -2.497497     22.709482     22.709482     45.418965
     -2.487487     20.124105     20.124105     40.248210
     -2.477477     18.696644     18.696644     37.393288
     -2.467467     18.731865     18.731865     37.463730
     -2.457457     20.180882     20.180882     40.361763
     -2.447447     22.674251     22.674251     45.348501
     -2.437437     25.678206     25.678206     51.356412
     -2.427427     28.703959     28.703959     57.407918
     -2.417417     31.474443     31.474443     62.948887
     -2.407407     33.971383     33.971383     67.942766
     -2.397397     36.341502     36.341502     72.683005
     -2.387387     38.709486     38.709486     77.418972
     -2.377377     40.994271     40.994271     81.988542
     -2.367367     42.829155     42.829155     85.658311
     -2.357357     43.640368     43.640368     87.280736
     -2.347347     42.862345     42.862345     85.724690
     -2.337337     40.197291     40.197291     80.394582
     -2.327327     35.798758     35.798758     71.597516
     -2.317317     30.291741     30.291741     60.583482
     -2.307307     24.619238     24.619238     49.238477
     -2.297297     19.784134     19.784134     39.568267
     -2.287287     16.592355     16.592355     33.184710
     -2.277277     15.484616     15.484616     30.969232
     -2.267267     16.491132     16.491132     32.982264
     -2.257257     19.292390     19.292390     38.584780
     -2.247247     23.341873     23.341873     46.683745
     -2.237237     28.003529     28.003529     56.007057
     -2.227227     32.666297     32.666297     65.332595
     -2.217217     36.812710     36.812710     73.625420
     -2.207207     40.038120     40.038120     80.076240
     -2.197197     42.039572     42.039572     84.079143
     -2.187187     42.608355     42.608355     85.216709
     -2.177177     41.654194     41.654194     83.308387
     -2.167167     39.258796     39.258796     78.517591
     -2.157157     35.719280     35.719280     71.438560
     -2.147147     31.527647     31.527647     63.055294
     -2.137137     27.259967     27.259967     54.519934
     -2.127127     23.406508     23.406508     46.813015
     -2.117117     20.222041     20.222041     40.444082
     -2.107107     17.675705     17.675705     35.351409
     -2.097097     15.526964     15.526964     31.053929
     -2.087087     13.482816     13.482816     26.965632
     -2.077077     11.349630     11.349630     22.699259
     -2.067067      9.106272      9.106272     18.212544
     -2.057057      6.878973      6.878973     13.757947
     -2.047047      4.853428      4.853428      9.706856
     -2.037037      3.182650      3.182650      6.365301
     -2.027027      1.934465      1.934465      3.868930
     -2.017017      1.089287      1.089287      2.178574
     -2.007007      0.571707      0.571707      1.143414
     -1.996997      0.290980      0.290980      0.581959
     -1.986987      0.172972      0.172972      0.345944
     -1.976977      0.178499      0.178499      0.356998
     -1.966967      0.311184      0.311184      0.622369
     -1.956957      0.618992      0.618992      1.237983
     -1.946947      1.189610      1.189610      2.379221
     -1.936937      2.135538      2.135538      4.271077
     -1.926927      3.564384      3.564384      7.128768
     -1.916917      5.535781      5.535781     11.071562
     -1.906907      8.016345      8.016345     16.032689
     -1.896897     10.851934     10.851934     21.703868
     -1.886887     13.775089     13.775089     27.550179
     -1.876877     16.452988     16.452988     32.905975
     -1.866867     18.563920     18.563920     37.127840
     -1.856857     19.878212     19.878212     39.756423
     -1.846847     20.318245     20.318245     40.636490
     -1.836837     19.978978     19.978978     39.957955
     -1.826827     19.099616     19.099616     38.199232
     -1.816817     17.988299     17.988299     35.976599
     -1.806807     16.918069     16.918069     33.836138
     -1.796797     16.031410     16.031410     32.062819
     -1.786787     15.298712     15.298712     30.597423
     -1.776777     14.558740     14.558740     29.117479
     -1.766767     13.628472     13.628472     27.256945
     -1.756757     12.428683     12.428683     24.857367
     -1.746747     11.058867     11.058867     22.117734
     -1.736737      9.780986      9.780986     19.561972
     -1.726727      8.919846      8.919846     17.839693
     -1.716717      8.729324      8.729324     17.458648
     -1.706707      9.287106      9.287106     18.574211
     -1.696697     10.463710     10.463710     20.927420
     -1.686687     11.975776     11.975776     23.951552
     -1.676677     13.495011     13.495011     26.990022
     -1.666667     14.758753     14.758753     29.517506
     -1.656657     15.629056     15.629056     31.258111
     -1.646647     16.077943     16.077943     32.155886
     -1.636637     16.122136     16.122136     32.244271
     -1.626627     15.762208     15.762208     31.524417
