# EIG2DOS: Utility for SIESTA to obtain the electronic density of states
#  E. Artacho, Apr 1999, A. Garcia, Apr 2012
#  Nick R. Papior, Feb 2017
# ------------------------------------------
# Eigenvalues calculated from a non-polarized calculation
# Eigenvalues read from siesta.EIG
# Kpoint weights read from siesta.KP
# Using smearing parameter:   0.0500
# Using 1000 points in the energy range
# Selected bands: 1 to: 2981
# Emin, Emax in file for selected band(s):    -27.0403795    218.3098450
# Nbands, Nspin, Nk   =   2981     1     1
# E_F                 =    -4.2977 eV --> (shifted to ZERO)
# Broadening          =     0.0500 eV
#
#        E            N(up)  (=)   N(down)         Ntot
     -5.000000     41.798403     41.798403     83.596805
     -4.989990     46.836338     46.836338     93.672677
     -4.979980     50.805332     50.805332    101.610664
     -4.969970     53.113812     53.113812    106.227625
     -4.959960     53.394087     53.394087    106.788175
     -4.949950     51.623848     51.623848    103.247696
     -4.939940     48.154080     48.154080     96.308159
     -4.929930     43.641599     43.641599     87.283198
     -4.919920     38.925715     38.925715     77.851430
     -4.909910     34.897639     34.897639     69.795279
     -4.899900     32.384294     32.384294     64.768587
     -4.889890     32.030708     32.030708     64.061416
     -4.879880     34.155936     34.155936     68.311872
     -4.869870     38.595562     38.595562     77.191124
     -4.859860     44.605153     44.605153     89.210306
     -4.849850     50.926788     50.926788    101.853577
     -4.839840     56.070574     56.070574    112.141147
     -4.829830     58.747472     58.747472    117.494945
     -4.819820     58.281333     58.281333    116.562666
     -4.809810     54.809377     54.809377    109.618754
     -4.799800     49.177744     49.177744     98.355489
     -4.789790     42.594536     42.594536     85.189071
     -4.779780     36.216386     36.216386     72.432771
     -4.769770     30.848165     30.848165     61.696329
     -4.759760     26.842298     26.842298     53.684596
     -4.749750     24.169569     24.169569     48.339137
     -4.739740     22.569145     22.569145     45.138290
     -4.729730     21.691100     21.691100     43.382199
     -4.719720     21.188995     21.188995     42.377990
     -4.709710     20.762445     20.762445     41.524890
     -4.699700     20.171055     20.171055     40.342111
     -4.689690     19.244694     19.244694     38.489389
     -4.679680     17.907816     17.907816     35.815633
     -4.669670     16.220475     16.220475     32.440949
     -4.659660     14.419916     14.419916     28.839833
     -4.649650     12.933885     12.933885     25.867770
     -4.639640     12.338470     12.338470     24.676940
     -4.629630     13.248930     13.248930     26.497860
     -4.619620     16.153987     16.153987     32.307974
     -4.609610     21.227437     21.227437     42.454874
     -4.599600     28.173742     28.173742     56.347484
     -4.589590     36.179104     36.179104     72.358209
     -4.579580     44.028392     44.028392     88.056784
     -4.569570     50.396225     50.396225    100.792449
     -4.559560     54.238069     54.238069    108.476139
     -4.549550     55.137002     55.137002    110.274005
     -4.539540     53.453961     53.453961    106.907922
     -4.529530     50.202295     50.202295    100.404590
     -4.519520     46.688488     46.688488     93.376976
     -4.509510     44.064910     44.064910     88.129820
     -4.499499     42.972423     42.972423     85.944845
     -4.489489     43.399038     43.399038     86.798076
     -4.479479     44.779630     44.779630     89.559260
     -4.469469     46.265029     46.265029     92.530058
     -4.459459     47.038960     47.038960     94.077920
     -4.449449     46.569496     46.569496     93.138991
     -4.439439     44.730253     44.730253     89.460506
     -4.429429     41.784742     41.784742     83.569483
     -4.419419     38.269747     38.269747     76.539494
     -4.409409     34.830389     34.830389     69.660777
     -4.399399     32.055106     32.055106     64.110212
     -4.389389     30.345151     30.345151     60.690301
     -4.379379     29.839872     29.839872     59.679744
     -4.369369     30.408568     30.408568     60.817136
     -4.359359     31.708451     31.708451     63.416902
     -4.349349     33.293709     33.293709     66.587418
     -4.339339     34.745779     34.745779     69.491558
     -4.329329     35.787193     35.787193     71.574387
     -4.319319     36.346434     36.346434     72.692868
     -4.309309     36.558180     36.558180     73.116360
     -4.299299     36.704559     36.704559     73.409119
     -4.289289     37.118293     37.118293     74.236587
     -4.279279     38.072361     38.072361     76.144722
     -4.269269     39.676857     39.676857     79.353715
     -4.259259     41.802650     41.802650     83.605299
     -4.249249     44.058576     44.058576     88.117151
     -4.239239     45.853661     45.853661     91.707322
     -4.229229     46.557556     46.557556     93.115112
     -4.219219     45.723650     45.723650     91.447301
     -4.209209     43.284870     43.284870     86.569739
     -4.199199     39.617805     39.617805     79.235611
     -4.189189     35.423976     35.423976     70.847952
     -4.179179     31.474354     31.474354     62.948709
     -4.169169     28.341647     28.341647     56.683294
     -4.159159     26.249852     26.249852     52.499703
     -4.149149     25.100496     25.100496     50.200993
     -4.139139     24.638087     24.638087     49.276175
     -4.129129     24.651677     24.651677     49.303353
     -4.119119     25.103214     25.103214     50.206429
     -4.109109     26.118339     26.118339     52.236679
     -4.099099     27.845642     27.845642     55.691284
     -4.089089     30.258923     30.258923     60.517845
     -4.079079     33.016468     33.016468     66.032937
     -4.069069     35.477005     35.477005     70.954011
     -4.059059     36.897352     36.897352     73.794703
     -4.049049     36.732796     36.732796     73.465592
     -4.039039     34.889960     34.889960     69.779920
     -4.029029     31.796212     31.796212     63.592424
     -4.019019     28.248741     28.248741     56.497482
     -4.009009     25.128279     25.128279     50.256557
     -3.998999     23.127556     23.127556     46.255112
     -3.988989     22.614186     22.614186     45.228372
     -3.978979     23.651265     23.651265     47.302530
     -3.968969     26.107981     26.107981     52.215962
     -3.958959     29.765416     29.765416     59.530833
     -3.948949     34.364742     34.364742     68.729484
     -3.938939     39.611282     39.611282     79.222563
     -3.928929     45.183088     45.183088     90.366175
     -3.918919     50.774016     50.774016    101.548032
     -3.908909     56.152271     56.152271    112.304542
     -3.898899     61.182117     61.182117    122.364234
     -3.888889     65.769563     65.769563    131.539126
     -3.878879     69.745372     69.745372    139.490743
     -3.868869     72.754008     72.754008    145.508016
     -3.858859     74.235160     74.235160    148.470320
     -3.848849     73.547698     73.547698    147.095397
     -3.838839     70.209965     70.209965    140.419930
     -3.828829     64.156610     64.156610    128.313220
     -3.818819     55.885800     55.885800    111.771601
     -3.808809     46.411941     46.411941     92.823882
     -3.798799     37.027866     37.027866     74.055732
     -3.788789     28.966946     28.966946     57.933891
     -3.778779     23.092860     23.092860     46.185721
     -3.768769     19.719847     19.719847     39.439695
     -3.758759     18.603186     18.603186     37.206372
     -3.748749     19.077304     19.077304     38.154609
     -3.738739     20.282684     20.282684     40.565367
     -3.728729     21.414848     21.414848     42.829695
     -3.718719     21.937097     21.937097     43.874193
     -3.708709     21.711918     21.711918     43.423837
     -3.698699     21.021117     21.021117     42.042235
     -3.688689     20.464721     20.464721     40.929442
     -3.678679     20.756669     20.756669     41.513337
     -3.668669     22.468627     22.468627     44.937254
     -3.658659     25.801131     25.801131     51.602263
     -3.648649     30.466824     30.466824     60.933649
     -3.638639     35.740123     35.740123     71.480246
     -3.628629     40.664211     40.664211     81.328423
     -3.618619     44.336676     44.336676     88.673352
     -3.608609     46.159169     46.159169     92.318337
     -3.598599     45.959201     45.959201     91.918402
     -3.588589     43.960748     43.960748     87.921495
     -3.578579     40.649822     40.649822     81.299644
     -3.568569     36.609456     36.609456     73.218913
     -3.558559     32.379640     32.379640     64.759281
     -3.548549     28.361925     28.361925     56.723850
     -3.538539     24.768977     24.768977     49.537953
     -3.528529     21.621811     21.621811     43.243622
     -3.518519     18.800716     18.800716     37.601433
     -3.508509     16.141386     16.141386     32.282772
     -3.498498     13.542035     13.542035     27.084070
     -3.488488     11.034537     11.034537     22.069075
     -3.478478      8.788296      8.788296     17.576592
     -3.468468      7.049820      7.049820     14.099639
     -3.458458      6.049294      6.049294     12.098588
     -3.448448      5.912027      5.912027     11.824054
     -3.438438      6.601925      6.601925     13.203849
     -3.428428      7.911060      7.911060     15.822120
     -3.418418      9.501357      9.501357     19.002713
     -3.408408     10.995870     10.995870     21.991739
     -3.398398     12.100355     12.100355     24.200710
     -3.388388     12.715021     12.715021     25.430041
     -3.378378     12.988082     12.988082     25.976163
     -3.368368     13.280753     13.280753     26.561505
     -3.358358     14.052362     14.052362     28.104725
     -3.348348     15.710516     15.710516     31.421032
     -3.338338     18.480587     18.480587     36.961174
     -3.328328     22.327935     22.327935     44.655871
     -3.318318     26.936119     26.936119     53.872237
     -3.308308     31.731437     31.731437     63.462873
     -3.298298     35.954664     35.954664     71.909329
     -3.288288     38.793052     38.793052     77.586104
     -3.278278     39.571148     39.571148     79.142297
     -3.268268     37.955119     37.955119     75.910239
     -3.258258     34.085922     34.085922     68.171844
     -3.248248     28.564817     28.564817     57.129635
     -3.238238     22.279502     22.279502     44.559003
     -3.228228     16.141473     16.141473     32.282947
     -3.218218     10.848336     10.848336     21.696673
     -3.208208      6.761277      6.761277     13.522554
     -3.198198      3.920044      3.920044      7.840088
     -3.188188      2.153594      2.153594      4.307187
     -3.178178      1.218999      1.218999      2.437998
     -3.168168      0.915402      0.915402      1.830803
     -3.158158      1.150455      1.150455      2.300909
     -3.148148      1.960067      1.960067      3.920135
     -3.138138      3.489296      3.489296      6.978592
     -3.128128      5.939349      5.939349     11.878698
     -3.118118      9.484954      9.484954     18.969908
     -3.108108     14.175062     14.175062     28.350123
     -3.098098     19.845049     19.845049     39.690099
     -3.088088     26.078328     26.078328     52.156657
     -3.078078     32.247006     32.247006     64.494012
     -3.068068     37.632205     37.632205     75.264410
     -3.058058     41.587368     41.587368     83.174735
     -3.048048     43.684790     43.684790     87.369580
     -3.038038     43.793551     43.793551     87.587101
     -3.028028     42.072970     42.072970     84.145939
     -3.018018     38.906515     38.906515     77.813029
     -3.008008     34.819700     34.819700     69.639400
     -2.997998     30.412268     30.412268     60.824535
     -2.987988     26.305191     26.305191     52.610382
     -2.977978     23.083862     23.083862     46.167725
     -2.967968     21.225434     21.225434     42.450868
     -2.957958     21.021746     21.021746     42.043492
     -2.947948     22.525821     22.525821     45.051642
     -2.937938     25.543600     25.543600     51.087200
     -2.927928     29.669811     29.669811     59.339623
     -2.917918     34.349233     34.349233     68.698465
     -2.907908     38.947221     38.947221     77.894443
     -2.897898     42.829752     42.829752     85.659503
     -2.887888     45.461350     45.461350     90.922700
     -2.877878     46.514599     46.514599     93.029198
     -2.867868     45.956577     45.956577     91.913154
     -2.857858     44.062902     44.062902     88.125803
     -2.847848     41.329972     41.329972     82.659945
     -2.837838     38.305324     38.305324     76.610647
     -2.827828     35.404655     35.404655     70.809310
     -2.817818     32.798853     32.798853     65.597706
     -2.807808     30.422287     30.422287     60.844574
     -2.797798     28.091253     28.091253     56.182506
     -2.787788     25.664052     25.664052     51.328104
     -2.777778     23.154557     23.154557     46.309115
     -2.767768     20.740674     20.740674     41.481349
     -2.757758     18.671173     18.671173     37.342346
     -2.747748     17.133465     17.133465     34.266930
     -2.737738     16.166240     16.166240     32.332480
     -2.727728     15.670898     15.670898     31.341796
     -2.717718     15.511527     15.511527     31.023054
     -2.707708     15.634317     15.634317     31.268634
     -2.697698     16.122232     16.122232     32.244464
     -2.687688     17.141410     17.141410     34.282821
     -2.677678     18.808039     18.808039     37.616078
     -2.667668     21.061440     21.061440     42.122880
     -2.657658     23.631491     23.631491     47.262983
     -2.647648     26.131346     26.131346     52.262693
     -2.637638     28.225215     28.225215     56.450430
     -2.627628     29.770323     29.770323     59.540646
     -2.617618     30.848400     30.848400     61.696800
     -2.607608     31.675197     31.675197     63.350394
     -2.597598     32.454337     32.454337     64.908674
     -2.587588     33.268011     33.268011     66.536023
     -2.577578     34.056065     34.056065     68.112130
     -2.567568     34.665268     34.665268     69.330535
     -2.557558     34.910957     34.910957     69.821913
     -2.547548     34.611635     34.611635     69.223270
     -2.537538     33.606934     33.606934     67.213868
     -2.527528     31.797098     31.797098     63.594196
     -2.517518     29.219116     29.219116     58.438232
     -2.507508     26.123204     26.123204     52.246408
     -2.497497     22.984038     22.984038     45.968075
     -2.487487     20.405119     20.405119     40.810238
     -2.477477     18.937327     18.937327     37.874654
     -2.467467     18.889433     18.889433     37.778866
     -2.457457     20.221398     20.221398     40.442795
     -2.447447     22.574180     22.574180     45.148360
     -2.437437     25.424928     25.424928     50.849857
     -2.427427     28.297077     28.297077     56.594154
     -2.417417     30.928451     30.928451     61.856902
     -2.407407     33.319063     33.319063     66.638126
     -2.397397     35.636465     35.636465     71.272930
     -2.387387     38.025462     38.025462     76.050924
     -2.377377     40.418472     40.418472     80.836945
     -2.367367     42.448158     42.448158     84.896315
     -2.357357     43.520070     43.520070     87.040140
     -2.347347     43.027676     43.027676     86.055352
     -2.337337     40.619880     40.619880     81.239760
     -2.327327     36.399309     36.399309     72.798617
     -2.317317     30.958181     30.958181     61.916361
     -2.307307     25.234705     25.234705     50.469410
     -2.297297     20.254641     20.254641     40.509283
     -2.287287     16.864797     16.864797     33.729595
     -2.277277     15.550599     15.550599     31.101198
     -2.267267     16.377970     16.377970     32.755939
     -2.257257     19.046812     19.046812     38.093625
     -2.247247     23.013660     23.013660     46.027320
     -2.237237     27.635323     27.635323     55.270645
     -2.227227     32.292485     32.292485     64.584971
     -2.217217     36.465362     36.465362     72.930724
     -2.207207     39.753762     39.753762     79.507523
     -2.197197     41.859853     41.859853     83.719706
     -2.187187     42.571578     42.571578     85.143157
     -2.177177     41.781037     41.781037     83.562075
     -2.167167     39.540246     39.540246     79.080492
     -2.157157     36.114559     36.114559     72.229118
     -2.147147     31.974821     31.974821     63.949641
     -2.137137     27.695120     27.695120     55.390241
     -2.127127     23.782887     23.782887     47.565774
     -2.117117     20.520806     20.520806     41.041612
     -2.107107     17.904536     17.904536     35.809072
     -2.097097     15.708930     15.708930     31.417860
     -2.087087     13.642140     13.642140     27.284280
     -2.077077     11.501264     11.501264     23.002528
     -2.067067      9.252865      9.252865     18.505730
     -2.057057      7.014389      7.014389     14.028778
     -2.047047      4.969092      4.969092      9.938183
     -2.037037      3.272822      3.272822      6.545645
     -2.027027      1.998426      1.998426      3.996853
     -2.017017      1.130656      1.130656      2.261313
     -2.007007      0.596371      0.596371      1.192741
     -1.996997      0.305158      0.305158      0.610315
     -1.986987      0.182226      0.182226      0.364452
     -1.976977      0.187729      0.187729      0.375459
     -1.966967      0.325174      0.325174      0.650349
     -1.956957      0.642856      0.642856      1.285711
     -1.946947      1.228501      1.228501      2.457002
     -1.936937      2.193161      2.193161      4.386322
     -1.926927      3.640396      3.640396      7.280792
     -1.916917      5.623020      5.623020     11.246039
     -1.906907      8.099651      8.099651     16.199302
     -1.896897     10.910435     10.910435     21.820869
     -1.886887     13.788574     13.788574     27.577147
     -1.876877     16.410720     16.410720     32.821439
     -1.866867     18.472081     18.472081     36.944162
     -1.856857     19.761790     19.761790     39.523580
     -1.846847     20.215256     20.215256     40.430512
     -1.836837     19.928460     19.928460     39.856920
     -1.826827     19.127870     19.127870     38.255739
     -1.816817     18.098558     18.098558     36.197117
     -1.806807     17.086970     17.086970     34.173941
     -1.796797     16.212225     16.212225     32.424449
     -1.786787     15.427797     15.427797     30.855594
     -1.776777     14.559255     14.559255     29.118509
     -1.766767     13.405360     13.405360     26.810720
     -1.756757     11.852650     11.852650     23.705300
     -1.746747      9.945276      9.945276     19.890551
     -1.736737      7.880164      7.880164     15.760329
     -1.726727      5.942311      5.942311     11.884622
     -1.716717      4.424573      4.424573      8.849147
     -1.706707      3.572652      3.572652      7.145304
     -1.696697      3.566476      3.566476      7.132952
     -1.686687      4.518197      4.518197      9.036393
     -1.676677      6.456613      6.456613     12.913226
     -1.666667      9.284409      9.284409     18.568818
     -1.656657     12.726398     12.726398     25.452795
     -1.646647     16.311981     16.311981     32.623962
     -1.636637     19.433261     19.433261     38.866523
     -1.626627     21.486713     21.486713     42.973425
