# EIG2DOS: Utility for SIESTA to obtain the electronic density of states
#  E. Artacho, Apr 1999, A. Garcia, Apr 2012
#  Nick R. Papior, Feb 2017
# ------------------------------------------
# Eigenvalues calculated from a non-polarized calculation
# Eigenvalues read from siesta.EIG
# Kpoint weights read from siesta.KP
# Using smearing parameter:   0.0500
# Using 1000 points in the energy range
# Selected bands: 1 to: 2981
# Emin, Emax in file for selected band(s):    -27.0993372    218.3260990
# Nbands, Nspin, Nk   =   2981     1     1
# E_F                 =    -4.2854 eV --> (shifted to ZERO)
# Broadening          =     0.0500 eV
#
#        E            N(up)  (=)   N(down)         Ntot
     -5.000000     44.574153     44.574153     89.148306
     -4.989990     46.854718     46.854718     93.709436
     -4.979980     48.030244     48.030244     96.060488
     -4.969970     48.074170     48.074170     96.148340
     -4.959960     47.016419     47.016419     94.032838
     -4.949950     44.952843     44.952843     89.905686
     -4.939940     42.072759     42.072759     84.145518
     -4.929930     38.687473     38.687473     77.374946
     -4.919920     35.244386     35.244386     70.488773
     -4.909910     32.315556     32.315556     64.631111
     -4.899900     30.547374     30.547374     61.094748
     -4.889890     30.553150     30.553150     61.106299
     -4.879880     32.740962     32.740962     65.481924
     -4.869870     37.108646     37.108646     74.217293
     -4.859860     43.091420     43.091420     86.182839
     -4.849850     49.571799     49.571799     99.143599
     -4.839840     55.115658     55.115658    110.231315
     -4.829830     58.387342     58.387342    116.774685
     -4.819820     58.582871     58.582871    117.165741
     -4.809810     55.684345     55.684345    111.368690
     -4.799800     50.417795     50.417795    100.835590
     -4.789790     43.947436     43.947436     87.894872
     -4.779780     37.465907     37.465907     74.931815
     -4.769770     31.865323     31.865323     63.730646
     -4.759760     27.595928     27.595928     55.191856
     -4.749750     24.704463     24.704463     49.408926
     -4.739740     22.969205     22.969205     45.938409
     -4.729730     22.042922     22.042922     44.085844
     -4.719720     21.554858     21.554858     43.109715
     -4.709710     21.166508     21.166508     42.333016
     -4.699700     20.599493     20.599493     41.198987
     -4.689690     19.657355     19.657355     39.314710
     -4.679680     18.255346     18.255346     36.510693
     -4.669670     16.458775     16.458775     32.917551
     -4.659660     14.515555     14.515555     29.031109
     -4.649650     12.859540     12.859540     25.719080
     -4.639640     12.063882     12.063882     24.127764
     -4.629630     12.736627     12.736627     25.473253
     -4.619620     15.367958     15.367958     30.735915
     -4.609610     20.156537     20.156537     40.313074
     -4.599600     26.862008     26.862008     53.724016
     -4.589590     34.746841     34.746841     69.493681
     -4.579580     42.666765     42.666765     85.333530
     -4.569570     49.327832     49.327832     98.655663
     -4.559560     53.653957     53.653957    107.307914
     -4.549550     55.137193     55.137193    110.274385
     -4.539540     54.022264     54.022264    108.044527
     -4.529530     51.232535     51.232535    102.465070
     -4.519520     48.055023     48.055023     96.110047
     -4.509510     45.709311     45.709311     91.418621
     -4.499499     44.971068     44.971068     89.942136
     -4.489489     45.983776     45.983776     91.967551
     -4.479479     48.298176     48.298176     96.596352
     -4.469469     51.082683     51.082683    102.165365
     -4.459459     53.397597     53.397597    106.795194
     -4.449449     54.436129     54.436129    108.872258
     -4.439439     53.683211     53.683211    107.366422
     -4.429429     50.990482     50.990482    101.980963
     -4.419419     46.586032     46.586032     93.172063
     -4.409409     41.030902     41.030902     82.061805
     -4.399399     35.121008     35.121008     70.242017
     -4.389389     29.733757     29.733757     59.467514
     -4.379379     25.638491     25.638491     51.276981
     -4.369369     23.316669     23.316669     46.633339
     -4.359359     22.851310     22.851310     45.702620
     -4.349349     23.931333     23.931333     47.862666
     -4.339339     25.976563     25.976563     51.953126
     -4.329329     28.340714     28.340714     56.681427
     -4.319319     30.517406     30.517406     61.034812
     -4.309309     32.275260     32.275260     64.550520
     -4.299299     33.680829     33.680829     67.361657
     -4.289289     35.013241     35.013241     70.026482
     -4.279279     36.608932     36.608932     73.217865
     -4.269269     38.688752     38.688752     77.377504
     -4.259259     41.219411     41.219411     82.438822
     -4.249249     43.856453     43.856453     87.712905
     -4.239239     46.004120     46.004120     92.008240
     -4.229229     46.995812     46.995812     93.991623
     -4.219219     46.344346     46.344346     92.688691
     -4.209209     43.959229     43.959229     87.918458
     -4.199199     40.220618     40.220618     80.441237
     -4.189189     35.859319     35.859319     71.718637
     -4.179179     31.692799     31.692799     63.385598
     -4.169169     28.345662     28.345662     56.691324
     -4.159159     26.086888     26.086888     52.173777
     -4.149149     24.845133     24.845133     49.690267
     -4.139139     24.366672     24.366672     48.733344
     -4.129129     24.415849     24.415849     48.831698
     -4.119119     24.911755     24.911755     49.823510
     -4.109109     25.937101     25.937101     51.874201
     -4.099099     27.619756     27.619756     55.239512
     -4.089089     29.950096     29.950096     59.900191
     -4.079079     32.636754     32.636754     65.273508
     -4.069069     35.097910     35.097910     70.195820
     -4.059059     36.624500     36.624500     73.249000
     -4.049049     36.656829     36.656829     73.313658
     -4.039039     35.040607     35.040607     70.081213
     -4.029029     32.126262     32.126262     64.252525
     -4.019019     28.656730     28.656730     57.313461
     -4.009009     25.505080     25.505080     51.010161
     -3.998999     23.399015     23.399015     46.798030
     -3.988989     22.757737     22.757737     45.515473
     -3.978979     23.683447     23.683447     47.366893
     -3.968969     26.057515     26.057515     52.115030
     -3.958959     29.651356     29.651356     59.302712
     -3.948949     34.190409     34.190409     68.380818
     -3.938939     39.371289     39.371289     78.742577
     -3.928929     44.873240     44.873240     89.746479
     -3.918919     50.396249     50.396249    100.792497
     -3.908909     55.714576     55.714576    111.429152
     -3.898899     60.698979     60.698979    121.397958
     -3.888889     65.267341     65.267341    130.534682
     -3.878879     69.270937     69.270937    138.541875
     -3.868869     72.379148     72.379148    144.758295
     -3.858859     74.048635     74.048635    148.097269
     -3.848849     73.632543     73.632543    147.265085
     -3.838839     70.612546     70.612546    141.225092
     -3.828829     64.860752     64.860752    129.721503
     -3.818819     56.805322     56.805322    113.610644
     -3.808809     47.407512     47.407512     94.815024
     -3.798799     37.943154     37.943154     75.886308
     -3.788789     29.670690     29.670690     59.341380
     -3.778779     23.511962     23.511962     47.023924
     -3.768769     19.853468     19.853468     39.706937
     -3.758759     18.515560     18.515560     37.031121
     -3.748749     18.873574     18.873574     37.747149
     -3.738739     20.075826     20.075826     40.151651
     -3.728729     21.292860     21.292860     42.585720
     -3.718719     21.938837     21.938837     43.877675
     -3.708709     21.817771     21.817771     43.635542
     -3.698699     21.161189     21.161189     42.322378
     -3.688689     20.542866     20.542866     41.085731
     -3.678679     20.683957     20.683957     41.367913
     -3.668669     22.196060     22.196060     44.392120
     -3.658659     25.340159     25.340159     50.680318
     -3.648649     29.889227     29.889227     59.778455
     -3.638639     35.156321     35.156321     70.312642
     -3.628629     40.188384     40.188384     80.376769
     -3.618619     44.053194     44.053194     88.106389
     -3.608609     46.103559     46.103559     92.207118
     -3.598599     46.118557     46.118557     92.237113
     -3.588589     44.288562     44.288562     88.577124
     -3.578579     41.085155     41.085155     82.170310
     -3.568569     37.092465     37.092465     74.184930
     -3.558559     32.861319     32.861319     65.722638
     -3.548549     28.809772     28.809772     57.619543
     -3.538539     25.169797     25.169797     50.339595
     -3.528529     21.980371     21.980371     43.960741
     -3.518519     19.132517     19.132517     38.265033
     -3.508509     16.460777     16.460777     32.921554
     -3.498498     13.850501     13.850501     27.701003
     -3.488488     11.314846     11.314846     22.629692
     -3.478478      9.007339      9.007339     18.014678
     -3.468468      7.168834      7.168834     14.337667
     -3.458458      6.037551      6.037551     12.075101
     -3.448448      5.759839      5.759839     11.519677
     -3.438438      6.329460      6.329460     12.658919
     -3.428428      7.569737      7.569737     15.139473
     -3.418418      9.165119      9.165119     18.330238
     -3.408408     10.742149     10.742149     21.484298
     -3.398398     11.985213     11.985213     23.970426
     -3.388388     12.751262     12.751262     25.502524
     -3.378378     13.135450     13.135450     26.270900
     -3.368368     13.452609     13.452609     26.905219
     -3.358358     14.136439     14.136439     28.272877
     -3.348348     15.597015     15.597015     31.194030
     -3.338338     18.091128     18.091128     36.182256
     -3.328328     21.641107     21.641107     43.282214
     -3.318318     26.005595     26.005595     52.011190
     -3.308308     30.689792     30.689792     61.379585
     -3.298298     34.994457     34.994457     69.988914
     -3.288288     38.122200     38.122200     76.244399
     -3.278278     39.352565     39.352565     78.705131
     -3.268268     38.253345     38.253345     76.506691
     -3.258258     34.845417     34.845417     69.690834
     -3.248248     29.631358     29.631358     59.262715
     -3.238238     23.454884     23.454884     46.909769
     -3.228228     17.246289     17.246289     34.492579
     -3.218218     11.767535     11.767535     23.535071
     -3.208208      7.461071      7.461071     14.922141
     -3.198198      4.442027      4.442027      8.884054
     -3.188188      2.602118      2.602118      5.204237
     -3.178178      1.756527      1.756527      3.513054
     -3.168168      1.770101      1.770101      3.540202
     -3.158158      2.626474      2.626474      5.252948
     -3.148148      4.429834      4.429834      8.859668
     -3.138138      7.344913      7.344913     14.689827
     -3.128128     11.491713     11.491713     22.983426
     -3.118118     16.824922     16.824922     33.649844
     -3.108108     23.042227     23.042227     46.084454
     -3.098098     29.569189     29.569189     59.138378
     -3.088088     35.649284     35.649284     71.298567
     -3.078078     40.526156     40.526156     81.052311
     -3.068068     43.657490     43.657490     87.314980
     -3.058058     44.871949     44.871949     89.743898
     -3.048048     44.393307     44.393307     88.786615
     -3.038038     42.711520     42.711520     85.423040
     -3.028028     40.356472     40.356472     80.712945
     -3.018018     37.685967     37.685967     75.371934
     -3.008008     34.797674     34.797674     69.595347
     -2.997998     31.608315     31.608315     63.216631
     -2.987988     28.048036     28.048036     56.096073
     -2.977978     24.253034     24.253034     48.506068
     -2.967968     20.645782     20.645782     41.291564
     -2.957958     17.860634     17.860634     35.721268
     -2.947948     16.554127     16.554127     33.108255
     -2.937938     17.185254     17.185254     34.370507
     -2.927928     19.847707     19.847707     39.695414
     -2.917918     24.204136     24.204136     48.408272
     -2.907908     29.538105     29.538105     59.076210
     -2.897898     34.912299     34.912299     69.824599
     -2.887888     39.396079     39.396079     78.792157
     -2.877878     42.299959     42.299959     84.599918
     -2.867868     43.340707     43.340707     86.681415
     -2.857858     42.675251     42.675251     85.350503
     -2.847848     40.788331     40.788331     81.576662
     -2.837838     38.279913     38.279913     76.559825
     -2.827828     35.642882     35.642882     71.285764
     -2.817818     33.124440     33.124440     66.248880
     -2.807808     30.722375     30.722375     61.444750
     -2.797798     28.300660     28.300660     56.601321
     -2.787788     25.751638     25.751638     51.503275
     -2.777778     23.113893     23.113893     46.227787
     -2.767768     20.585077     20.585077     41.170154
     -2.757758     18.430959     18.430959     36.861918
     -2.747748     16.851740     16.851740     33.703479
     -2.737738     15.890023     15.890023     31.780047
     -2.727728     15.437618     15.437618     30.875236
     -2.717718     15.335462     15.335462     30.670925
     -2.707708     15.500353     15.500353     31.000706
     -2.697698     15.992415     15.992415     31.984831
     -2.687688     16.973277     16.973277     33.946555
     -2.677678     18.576112     18.576112     37.152224
     -2.667668     20.769911     20.769911     41.539821
     -2.657658     23.310130     23.310130     46.620260
     -2.647648     25.816483     25.816483     51.632966
     -2.637638     27.937238     27.937238     55.874477
     -2.627628     29.501851     29.501851     59.003703
     -2.617618     30.570671     30.570671     61.141342
     -2.607608     31.358399     31.358399     62.716799
     -2.597598     32.088848     32.088848     64.177695
     -2.587588     32.874060     32.874060     65.748119
     -2.577578     33.678381     33.678381     67.356762
     -2.567568     34.359173     34.359173     68.718346
     -2.557558     34.729266     34.729266     69.458531
     -2.547548     34.596398     34.596398     69.192796
     -2.537538     33.782791     33.782791     67.565583
     -2.527528     32.161574     32.161574     64.323149
     -2.517518     29.731160     29.731160     59.462321
     -2.507508     26.698611     26.698611     53.397222
     -2.497497     23.507285     23.507285     47.014570
     -2.487487     20.759322     20.759322     41.518644
     -2.477477     19.042641     19.042641     38.085281
     -2.467467     18.733253     18.733253     37.466505
     -2.457457     19.865822     19.865822     39.731643
     -2.447447     22.136149     22.136149     44.272297
     -2.437437     25.036812     25.036812     50.073623
     -2.427427     28.063883     28.063883     56.127767
     -2.417417     30.898358     30.898358     61.796715
     -2.407407     33.476901     33.476901     66.953801
     -2.397397     35.919439     35.919439     71.838878
     -2.387387     38.352299     38.352299     76.704597
     -2.377377     40.720358     40.720358     81.440716
     -2.367367     42.691490     42.691490     85.382979
     -2.357357     43.714553     43.714553     87.429106
     -2.347347     43.217577     43.217577     86.435154
     -2.337337     40.861649     40.861649     81.723298
     -2.327327     36.734589     36.734589     73.469177
     -2.317317     31.394103     31.394103     62.788206
     -2.307307     25.740140     25.740140     51.480279
     -2.297297     20.772584     20.772584     41.545167
     -2.287287     17.332756     17.332756     34.665512
     -2.277277     15.918246     15.918246     31.836492
     -2.267267     16.615377     16.615377     33.230754
     -2.257257     19.143435     19.143435     38.286869
     -2.247247     22.972785     22.972785     45.945571
     -2.237237     27.469083     27.469083     54.938165
     -2.227227     32.020017     32.020017     64.040034
     -2.217217     36.113908     36.113908     72.227817
     -2.207207     39.360602     39.360602     78.721205
     -2.197197     41.472088     41.472088     82.944176
     -2.187187     42.241013     42.241013     84.482027
     -2.177177     41.553444     41.553444     83.106889
     -2.167167     39.441995     39.441995     78.883989
     -2.157157     36.143085     36.143085     72.286169
     -2.147147     32.099442     32.099442     64.198884
     -2.137137     27.869928     27.869928     55.739856
     -2.127127     23.966210     23.966210     47.932420
     -2.117117     20.691149     20.691149     41.382298
     -2.107107     18.064629     18.064629     36.129258
     -2.097097     15.876700     15.876700     31.753400
     -2.087087     13.835109     13.835109     27.670218
     -2.077077     11.723886     11.723886     23.447772
     -2.067067      9.493173      9.493173     18.986345
     -2.057057      7.249926      7.249926     14.499852
     -2.047047      5.177026      5.177026     10.354052
     -2.037037      3.438204      3.438204      6.876408
     -2.027027      2.117198      2.117198      4.234396
     -2.017017      1.207657      1.207657      2.415314
     -2.007007      0.640765      0.640765      1.281529
     -1.996997      0.325790      0.325790      0.651579
     -1.986987      0.184187      0.184187      0.368375
     -1.976977      0.170200      0.170200      0.340400
     -1.966967      0.280199      0.280199      0.560398
     -1.956957      0.555186      0.555186      1.110372
     -1.946947      1.077464      1.077464      2.154927
     -1.936937      1.957830      1.957830      3.915660
     -1.926927      3.308399      3.308399      6.616797
     -1.916917      5.200968      5.200968     10.401935
     -1.906907      7.620549      7.620549     15.241099
     -1.896897     10.432558     10.432558     20.865115
     -1.886887     13.382856     13.382856     26.765712
     -1.876877     16.139240     16.139240     32.278480
     -1.866867     18.365679     18.365679     36.731358
     -1.856857     19.806642     19.806642     39.613284
     -1.846847     20.354956     20.354956     40.709912
     -1.836837     20.081813     20.081813     40.163625
     -1.826827     19.216772     19.216772     38.433544
     -1.816817     18.077386     18.077386     36.154773
     -1.806807     16.964983     16.964983     33.929965
     -1.796797     16.063093     16.063093     32.126185
     -1.786787     15.385332     15.385332     30.770663
     -1.776777     14.804722     14.804722     29.609445
     -1.766767     14.155847     14.155847     28.311694
     -1.756757     13.356660     13.356660     26.713321
     -1.746747     12.479597     12.479597     24.959195
     -1.736737     11.727726     11.727726     23.455452
     -1.726727     11.327308     11.327308     22.654617
     -1.716717     11.398704     11.398704     22.797408
     -1.706707     11.881455     11.881455     23.762910
     -1.696697     12.558196     12.558196     25.116391
     -1.686687     13.164265     13.164265     26.328529
     -1.676677     13.519326     13.519326     27.038652
     -1.666667     13.603930     13.603930     27.207861
     -1.656657     13.536848     13.536848     27.073695
     -1.646647     13.469588     13.469588     26.939177
     -1.636637     13.465876     13.465876     26.931752
     -1.626627     13.443344     13.443344     26.886689
