# EIG2DOS: Utility for SIESTA to obtain the electronic density of states
#  E. Artacho, Apr 1999, A. Garcia, Apr 2012
#  Nick R. Papior, Feb 2017
# ------------------------------------------
# Eigenvalues calculated from a non-polarized calculation
# Eigenvalues read from siesta.EIG
# Kpoint weights read from siesta.KP
# Using smearing parameter:   0.0500
# Using 1000 points in the energy range
# Selected bands: 1 to: 2981
# Emin, Emax in file for selected band(s):    -27.3250451    218.3867770
# Nbands, Nspin, Nk   =   2981     1     1
# E_F                 =    -4.2173 eV --> (shifted to ZERO)
# Broadening          =     0.0500 eV
#
#        E            N(up)  (=)   N(down)         Ntot
     -5.000000     31.880903     31.880903     63.761805
     -4.989990     36.586791     36.586791     73.173583
     -4.979980     40.995586     40.995586     81.991172
     -4.969970     44.381519     44.381519     88.763037
     -4.959960     46.120289     46.120289     92.240578
     -4.949950     45.895908     45.895908     91.791817
     -4.939940     43.814161     43.814161     87.628323
     -4.929930     40.388646     40.388646     80.777291
     -4.919920     36.424652     36.424652     72.849305
     -4.909910     32.856445     32.856445     65.712891
     -4.899900     30.581075     30.581075     61.162150
     -4.889890     30.298874     30.298874     60.597748
     -4.879880     32.356013     32.356013     64.712027
     -4.869870     36.607524     36.607524     73.215048
     -4.859860     42.359360     42.359360     84.718719
     -4.849850     48.459939     48.459939     96.919879
     -4.839840     53.565305     53.565305    107.130610
     -4.829830     56.513837     56.513837    113.027673
     -4.819820     56.672000     56.672000    113.344001
     -4.809810     54.106968     54.106968    108.213935
     -4.799800     49.517144     49.517144     99.034288
     -4.789790     43.965133     43.965133     87.930265
     -4.779780     38.540969     38.540969     77.081938
     -4.769770     34.090566     34.090566     68.181132
     -4.759760     31.082182     31.082182     62.164364
     -4.749750     29.602651     29.602651     59.205303
     -4.739740     29.427423     29.427423     58.854846
     -4.729730     30.111719     30.111719     60.223438
     -4.719720     31.082496     31.082496     62.164992
     -4.709710     31.737417     31.737417     63.474833
     -4.699700     31.558450     31.558450     63.116900
     -4.689690     30.229720     30.229720     60.459441
     -4.679680     27.730663     27.730663     55.461325
     -4.669670     24.371979     24.371979     48.743958
     -4.659660     20.756290     20.756290     41.512581
     -4.649650     17.668677     17.668677     35.337353
     -4.639640     15.920954     15.920954     31.841908
     -4.629630     16.179531     16.179531     32.359063
     -4.619620     18.803942     18.803942     37.607885
     -4.609610     23.722928     23.722928     47.445855
     -4.599600     30.382478     30.382478     60.764957
     -4.589590     37.805063     37.805063     75.610126
     -4.579580     44.781950     44.781950     89.563899
     -4.569570     50.172976     50.172976    100.345951
     -4.559560     53.228585     53.228585    106.457171
     -4.549550     53.814429     53.814429    107.628857
     -4.539540     52.439088     52.439088    104.878176
     -4.529530     50.059350     50.059350    100.118699
     -4.519520     47.731074     47.731074     95.462148
     -4.509510     46.240769     46.240769     92.481538
     -4.499499     45.860466     45.860466     91.720932
     -4.489489     46.313167     46.313167     92.626334
     -4.479479     46.944669     46.944669     93.889338
     -4.469469     47.013017     47.013017     94.026033
     -4.459459     45.967907     45.967907     91.935814
     -4.449449     43.614058     43.614058     87.228116
     -4.439439     40.119352     40.119352     80.238704
     -4.429429     35.903224     35.903224     71.806448
     -4.419419     31.484757     31.484757     62.969514
     -4.409409     27.364021     27.364021     54.728041
     -4.399399     23.964994     23.964994     47.929989
     -4.389389     21.618041     21.618041     43.236082
     -4.379379     20.539690     20.539690     41.079379
     -4.369369     20.789104     20.789104     41.578209
     -4.359359     22.222920     22.222920     44.445841
     -4.349349     24.495735     24.495735     48.991471
     -4.339339     27.138845     27.138845     54.277690
     -4.329329     29.703662     29.703662     59.407325
     -4.319319     31.911856     31.911856     63.823713
     -4.309309     33.742134     33.742134     67.484268
     -4.299299     35.409821     35.409821     70.819642
     -4.289289     37.241769     37.241769     74.483538
     -4.279279     39.491466     39.491466     78.982932
     -4.269269     42.163766     42.163766     84.327532
     -4.259259     44.922481     44.922481     89.844962
     -4.249249     47.135158     47.135158     94.270317
     -4.239239     48.064028     48.064028     96.128056
     -4.229229     47.146688     47.146688     94.293377
     -4.219219     44.252536     44.252536     88.505072
     -4.209209     39.791048     39.791048     79.582097
     -4.199199     34.606449     34.606449     69.212897
     -4.189189     29.696507     29.696507     59.393014
     -4.179179     25.882196     25.882196     51.764393
     -4.169169     23.575685     23.575685     47.151369
     -4.159159     22.736710     22.736710     45.473420
     -4.149149     23.010236     23.010236     46.020471
     -4.139139     23.957260     23.957260     47.914519
     -4.129129     25.261966     25.261966     50.523932
     -4.119119     26.823985     26.823985     53.647969
     -4.109109     28.703916     28.703916     57.407833
     -4.099099     30.958561     30.958561     61.917122
     -4.089089     33.456934     33.456934     66.913868
     -4.079079     35.786597     35.786597     71.573193
     -4.069069     37.324678     37.324678     74.649357
     -4.059059     37.464474     37.464474     74.928948
     -4.049049     35.896206     35.896206     71.792412
     -4.039039     32.797082     32.797082     65.594165
     -4.029029     28.825726     28.825726     57.651451
     -4.019019     24.919516     24.919516     49.839032
     -4.009009     21.995863     21.995863     43.991726
     -3.998999     20.697027     20.697027     41.394053
     -3.988989     21.275920     21.275920     42.551839
     -3.978979     23.633577     23.633577     47.267155
     -3.968969     27.446110     27.446110     54.892219
     -3.958959     32.299280     32.299280     64.598561
     -3.948949     37.780410     37.780410     75.560820
     -3.938939     43.525212     43.525212     87.050424
     -3.928929     49.242910     49.242910     98.485821
     -3.918919     54.733172     54.733172    109.466344
     -3.908909     59.882208     59.882208    119.764416
     -3.898899     64.615327     64.615327    129.230654
     -3.888889     68.805326     68.805326    137.610653
     -3.878879     72.175885     72.175885    144.351770
     -3.868869     74.263794     74.263794    148.527589
     -3.858859     74.489487     74.489487    148.978973
     -3.848849     72.334669     72.334669    144.669337
     -3.838839     67.566114     67.566114    135.132227
     -3.828829     60.409749     60.409749    120.819497
     -3.818819     51.590051     51.590051    103.180101
     -3.808809     42.202994     42.202994     84.405988
     -3.798799     33.460156     33.460156     66.920313
     -3.788789     26.392760     26.392760     52.785519
     -3.778779     21.614575     21.614575     43.229150
     -3.768769     19.212494     19.212494     38.424988
     -3.758759     18.783747     18.783747     37.567493
     -3.748749     19.593667     19.593667     39.187333
     -3.738739     20.801536     20.801536     41.603072
     -3.728729     21.694731     21.694731     43.389462
     -3.718719     21.876406     21.876406     43.752813
     -3.708709     21.363639     21.363639     42.727278
     -3.698699     20.569862     20.569862     41.139723
     -3.688689     20.168851     20.168851     40.337702
     -3.678679     20.867793     20.867793     41.735585
     -3.668669     23.149488     23.149488     46.298975
     -3.658659     27.066738     27.066738     54.133475
     -3.648649     32.169077     32.169077     64.338155
     -3.638639     37.602454     37.602454     75.204908
     -3.628629     42.354309     42.354309     84.708618
     -3.618619     45.551019     45.551019     91.102038
     -3.608609     46.690842     46.690842     93.381684
     -3.598599     45.731373     45.731373     91.462747
     -3.588589     43.024539     43.024539     86.049077
     -3.578579     39.156786     39.156786     78.313571
     -3.568569     34.770988     34.770988     69.541976
     -3.558559     30.422154     30.422154     60.844307
     -3.548549     26.484397     26.484397     52.968794
     -3.538539     23.110555     23.110555     46.221111
     -3.528529     20.247712     20.247712     40.495424
     -3.518519     17.710159     17.710159     35.420318
     -3.508509     15.292611     15.292611     30.585222
     -3.498498     12.882260     12.882260     25.764520
     -3.488488     10.522370     10.522370     21.044740
     -3.478478      8.402693      8.402693     16.805386
     -3.468468      6.788310      6.788310     13.576620
     -3.458458      5.923670      5.923670     11.847340
     -3.448448      5.950095      5.950095     11.900190
     -3.438438      6.860610      6.860610     13.721220
     -3.428428      8.500980      8.500980     17.001961
     -3.418418     10.616350     10.616350     21.232699
     -3.408408     12.933034     12.933034     25.866067
     -3.398398     15.249873     15.249873     30.499747
     -3.388388     17.500880     17.500880     35.001761
     -3.378378     19.756834     19.756834     39.513669
     -3.368368     22.163740     22.163740     44.327480
     -3.358358     24.853336     24.853336     49.706671
     -3.348348     27.875151     27.875151     55.750303
     -3.338338     31.175992     31.175992     62.351983
     -3.328328     34.610137     34.610137     69.220275
     -3.318318     37.942034     37.942034     75.884067
     -3.308308     40.826767     40.826767     81.653534
     -3.298298     42.802842     42.802842     85.605683
     -3.288288     43.356193     43.356193     86.712387
     -3.278278     42.078980     42.078980     84.157961
     -3.268268     38.869647     38.869647     77.739293
     -3.258258     34.063878     34.063878     68.127756
     -3.248248     28.402025     28.402025     56.804050
     -3.238238     22.823225     22.823225     45.646450
     -3.228228     18.171881     18.171881     36.343763
     -3.218218     14.945649     14.945649     29.891297
     -3.208208     13.185750     13.185750     26.371500
     -3.198198     12.538481     12.538481     25.076962
     -3.188188     12.445936     12.445936     24.891872
     -3.178178     12.383598     12.383598     24.767196
     -3.168168     12.058201     12.058201     24.116402
     -3.158158     11.503367     11.503367     23.006735
     -3.148148     11.050568     11.050568     22.101136
     -3.138138     11.194709     11.194709     22.389418
     -3.128128     12.403525     12.403525     24.807050
     -3.118118     14.931228     14.931228     29.862456
     -3.108108     18.691973     18.691973     37.383946
     -3.098098     23.233622     23.233622     46.467243
     -3.088088     27.828492     27.828492     55.656984
     -3.078078     31.663294     31.663294     63.326587
     -3.068068     34.070211     34.070211     68.140422
     -3.058058     34.713692     34.713692     69.427383
     -3.048048     33.656231     33.656231     67.312463
     -3.038038     31.278191     31.278191     62.556383
     -3.028028     28.098335     28.098335     56.196670
     -3.018018     24.590406     24.590406     49.180811
     -3.008008     21.084286     21.084286     42.168571
     -2.997998     17.782522     17.782522     35.565044
     -2.987988     14.853537     14.853537     29.707074
     -2.977978     12.525943     12.525943     25.051886
     -2.967968     11.120729     11.120729     22.241458
     -2.957958     11.001505     11.001505     22.003010
     -2.947948     12.465160     12.465160     24.930321
     -2.937938     15.616606     15.616606     31.233211
     -2.927928     20.272988     20.272988     40.545976
     -2.917918     25.934794     25.934794     51.869588
     -2.907908     31.847281     31.847281     63.694562
     -2.897898     37.151844     37.151844     74.303688
     -2.887888     41.092983     41.092983     82.185965
     -2.877878     43.214614     43.214614     86.429227
     -2.867868     43.469861     43.469861     86.939721
     -2.857858     42.194556     42.194556     84.389111
     -2.847848     39.950511     39.950511     79.901022
     -2.837838     37.304272     37.304272     74.608544
     -2.827828     34.638441     34.638441     69.276882
     -2.817818     32.076330     32.076330     64.152660
     -2.807808     29.542806     29.542806     59.085612
     -2.797798     26.914790     26.914790     53.829580
     -2.787788     24.171601     24.171601     48.343202
     -2.777778     21.461933     21.461933     42.923867
     -2.767768     19.056461     19.056461     38.112922
     -2.757758     17.222673     17.222673     34.445346
     -2.747748     16.102529     16.102529     32.205059
     -2.737738     15.668041     15.668041     31.336083
     -2.727728     15.777981     15.777981     31.555962
     -2.717718     16.292198     16.292198     32.584397
     -2.707708     17.161302     17.161302     34.322603
     -2.697698     18.426161     18.426161     36.852322
     -2.687688     20.125739     20.125739     40.251478
     -2.677678     22.180967     22.180967     44.361934
     -2.667668     24.346979     24.346979     48.693959
     -2.657658     26.284169     26.284169     52.568338
     -2.647648     27.715738     27.715738     55.431476
     -2.637638     28.573890     28.573890     57.147779
     -2.627628     29.037699     29.037699     58.075398
     -2.617618     29.434829     29.434829     58.869659
     -2.607608     30.067208     30.067208     60.134415
     -2.597598     31.064011     31.064011     62.128021
     -2.587588     32.335666     32.335666     64.671332
     -2.577578     33.628736     33.628736     67.257472
     -2.567568     34.623414     34.623414     69.246828
     -2.557558     35.013533     35.013533     70.027065
     -2.547548     34.552937     34.552937     69.105875
     -2.537538     33.093982     33.093982     66.187965
     -2.527528     30.644254     30.644254     61.288507
     -2.517518     27.429729     27.429729     54.859458
     -2.507508     23.916046     23.916046     47.832093
     -2.497497     20.741848     20.741848     41.483695
     -2.487487     18.561926     18.561926     37.123853
     -2.477477     17.852279     17.852279     35.704557
     -2.467467     18.757854     18.757854     37.515707
     -2.457457     21.050849     21.050849     42.101698
     -2.447447     24.221553     24.221553     48.443107
     -2.437437     27.667182     27.667182     55.334364
     -2.427427     30.900660     30.900660     61.801320
     -2.417417     33.689638     33.689638     67.379277
     -2.407407     36.064229     36.064229     72.128457
     -2.397397     38.191228     38.191228     76.382456
     -2.387387     40.177570     40.177570     80.355140
     -2.377377     41.904705     41.904705     83.809411
     -2.367367     42.986671     42.986671     85.973343
     -2.357357     42.887759     42.887759     85.775518
     -2.347347     41.155550     41.155550     82.311100
     -2.337337     37.661990     37.661990     75.323980
     -2.327327     32.735335     32.735335     65.470670
     -2.317317     27.118042     27.118042     54.236085
     -2.307307     21.771050     21.771050     43.542100
     -2.297297     17.613538     17.613538     35.227075
     -2.287287     15.302252     15.302252     30.604504
     -2.277277     15.116854     15.116854     30.233708
     -2.267267     16.960032     16.960032     33.920063
     -2.257257     20.438761     20.438761     40.877523
     -2.247247     24.980391     24.980391     49.960783
     -2.237237     29.946110     29.946110     59.892220
     -2.227227     34.719946     34.719946     69.439893
     -2.217217     38.765581     38.765581     77.531162
     -2.207207     41.655451     41.655451     83.310901
     -2.197197     43.086893     43.086893     86.173786
     -2.187187     42.903359     42.903359     85.806717
     -2.177177     41.128459     41.128459     82.256918
     -2.167167     37.997835     37.997835     75.995669
     -2.157157     33.953411     33.953411     67.906821
     -2.147147     29.567507     29.567507     59.135013
     -2.137137     25.399044     25.399044     50.798087
     -2.127127     21.832596     21.832596     43.665192
     -2.117117     18.977163     18.977163     37.954325
     -2.107107     16.679577     16.679577     33.359153
     -2.097097     14.646546     14.646546     29.293091
     -2.087087     12.609506     12.609506     25.219012
     -2.077077     10.448203     10.448203     20.896406
     -2.067067      8.221888      8.221888     16.443776
     -2.057057      6.114763      6.114763     12.229526
     -2.047047      4.345077      4.345077      8.690153
     -2.037037      3.091757      3.091757      6.183514
     -2.027027      2.464560      2.464560      4.929119
     -2.017017      2.508472      2.508472      5.016945
     -2.007007      3.214335      3.214335      6.428669
     -1.996997      4.513833      4.513833      9.027666
     -1.986987      6.260142      6.260142     12.520283
     -1.976977      8.218007      8.218007     16.436014
     -1.966967     10.092229     10.092229     20.184457
     -1.956957     11.604512     11.604512     23.209024
     -1.946947     12.594690     12.594690     25.189380
     -1.936937     13.095496     13.095496     26.190993
     -1.926927     13.332141     13.332141     26.664281
     -1.916917     13.633150     13.633150     27.266300
     -1.906907     14.287849     14.287849     28.575698
     -1.896897     15.417249     15.417249     30.834499
     -1.886887     16.918670     16.918670     33.837339
     -1.876877     18.505465     18.505465     37.010931
     -1.866867     19.817633     19.817633     39.635265
     -1.856857     20.552624     20.552624     41.105249
     -1.846847     20.566652     20.566652     41.133304
     -1.836837     19.915064     19.915064     39.830127
     -1.826827     18.822140     18.822140     37.644280
     -1.816817     17.590581     17.590581     35.181161
     -1.806807     16.480771     16.480771     32.961543
     -1.796797     15.606582     15.606582     31.213163
     -1.786787     14.895598     14.895598     29.791197
     -1.776777     14.136764     14.136764     28.273529
     -1.766767     13.094455     13.094455     26.188910
     -1.756757     11.631072     11.631072     23.262144
     -1.746747      9.776404      9.776404     19.552807
     -1.736737      7.715159      7.715159     15.430319
     -1.726727      5.711489      5.711489     11.422978
     -1.716717      4.019259      4.019259      8.038518
     -1.706707      2.823079      2.823079      5.646158
     -1.696697      2.225808      2.225808      4.451615
     -1.686687      2.266436      2.266436      4.532871
     -1.676677      2.937739      2.937739      5.875479
     -1.666667      4.181594      4.181594      8.363188
     -1.656657      5.863267      5.863267     11.726534
     -1.646647      7.749049      7.749049     15.498099
     -1.636637      9.519408      9.519408     19.038816
     -1.626627     10.835458     10.835458     21.670916
