# EIG2DOS: Utility for SIESTA to obtain the electronic density of states
#  E. Artacho, Apr 1999, A. Garcia, Apr 2012
#  Nick R. Papior, Feb 2017
# ------------------------------------------
# Eigenvalues calculated from a non-polarized calculation
# Eigenvalues read from siesta.EIG
# Kpoint weights read from siesta.KP
# Using smearing parameter:   0.0500
# Using 1000 points in the energy range
# Selected bands: 1 to: 2981
# Emin, Emax in file for selected band(s):    -27.0843078    218.3447030
# Nbands, Nspin, Nk   =   2981     1     1
# E_F                 =    -4.2600 eV --> (shifted to ZERO)
# Broadening          =     0.0500 eV
#
#        E            N(up)  (=)   N(down)         Ntot
     -5.000000     33.775677     33.775677     67.551355
     -4.989990     37.567288     37.567288     75.134576
     -4.979980     40.865986     40.865986     81.731971
     -4.969970     43.151227     43.151227     86.302454
     -4.959960     44.035126     44.035126     88.070252
     -4.949950     43.374167     43.374167     86.748333
     -4.939940     41.320145     41.320145     82.640291
     -4.929930     38.300929     38.300929     76.601858
     -4.919920     34.951904     34.951904     69.903808
     -4.909910     32.026053     32.026053     64.052107
     -4.899900     30.292180     30.292180     60.584361
     -4.889890     30.407404     30.407404     60.814807
     -4.879880     32.751324     32.751324     65.502648
     -4.869870     37.247816     37.247816     74.495631
     -4.859860     43.253150     43.253150     86.506301
     -4.849850     49.607824     49.607824     99.215648
     -4.839840     54.898355     54.898355    109.796709
     -4.829830     57.868079     57.868079    115.736157
     -4.819820     57.816794     57.816794    115.633588
     -4.809810     54.810193     54.810193    109.620387
     -4.799800     49.605326     49.605326     99.210652
     -4.789790     43.339713     43.339713     86.679426
     -4.779780     37.140796     37.140796     74.281593
     -4.769770     31.825409     31.825409     63.650818
     -4.759760     27.781183     27.781183     55.562367
     -4.749750     25.016194     25.016194     50.032389
     -4.739740     23.296429     23.296429     46.592859
     -4.729730     22.286743     22.286743     44.573485
     -4.719720     21.647867     21.647867     43.295734
     -4.709710     21.083633     21.083633     42.167266
     -4.699700     20.357783     20.357783     40.715567
     -4.689690     19.306436     19.306436     38.612872
     -4.679680     17.864752     17.864752     35.729504
     -4.669670     16.109060     16.109060     32.218121
     -4.659660     14.295886     14.295886     28.591773
     -4.649650     12.868001     12.868001     25.736002
     -4.639640     12.402242     12.402242     24.804484
     -4.629630     13.491875     13.491875     26.983750
     -4.619620     16.579265     16.579265     33.158530
     -4.609610     21.777064     21.777064     43.554128
     -4.599600     28.735574     28.735574     57.471148
     -4.589590     36.622915     36.622915     73.245829
     -4.579580     44.267263     44.267263     88.534526
     -4.569570     50.456336     50.456336    100.912671
     -4.559560     54.312019     54.312019    108.624039
     -4.549550     55.598080     55.598080    111.196161
     -4.539540     54.819449     54.819449    109.638897
     -4.529530     53.046411     53.046411    106.092821
     -4.519520     51.515620     51.515620    103.031240
     -4.509510     51.163529     51.163529    102.327059
     -4.499499     52.283185     52.283185    104.566369
     -4.489489     54.442972     54.442972    108.885945
     -4.479479     56.689939     56.689939    113.379878
     -4.469469     57.936556     57.936556    115.873112
     -4.459459     57.358431     57.358431    114.716862
     -4.449449     54.644566     54.644566    109.289132
     -4.439439     50.028658     50.028658    100.057316
     -4.429429     44.138152     44.138152     88.276304
     -4.419419     37.767961     37.767961     75.535923
     -4.409409     31.686548     31.686548     63.373097
     -4.399399     26.526458     26.526458     53.052917
     -4.389389     22.744868     22.744868     45.489736
     -4.379379     20.607029     20.607029     41.214058
     -4.369369     20.161247     20.161247     40.322493
     -4.359359     21.215784     21.215784     42.431567
     -4.349349     23.356722     23.356722     46.713444
     -4.339339     26.036291     26.036291     52.072582
     -4.329329     28.720334     28.720334     57.440669
     -4.319319     31.042247     31.042247     62.084494
     -4.309309     32.898659     32.898659     65.797319
     -4.299299     34.446004     34.446004     68.892009
     -4.289289     35.999186     35.999186     71.998372
     -4.279279     37.869348     37.869348     75.738696
     -4.269269     40.195161     40.195161     80.390323
     -4.259259     42.824574     42.824574     85.649147
     -4.249249     45.296901     45.296901     90.593802
     -4.239239     46.953514     46.953514     93.907029
     -4.229229     47.160758     47.160758     94.321516
     -4.219219     45.569424     45.569424     91.138847
     -4.209209     42.294961     42.294961     84.589922
     -4.199199     37.920083     37.920083     75.840165
     -4.189189     33.302572     33.302572     66.605143
     -4.179179     29.273406     29.273406     58.546812
     -4.169169     26.368804     26.368804     52.737609
     -4.159159     24.716557     24.716557     49.433114
     -4.149149     24.109629     24.109629     48.219259
     -4.139139     24.205025     24.205025     48.410051
     -4.129129     24.734797     24.734797     49.469593
     -4.119119     25.625101     25.625101     51.250203
     -4.109109     26.972088     26.972088     53.944176
     -4.099099     28.892937     28.892937     57.785874
     -4.089089     31.332236     31.332236     62.664472
     -4.079079     33.934913     33.934913     67.869825
     -4.069069     36.076348     36.076348     72.152697
     -4.059059     37.064825     37.064825     74.129651
     -4.049049     36.432857     36.432857     72.865714
     -4.039039     34.171067     34.171067     68.342133
     -4.029029     30.778200     30.778200     61.556399
     -4.019019     27.098487     27.098487     54.196973
     -4.009009     24.032628     24.032628     48.065257
     -3.998999     22.267625     22.267625     44.535251
     -3.988989     22.140295     22.140295     44.280590
     -3.978979     23.658306     23.658306     47.316611
     -3.968969     26.616333     26.616333     53.232666
     -3.958959     30.716602     30.716602     61.433204
     -3.948949     35.638348     35.638348     71.276696
     -3.938939     41.060454     41.060454     82.120907
     -3.928929     46.675732     46.675732     93.351464
     -3.918919     52.222345     52.222345    104.444690
     -3.908909     57.517527     57.517527    115.035054
     -3.898899     62.452631     62.452631    124.905263
     -3.888889     66.923734     66.923734    133.847468
     -3.878879     70.720267     70.720267    141.440534
     -3.868869     73.439588     73.439588    146.879177
     -3.858859     74.502147     74.502147    149.004294
     -3.848849     73.298898     73.298898    146.597797
     -3.838839     69.430535     69.430535    138.861070
     -3.828829     62.937503     62.937503    125.875007
     -3.818819     54.407861     54.407861    108.815722
     -3.808809     44.897789     44.897789     89.795578
     -3.798799     35.683010     35.683010     71.366019
     -3.788789     27.933083     27.933083     55.866167
     -3.778779     22.426722     22.426722     44.853445
     -3.768769     19.397954     19.397954     38.795909
     -3.758759     18.544134     18.544134     37.088268
     -3.748749     19.171219     19.171219     38.342438
     -3.738739     20.420082     20.420082     40.840163
     -3.728729     21.510536     21.510536     43.021073
     -3.718719     21.946607     21.946607     43.893215
     -3.708709     21.638461     21.638461     43.276923
     -3.698699     20.911453     20.911453     41.822906
     -3.688689     20.393841     20.393841     40.787682
     -3.678679     20.803944     20.803944     41.607888
     -3.668669     22.691240     22.691240     45.382480
     -3.658659     26.212693     26.212693     52.425386
     -3.648649     31.028572     31.028572     62.057144
     -3.638639     36.368330     36.368330     72.736659
     -3.628629     41.251452     41.251452     82.502903
     -3.618619     44.779184     44.779184     89.558368
     -3.608609     46.380682     46.380682     92.761365
     -3.598599     45.924482     45.924482     91.848964
     -3.588589     43.677320     43.677320     87.354639
     -3.578579     40.160826     40.160826     80.321652
     -3.568569     35.981739     35.981739     71.963477
     -3.558559     31.690031     31.690031     63.380063
     -3.548549     27.683509     27.683509     55.367018
     -3.538539     24.159270     24.159270     48.318540
     -3.528529     21.115322     21.115322     42.230645
     -3.518519     18.407750     18.407750     36.815499
     -3.508509     15.852827     15.852827     31.705654
     -3.498498     13.337504     13.337504     26.675008
     -3.488488     10.890404     10.890404     21.780808
     -3.478478      8.683084      8.683084     17.366167
     -3.468468      6.966578      6.966578     13.933156
     -3.458458      5.976118      5.976118     11.952236
     -3.448448      5.842216      5.842216     11.684432
     -3.438438      6.534529      6.534529     13.069057
     -3.428428      7.851495      7.851495     15.702991
     -3.418418      9.461217      9.461217     18.922433
     -3.408408     10.991259     10.991259     21.982519
     -3.398398     12.148818     12.148818     24.297636
     -3.388388     12.831793     12.831793     25.663585
     -3.378378     13.182670     13.182670     26.365341
     -3.368368     13.554671     13.554671     27.109343
     -3.358358     14.398542     14.398542     28.797085
     -3.348348     16.114477     16.114477     32.228955
     -3.338338     18.922684     18.922684     37.845368
     -3.328328     22.785078     22.785078     45.570155
     -3.318318     27.381265     27.381265     54.762530
     -3.308308     32.130891     32.130891     64.261781
     -3.298298     36.266196     36.266196     72.532393
     -3.288288     38.969568     38.969568     77.939135
     -3.278278     39.572325     39.572325     79.144650
     -3.268268     37.763618     37.763618     75.527235
     -3.258258     33.719642     33.719642     67.439283
     -3.248248     28.076960     28.076960     56.153920
     -3.238238     21.744648     21.744648     43.489295
     -3.228228     15.634123     15.634123     31.268247
     -3.218218     10.424580     10.424580     20.849161
     -3.208208      6.452201      6.452201     12.904403
     -3.198198      3.739692      3.739692      7.479383
     -3.188188      2.119291      2.119291      4.238582
     -3.178178      1.379978      1.379978      2.759956
     -3.168168      1.385241      1.385241      2.770482
     -3.158158      2.136503      2.136503      4.273006
     -3.148148      3.776811      3.776811      7.553623
     -3.138138      6.535583      6.535583     13.071166
     -3.128128     10.619318     10.619318     21.238636
     -3.118118     16.067909     16.067909     32.135818
     -3.108108     22.621841     22.621841     45.243683
     -3.098098     29.665620     29.665620     59.331239
     -3.088088     36.303739     36.303739     72.607479
     -3.078078     41.576316     41.576316     83.152633
     -3.068068     44.748862     44.748862     89.497724
     -3.058058     45.555494     45.555494     91.110988
     -3.048048     44.277556     44.277556     88.555112
     -3.038038     41.609892     41.609892     83.219785
     -3.028028     38.371738     38.371738     76.743477
     -3.018018     35.199417     35.199417     70.398833
     -3.008008     32.365998     32.365998     64.731995
     -2.997998     29.803218     29.803218     59.606435
     -2.987988     27.293959     27.293959     54.587917
     -2.977978     24.720256     24.720256     49.440512
     -2.967968     22.234918     22.234918     44.469837
     -2.957958     20.275329     20.275329     40.550658
     -2.947948     19.420289     19.420289     38.840578
     -2.937938     20.159846     20.159846     40.319692
     -2.927928     22.676666     22.676666     45.353331
     -2.917918     26.724461     26.724461     53.448922
     -2.907908     31.649252     31.649252     63.298504
     -2.897898     36.549496     36.549496     73.098992
     -2.887888     40.523965     40.523965     81.047931
     -2.877878     42.923452     42.923452     85.846904
     -2.867868     43.516391     43.516391     87.032781
     -2.857858     42.507284     42.507284     85.014569
     -2.847848     40.404183     40.404183     80.808365
     -2.837838     37.794721     37.794721     75.589442
     -2.827828     35.129122     35.129122     70.258243
     -2.817818     32.601953     32.601953     65.203905
     -2.807808     30.173686     30.173686     60.347372
     -2.797798     27.703119     27.703119     55.406238
     -2.787788     25.108626     25.108626     50.217251
     -2.777778     22.467873     22.467873     44.935745
     -2.767768     20.005987     20.005987     40.011974
     -2.757758     17.988520     17.988520     35.977040
     -2.747748     16.590397     16.590397     33.180793
     -2.737738     15.823612     15.823612     31.647224
     -2.727728     15.567381     15.567381     31.134762
     -2.717718     15.677661     15.677661     31.355321
     -2.707708     16.099919     16.099919     32.199838
     -2.697698     16.904972     16.904972     33.809945
     -2.687688     18.218109     18.218109     36.436218
     -2.677678     20.085609     20.085609     40.171217
     -2.667668     22.370895     22.370895     44.741791
     -2.657658     24.759478     24.759478     49.518956
     -2.647648     26.882457     26.882457     53.764914
     -2.637638     28.487791     28.487791     56.975582
     -2.627628     29.553086     29.553086     59.106171
     -2.617618     30.270266     30.270266     60.540531
     -2.607608     30.916356     30.916356     61.832713
     -2.597598     31.695293     31.695293     63.390586
     -2.587588     32.643014     32.643014     65.286028
     -2.577578     33.631953     33.631953     67.263906
     -2.567568     34.440772     34.440772     68.881543
     -2.557558     34.826890     34.826890     69.653781
     -2.547548     34.568246     34.568246     69.136492
     -2.537538     33.490414     33.490414     66.980827
     -2.527528     31.514598     31.514598     63.029195
     -2.517518     28.732740     28.732740     57.465480
     -2.507508     25.468047     25.468047     50.936093
     -2.497497     22.260289     22.260289     44.520578
     -2.487487     19.747057     19.747057     39.494114
     -2.477477     18.473432     18.473432     36.946864
     -2.467467     18.710414     18.710414     37.420828
     -2.457457     20.366369     20.366369     40.732739
     -2.447447     23.035136     23.035136     46.070272
     -2.437437     26.162034     26.162034     52.324068
     -2.427427     29.254731     29.254731     58.509462
     -2.417417     32.044080     32.044080     64.088161
     -2.407407     34.521538     34.521538     69.043076
     -2.397397     36.837136     36.837136     73.674273
     -2.387387     39.110049     39.110049     78.220099
     -2.377377     41.249843     41.249843     82.499686
     -2.367367     42.886543     42.886543     85.773087
     -2.357357     43.458761     43.458761     86.917523
     -2.347347     42.432300     42.432300     84.864600
     -2.337337     39.553676     39.553676     79.107352
     -2.327327     35.020037     35.020037     70.040074
     -2.317317     29.484132     29.484132     58.968263
     -2.307307     23.891583     23.891583     47.783165
     -2.297297     19.223526     19.223526     38.447053
     -2.287287     16.249358     16.249358     32.498715
     -2.277277     15.371451     15.371451     30.742901
     -2.267267     16.590158     16.590158     33.180316
     -2.257257     19.568577     19.568577     39.137155
     -2.247247     23.752962     23.752962     47.505924
     -2.237237     28.504272     28.504272     57.008544
     -2.227227     33.207058     33.207058     66.414117
     -2.217217     37.336177     37.336177     74.672354
     -2.207207     40.479458     40.479458     80.958915
     -2.197197     42.333902     42.333902     84.667804
     -2.187187     42.705315     42.705315     85.410629
     -2.177177     41.534359     41.534359     83.068718
     -2.167167     38.943895     38.943895     77.887790
     -2.157157     35.269464     35.269464     70.538928
     -2.147147     31.024569     31.024569     62.049138
     -2.137137     26.781474     26.781474     53.562948
     -2.127127     23.003497     23.003497     46.006994
     -2.117117     19.907456     19.907456     39.814913
     -2.107107     17.429706     17.429706     34.859412
     -2.097097     15.314234     15.314234     30.628467
     -2.087087     13.272438     13.272438     26.544875
     -2.077077     11.128070     11.128070     22.256139
     -2.067067      8.879075      8.879075     17.758150
     -2.057057      6.663283      6.663283     13.326566
     -2.047047      4.667386      4.667386      9.334771
     -2.037037      3.037479      3.037479      6.074958
     -2.027027      1.831897      1.831897      3.663794
     -2.017017      1.023547      1.023547      2.047094
     -2.007007      0.533485      0.533485      1.066970
     -1.996997      0.271045      0.271045      0.542089
     -1.986987      0.164300      0.164300      0.328600
     -1.976977      0.176966      0.176966      0.353932
     -1.966967      0.315413      0.315413      0.630826
     -1.956957      0.629893      0.629893      1.259787
     -1.946947      1.209855      1.209855      2.419710
     -1.936937      2.168893      2.168893      4.337787
     -1.926927      3.614791      3.614791      7.229582
     -1.916917      5.606126      5.606126     11.212252
     -1.906907      8.107083      8.107083     16.214166
     -1.896897     10.959887     10.959887     21.919773
     -1.886887     13.892788     13.892788     27.785576
     -1.876877     16.568989     16.568989     33.137978
     -1.866867     18.664555     18.664555     37.329111
     -1.856857     19.951339     19.951339     39.902679
     -1.846847     20.359567     20.359567     40.719134
     -1.836837     20.001378     20.001378     40.002756
     -1.826827     19.145876     19.145876     38.291753
     -1.816817     18.147240     18.147240     36.294480
     -1.806807     17.342660     17.342660     34.685321
     -1.796797     16.953277     16.953277     33.906553
     -1.786787     17.026765     17.026765     34.053529
     -1.776777     17.444051     17.444051     34.888103
     -1.766767     17.980222     17.980222     35.960444
     -1.756757     18.383374     18.383374     36.766748
     -1.746747     18.435338     18.435338     36.870675
     -1.736737     17.982913     17.982913     35.965825
     -1.726727     16.953744     16.953744     33.907488
     -1.716717     15.374415     15.374415     30.748831
     -1.706707     13.389719     13.389719     26.779438
     -1.696697     11.262615     11.262615     22.525229
     -1.686687      9.334323      9.334323     18.668647
     -1.676677      7.943891      7.943891     15.887781
     -1.666667      7.330107      7.330107     14.660213
     -1.656657      7.550318      7.550318     15.100636
     -1.646647      8.447036      8.447036     16.894072
     -1.636637      9.679626      9.679626     19.359251
     -1.626627     10.819443     10.819443     21.638886
