# EIG2DOS: Utility for SIESTA to obtain the electronic density of states
#  E. Artacho, Apr 1999, A. Garcia, Apr 2012
#  Nick R. Papior, Feb 2017
# ------------------------------------------
# Eigenvalues calculated from a non-polarized calculation
# Eigenvalues read from siesta.EIG
# Kpoint weights read from siesta.KP
# Using smearing parameter:   0.0500
# Using 1000 points in the energy range
# Selected bands: 1 to: 2981
# Emin, Emax in file for selected band(s):    -27.0367916    218.3139260
# Nbands, Nspin, Nk   =   2981     1     1
# E_F                 =    -4.2950 eV --> (shifted to ZERO)
# Broadening          =     0.0500 eV
#
#        E            N(up)  (=)   N(down)         Ntot
     -5.000000     43.763008     43.763008     87.526015
     -4.989990     48.433371     48.433371     96.866742
     -4.979980     51.707086     51.707086    103.414172
     -4.969970     53.117224     53.117224    106.234449
     -4.959960     52.494463     52.494463    104.988926
     -4.949950     50.017916     50.017916    100.035832
     -4.939940     46.170435     46.170435     92.340870
     -4.929930     41.632474     41.632474     83.264947
     -4.919920     37.169073     37.169073     74.338147
     -4.909910     33.545741     33.545741     67.091482
     -4.899900     31.466030     31.466030     62.932060
     -4.889890     31.489786     31.489786     62.979571
     -4.879880     33.898048     33.898048     67.796095
     -4.869870     38.524438     38.524438     77.048876
     -4.859860     44.640688     44.640688     89.281376
     -4.849850     51.009033     51.009033    102.018067
     -4.839840     56.157253     56.157253    112.314507
     -4.829830     58.810938     58.810938    117.621876
     -4.819820     58.306930     58.306930    116.613860
     -4.809810     54.794240     54.794240    109.588481
     -4.799800     49.128384     49.128384     98.256769
     -4.789790     42.522803     42.522803     85.045605
     -4.779780     36.134955     36.134955     72.269910
     -4.769770     30.767192     30.767192     61.534385
     -4.759760     26.768159     26.768159     53.536318
     -4.749750     24.105348     24.105348     48.210697
     -4.739740     22.515836     22.515836     45.031673
     -4.729730     21.648592     21.648592     43.297183
     -4.719720     21.156559     21.156559     42.313118
     -4.709710     20.738929     20.738929     41.477859
     -4.699700     20.155110     20.155110     40.310220
     -4.689690     19.235174     19.235174     38.470347
     -4.679680     17.904300     17.904300     35.808599
     -4.669670     16.223696     16.223696     32.447392
     -4.659660     14.431817     14.431817     28.863635
     -4.649650     12.956967     12.956967     25.913933
     -4.639640     12.374230     12.374230     24.748461
     -4.629630     13.295575     13.295575     26.591149
     -4.619620     16.204296     16.204296     32.408593
     -4.609610     21.268275     21.268275     42.536551
     -4.599600     28.188558     28.188558     56.377117
     -4.589590     36.153459     36.153459     72.306917
     -4.579580     43.956498     43.956498     87.912995
     -4.569570     50.285056     50.285056    100.570111
     -4.559560     54.106155     54.106155    108.212310
     -4.549550     55.007790     55.007790    110.015579
     -4.539540     53.346932     53.346932    106.693864
     -4.529530     50.126565     50.126565    100.253130
     -4.519520     46.642187     46.642187     93.284374
     -4.509510     44.040227     44.040227     88.080455
     -4.499499     42.963134     42.963134     85.926268
     -4.489489     43.406564     43.406564     86.813128
     -4.479479     44.815298     44.815298     89.630597
     -4.469469     46.348798     46.348798     92.697595
     -4.459459     47.196450     47.196450     94.392899
     -4.449449     46.828803     46.828803     93.657606
     -4.439439     45.118061     45.118061     90.236123
     -4.429429     42.319492     42.319492     84.638983
     -4.419419     38.950191     38.950191     77.900382
     -4.409409     35.621542     35.621542     71.243083
     -4.399399     32.878775     32.878775     65.757550
     -4.389389     31.084628     31.084628     62.169257
     -4.379379     30.364213     30.364213     60.728426
     -4.369369     30.611414     30.611414     61.222827
     -4.359359     31.545695     31.545695     63.091391
     -4.349349     32.801479     32.801479     65.602958
     -4.339339     34.028780     34.028780     68.057560
     -4.329329     34.982697     34.982697     69.965395
     -4.319319     35.581108     35.581108     71.162217
     -4.309309     35.916312     35.916312     71.832623
     -4.299299     36.217590     36.217590     72.435179
     -4.289289     36.773969     36.773969     73.547939
     -4.279279     37.834380     37.834380     75.668760
     -4.269269     39.505062     39.505062     79.010125
     -4.259259     41.667361     41.667361     83.334722
     -4.249249     43.946823     43.946823     87.893646
     -4.239239     45.767960     45.767960     91.535919
     -4.229229     46.509420     46.509420     93.018839
     -4.219219     45.724903     45.724903     91.449806
     -4.209209     43.340091     43.340091     86.680181
     -4.199199     39.720535     39.720535     79.441069
     -4.189189     35.557597     35.557597     71.115194
     -4.179179     31.616594     31.616594     63.233188
     -4.169169     28.470366     28.470366     56.940733
     -4.159159     26.347796     26.347796     52.695591
     -4.149149     25.157645     25.157645     50.315289
     -4.139139     24.651538     24.651538     49.303076
     -4.129129     24.623965     24.623965     49.247930
     -4.119119     25.040329     25.040329     50.080657
     -4.109109     26.028446     26.028446     52.056892
     -4.099099     27.738856     27.738856     55.477712
     -4.089089     30.147669     30.147669     60.295337
     -4.079079     32.915458     32.915458     65.830917
     -4.069069     35.401968     35.401968     70.803937
     -4.059059     36.862322     36.862322     73.724644
     -4.049049     36.746693     36.746693     73.493386
     -4.039039     34.953736     34.953736     69.907473
     -4.029029     31.901737     31.901737     63.803473
     -4.019019     28.379874     28.379874     56.759748
     -4.009009     25.263863     25.263863     50.527727
     -3.998999     23.245561     23.245561     46.491122
     -3.988989     22.696073     22.696073     45.392147
     -3.978979     23.685594     23.685594     47.371188
     -3.968969     26.092306     26.092306     52.184612
     -3.958959     29.705869     29.705869     59.411737
     -3.948949     34.273416     34.273416     68.546832
     -3.938939     39.502369     39.502369     79.004739
     -3.928929     45.069169     45.069169     90.138337
     -3.918919     50.663778     50.663778    101.327556
     -3.908909     56.050339     56.050339    112.100679
     -3.898899     61.090856     61.090856    122.181711
     -3.888889     65.691886     65.691886    131.383772
     -3.878879     69.686972     69.686972    139.373945
     -3.868869     72.723359     72.723359    145.446717
     -3.858859     74.240608     74.240608    148.481216
     -3.848849     73.592764     73.592764    147.185527
     -3.838839     70.289484     70.289484    140.578968
     -3.828829     64.256363     64.256363    128.512726
     -3.818819     55.986392     55.986392    111.972784
     -3.808809     46.495134     46.495134     92.990267
     -3.798799     37.082165     37.082165     74.164331
     -3.788789     28.989934     28.989934     57.979867
     -3.778779     23.089879     23.089879     46.179758
     -3.768769     19.700510     19.700510     39.401019
     -3.758759     18.577734     18.577734     37.155469
     -3.748749     19.054116     19.054116     38.108231
     -3.738739     20.267160     20.267160     40.534319
     -3.728729     21.409299     21.409299     42.818598
     -3.718719     21.941155     21.941155     43.882310
     -3.708709     21.723194     21.723194     43.446388
     -3.698699     21.035961     21.035961     42.071922
     -3.688689     20.478970     20.478970     40.957941
     -3.678679     20.766301     20.766301     41.532603
     -3.668669     22.470323     22.470323     44.940645
     -3.658659     25.792837     25.792837     51.585675
     -3.648649     30.448372     30.448372     60.896744
     -3.638639     35.713756     35.713756     71.427512
     -3.628629     40.634669     40.634669     81.269337
     -3.618619     44.310465     44.310465     88.620931
     -3.608609     46.142958     46.142958     92.285916
     -3.598599     45.957774     45.957774     91.915549
     -3.588589     43.975357     43.975357     87.950714
     -3.578579     40.677728     40.677728     81.355455
     -3.568569     36.644923     36.644923     73.289846
     -3.558559     32.415938     32.415938     64.831877
     -3.548549     28.393412     28.393412     56.786825
     -3.538539     24.792417     24.792417     49.584834
     -3.528529     21.636573     21.636573     43.273146
     -3.518519     18.808092     18.808092     37.616185
     -3.508509     16.143586     16.143586     32.287172
     -3.498498     13.541343     13.541343     27.082686
     -3.488488     11.032856     11.032856     22.065713
     -3.478478      8.787028      8.787028     17.574055
     -3.468468      7.049905      7.049905     14.099811
     -3.458458      6.051260      6.051260     12.102520
     -3.448448      5.915960      5.915960     11.831921
     -3.438438      6.607403      6.607403     13.214806
     -3.428428      7.917124      7.917124     15.834248
     -3.418418      9.506614      9.506614     19.013228
     -3.408408     10.998763     10.998763     21.997527
     -3.398398     12.099537     12.099537     24.199073
     -3.388388     12.709683     12.709683     25.419367
     -3.378378     12.978112     12.978112     25.956224
     -3.368368     13.266634     13.266634     26.533267
     -3.358358     14.034879     14.034879     28.069758
     -3.348348     15.690407     15.690407     31.380814
     -3.338338     18.458322     18.458322     36.916644
     -3.328328     22.303772     22.303772     44.607544
     -3.318318     26.910482     26.910482     53.820964
     -3.308308     31.705495     31.705495     63.410989
     -3.298298     35.930761     35.930761     71.861522
     -3.288288     38.774601     38.774601     77.549202
     -3.278278     39.561799     39.561799     79.123598
     -3.268268     37.957432     37.957432     75.914865
     -3.258258     34.100194     34.100194     68.200389
     -3.248248     28.588713     28.588713     57.177427
     -3.238238     22.308736     22.308736     44.617472
     -3.228228     16.171213     16.171213     32.342426
     -3.218218     10.874622     10.874622     21.749245
     -3.208208      6.781865      6.781865     13.563729
     -3.198198      3.934464      3.934464      7.868928
     -3.188188      2.162679      2.162679      4.325358
     -3.178178      1.224390      1.224390      2.448781
     -3.168168      0.919604      0.919604      1.839208
     -3.158158      1.158067      1.158067      2.316134
     -3.148148      1.980835      1.980835      3.961671
     -3.138138      3.543418      3.543418      7.086837
     -3.128128      6.064503      6.064503     12.129007
     -3.118118      9.742343      9.742343     19.484687
     -3.108108     14.648905     14.648905     29.297809
     -3.098098     20.628285     20.628285     41.256570
     -3.088088     27.240067     27.240067     54.480134
     -3.078078     33.786429     33.786429     67.572858
     -3.068068     39.436731     39.436731     78.873462
     -3.058058     43.421628     43.421628     86.843255
     -3.048048     45.231326     45.231326     90.462652
     -3.038038     44.743191     44.743191     89.486382
     -3.028028     42.232911     42.232911     84.465822
     -3.018018     38.276839     38.276839     76.553677
     -3.008008     33.599021     33.599021     67.198041
     -2.997998     28.927114     28.927114     57.854228
     -2.987988     24.895194     24.895194     49.790388
     -2.977978     21.993355     21.993355     43.986710
     -2.967968     20.543430     20.543430     41.086861
     -2.957958     20.685620     20.685620     41.371239
     -2.947948     22.376185     22.376185     44.752370
     -2.937938     25.401214     25.401214     50.802428
     -2.927928     29.403098     29.403098     58.806197
     -2.917918     33.910283     33.910283     67.820565
     -2.907908     38.369724     38.369724     76.739447
     -2.897898     42.197905     42.197905     84.395810
     -2.887888     44.868323     44.868323     89.736645
     -2.877878     46.029071     46.029071     92.058141
     -2.867868     45.607743     45.607743     91.215487
     -2.857858     43.843704     43.843704     87.687408
     -2.847848     41.211074     41.211074     82.422149
     -2.837838     38.250942     38.250942     76.501883
     -2.827828     35.384235     35.384235     70.768470
     -2.817818     32.792596     32.792596     65.585193
     -2.807808     30.421352     30.421352     60.842704
     -2.797798     28.094644     28.094644     56.189289
     -2.787788     25.674292     25.674292     51.348583
     -2.777778     23.173842     23.173842     46.347685
     -2.767768     20.768604     20.768604     41.537208
     -2.757758     18.704332     18.704332     37.408664
     -2.747748     17.166410     17.166410     34.332821
     -2.737738     16.193026     16.193026     32.386053
     -2.727728     15.686370     15.686370     31.372740
     -2.717718     15.512037     15.512037     31.024074
     -2.707708     15.618009     15.618009     31.236017
     -2.697698     16.089200     16.089200     32.178401
     -2.687688     17.093914     17.093914     34.187827
     -2.677678     18.750576     18.750576     37.501152
     -2.667668     21.000277     21.000277     42.000554
     -2.657658     23.573360     23.573360     47.146720
     -2.647648     26.081541     26.081541     52.163083
     -2.637638     28.185890     28.185890     56.371780
     -2.627628     29.739926     29.739926     59.479852
     -2.617618     30.822659     30.822659     61.645318
     -2.607608     31.649185     31.649185     63.298371
     -2.597598     32.424550     32.424550     64.849099
     -2.587588     33.233548     33.233548     66.467095
     -2.577578     34.018779     34.018779     68.037558
     -2.567568     34.629380     34.629380     69.258760
     -2.557558     34.882585     34.882585     69.765171
     -2.547548     34.598129     34.598129     69.196258
     -2.537538     33.615507     33.615507     67.231014
     -2.527528     31.832626     31.832626     63.665252
     -2.517518     29.281813     29.281813     58.563626
     -2.507508     26.207443     26.207443     52.414885
     -2.497497     23.079182     23.079182     46.158364
     -2.487487     20.498108     20.498108     40.996217
     -2.477477     19.015776     19.015776     38.031551
     -2.467467     18.943893     18.943893     37.887786
     -2.457457     20.246166     20.246166     40.492333
     -2.447447     22.566970     22.566970     45.133940
     -2.437437     25.386215     25.386215     50.772430
     -2.427427     28.229739     28.229739     56.459477
     -2.417417     30.837772     30.837772     61.675544
     -2.407407     33.212735     33.212735     66.425469
     -2.397397     35.524214     35.524214     71.048427
     -2.387387     37.918256     37.918256     75.836513
     -2.377377     40.327538     40.327538     80.655077
     -2.367367     42.383992     42.383992     84.767983
     -2.357357     43.491314     43.491314     86.982628
     -2.347347     43.039592     43.039592     86.079185
     -2.337337     40.672540     40.672540     81.345080
     -2.327327     36.486309     36.486309     72.972618
     -2.317317     31.067014     31.067014     62.134027
     -2.307307     25.349344     25.349344     50.698687
     -2.297297     20.359677     20.359677     40.719354
     -2.287287     16.949431     16.949431     33.898863
     -2.277277     15.610717     15.610717     31.221434
     -2.267267     16.415456     16.415456     32.830911
     -2.257257     19.066662     19.066662     38.133324
     -2.247247     23.020507     23.020507     46.041014
     -2.237237     27.631216     27.631216     55.262432
     -2.227227     32.276997     32.276997     64.553994
     -2.217217     36.437773     36.437773     72.875545
     -2.207207     39.715831     39.715831     79.431662
     -2.197197     41.817327     41.817327     83.634654
     -2.187187     42.533326     42.533326     85.066652
     -2.177177     41.756156     41.756156     83.512311
     -2.167167     39.534661     39.534661     79.069323
     -2.157157     36.128908     36.128908     72.257816
     -2.147147     32.004620     32.004620     64.009239
     -2.137137     27.732974     27.732974     55.465948
     -2.127127     23.821503     23.821503     47.643006
     -2.117117     20.555355     20.555355     41.110711
     -2.107107     17.933452     17.933452     35.866903
     -2.097097     15.733145     15.733145     31.466290
     -2.087087     13.663525     13.663525     27.327051
     -2.077077     11.521221     11.521221     23.042442
     -2.067067      9.271692      9.271692     18.543385
     -2.057057      7.031475      7.031475     14.062949
     -2.047047      4.983538      4.983538      9.967075
     -2.037037      3.284030      3.284030      6.568060
     -2.027027      2.006361      2.006361      4.012722
     -2.017017      1.135779      1.135779      2.271557
     -2.007007      0.599395      0.599395      1.198790
     -1.996997      0.306811      0.306811      0.613622
     -1.986987      0.183105      0.183105      0.366210
     -1.976977      0.188268      0.188268      0.376536
     -1.966967      0.325672      0.325672      0.651344
     -1.956957      0.643516      0.643516      1.287032
     -1.946947      1.229434      1.229434      2.458868
     -1.936937      2.194329      2.194329      4.388657
     -1.926927      3.641516      3.641516      7.283032
     -1.916917      5.623477      5.623477     11.246954
     -1.906907      8.098508      8.098508     16.197015
     -1.896897     10.906622     10.906622     21.813244
     -1.886887     13.781276     13.781276     27.562553
     -1.876877     16.399834     16.399834     32.799669
     -1.866867     18.458516     18.458516     36.917033
     -1.856857     19.747387     19.747387     39.494774
     -1.846847     20.202261     20.202261     40.404522
     -1.836837     19.918763     19.918763     39.837527
     -1.826827     19.122379     19.122379     38.244757
     -1.816817     18.097050     18.097050     36.194099
     -1.806807     17.088477     17.088477     34.176955
     -1.796797     16.215712     16.215712     32.431424
     -1.786787     15.432739     15.432739     30.865479
     -1.776777     14.565908     14.565908     29.131815
     -1.766767     13.414874     13.414874     26.829749
     -1.756757     11.867502     11.867502     23.735004
     -1.746747      9.970556      9.970556     19.941111
     -1.736737      7.925957      7.925957     15.851914
     -1.726727      6.026664      6.026664     12.053328
     -1.716717      4.575465      4.575465      9.150930
     -1.706707      3.826303      3.826303      7.652607
     -1.696697      3.959189      3.959189      7.918378
     -1.686687      5.070807      5.070807     10.141614
     -1.676677      7.155017      7.155017     14.310035
     -1.666667     10.064820     10.064820     20.129640
     -1.656657     13.476212     13.476212     26.952423
     -1.646647     16.892762     16.892762     33.785524
     -1.636637     19.721506     19.721506     39.443011
     -1.626627     21.416457     21.416457     42.832915
