# EIG2DOS: Utility for SIESTA to obtain the electronic density of states
#  E. Artacho, Apr 1999, A. Garcia, Apr 2012
#  Nick R. Papior, Feb 2017
# ------------------------------------------
# Eigenvalues calculated from a non-polarized calculation
# Eigenvalues read from siesta.EIG
# Kpoint weights read from siesta.KP
# Using smearing parameter:   0.0500
# Using 1000 points in the energy range
# Selected bands: 1 to: 2981
# Emin, Emax in file for selected band(s):    -27.3357352    218.4051070
# Nbands, Nspin, Nk   =   2981     1     1
# E_F                 =    -4.1881 eV --> (shifted to ZERO)
# Broadening          =     0.0500 eV
#
#        E            N(up)  (=)   N(down)         Ntot
     -5.000000     30.473350     30.473350     60.946699
     -4.989990     35.764404     35.764404     71.528807
     -4.979980     40.971835     40.971835     81.943670
     -4.969970     45.198756     45.198756     90.397512
     -4.959960     47.631354     47.631354     95.262707
     -4.949950     47.808927     47.808927     95.617854
     -4.939940     45.783980     45.783980     91.567961
     -4.929930     42.119104     42.119104     84.238207
     -4.919920     37.743028     37.743028     75.486055
     -4.909910     33.734848     33.734848     67.469696
     -4.899900     31.101785     31.101785     62.203571
     -4.889890     30.582432     30.582432     61.164864
     -4.879880     32.485254     32.485254     64.970509
     -4.869870     36.582857     36.582857     73.165715
     -4.859860     42.107708     42.107708     84.215417
     -4.849850     47.894717     47.894717     95.789433
     -4.839840     52.668654     52.668654    105.337308
     -4.829830     55.400433     55.400433    110.800866
     -4.819820     55.604507     55.604507    111.209014
     -4.809810     53.459479     53.459479    106.918958
     -4.799800     49.705343     49.705343     99.410685
     -4.789790     45.364916     45.364916     90.729831
     -4.779780     41.403976     41.403976     82.807953
     -4.769770     38.454963     38.454963     76.909926
     -4.759760     36.687732     36.687732     73.375463
     -4.749750     35.846164     35.846164     71.692328
     -4.739740     35.411118     35.411118     70.822235
     -4.729730     34.815173     34.815173     69.630347
     -4.719720     33.628257     33.628257     67.256514
     -4.709710     31.655724     31.655724     63.311448
     -4.699700     28.935512     28.935512     57.871024
     -4.689690     25.669339     25.669339     51.338678
     -4.679680     22.147674     22.147674     44.295348
     -4.669670     18.713889     18.713889     37.427778
     -4.659660     15.770981     15.770981     31.541961
     -4.649650     13.794974     13.794974     27.589948
     -4.639640     13.307632     13.307632     26.615265
     -4.629630     14.780573     14.780573     29.561146
     -4.619620     18.479834     18.479834     36.959668
     -4.609610     24.298574     24.298574     48.597148
     -4.599600     31.652757     31.652757     63.305514
     -4.589590     39.515482     39.515482     79.030965
     -4.579580     46.626254     46.626254     93.252508
     -4.569570     51.835415     51.835415    103.670830
     -4.559560     54.464372     54.464372    108.928744
     -4.549550     54.528813     54.528813    109.057627
     -4.539540     52.716141     52.716141    105.432282
     -4.529530     50.114431     50.114431    100.228862
     -4.519520     47.802983     47.802983     95.605966
     -4.509510     46.474123     46.474123     92.948245
     -4.499499     46.234668     46.234668     92.469336
     -4.489489     46.649466     46.649466     93.298932
     -4.479479     46.983767     46.983767     93.967533
     -4.469469     46.524695     46.524695     93.049391
     -4.459459     44.845008     44.845008     89.690016
     -4.449449     41.915950     41.915950     83.831900
     -4.439439     38.054771     38.054771     76.109541
     -4.429429     33.766492     33.766492     67.532984
     -4.419419     29.573712     29.573712     59.147425
     -4.409409     25.909067     25.909067     51.818134
     -4.399399     23.088721     23.088721     46.177443
     -4.389389     21.329997     21.329997     42.659993
     -4.379379     20.758365     20.758365     41.516729
     -4.369369     21.377763     21.377763     42.755526
     -4.359359     23.027607     23.027607     46.055215
     -4.349349     25.378752     25.378752     50.757504
     -4.339339     28.004847     28.004847     56.009693
     -4.329329     30.516452     30.516452     61.032905
     -4.319319     32.698999     32.698999     65.397997
     -4.309309     34.583784     34.583784     69.167568
     -4.299299     36.409235     36.409235     72.818470
     -4.289289     38.478973     38.478973     76.957946
     -4.279279     40.969231     40.969231     81.938463
     -4.269269     43.764733     43.764733     87.529467
     -4.259259     46.401823     46.401823     92.803647
     -4.249249     48.166245     48.166245     96.332489
     -4.239239     48.332278     48.332278     96.664556
     -4.229229     46.458784     46.458784     92.917568
     -4.219219     42.613062     42.613062     85.226125
     -4.209209     37.410237     37.410237     74.820475
     -4.199199     31.836608     31.836608     63.673215
     -4.189189     26.929560     26.929560     53.859121
     -4.179179     23.454550     23.454550     46.909100
     -4.169169     21.713747     21.713747     43.427495
     -4.159159     21.549895     21.549895     43.099790
     -4.149149     22.516616     22.516616     45.033232
     -4.139139     24.119587     24.119587     48.239174
     -4.129129     26.015559     26.015559     52.031118
     -4.119119     28.085946     28.085946     56.171891
     -4.109109     30.362076     30.362076     60.724153
     -4.099099     32.849010     32.849010     65.698019
     -4.089089     35.348944     35.348944     70.697888
     -4.079079     37.396082     37.396082     74.792165
     -4.069069     38.365563     38.365563     76.731126
     -4.059059     37.724653     37.724653     75.449307
     -4.049049     35.305507     35.305507     70.611014
     -4.039039     31.454090     31.454090     62.908179
     -4.029029     26.971201     26.971201     53.942403
     -4.019019     22.872266     22.872266     45.744532
     -4.009009     20.082327     20.082327     40.164655
     -3.998999     19.199493     19.199493     38.398986
     -3.988989     20.404670     20.404670     40.809340
     -3.978979     23.513152     23.513152     47.026305
     -3.968969     28.106046     28.106046     56.212092
     -3.958959     33.671005     33.671005     67.342010
     -3.948949     39.710810     39.710810     79.421620
     -3.938939     45.813429     45.813429     91.626859
     -3.928929     51.691809     51.691809    103.383619
     -3.918919     57.192510     57.192510    114.385021
     -3.908909     62.259341     62.259341    124.518681
     -3.898899     66.845202     66.845202    133.690404
     -3.888889     70.796654     70.796654    141.593308
     -3.878879     73.769165     73.769165    147.538330
     -3.868869     75.235735     75.235735    150.471470
     -3.858859     74.614618     74.614618    149.229235
     -3.848849     71.480725     71.480725    142.961451
     -3.838839     65.775838     65.775838    131.551676
     -3.828829     57.924279     57.924279    115.848558
     -3.818819     48.797758     48.797758     97.595515
     -3.808809     39.534856     39.534856     79.069711
     -3.798799     31.276106     31.276106     62.552212
     -3.788789     24.901402     24.901402     49.802804
     -3.778779     20.847221     20.847221     41.694442
     -3.768769     19.047792     19.047792     38.095583
     -3.758759     19.004381     19.004381     38.008762
     -3.748749     19.954275     19.954275     39.908549
     -3.738739     21.091672     21.091672     42.183344
     -3.728729     21.786142     21.786142     43.572284
     -3.718719     21.747625     21.747625     43.495249
     -3.708709     21.097915     21.097915     42.195830
     -3.698699     20.326386     20.326386     40.652773
     -3.688689     20.132583     20.132583     40.265166
     -3.678679     21.189300     21.189300     42.378601
     -3.668669     23.891189     23.891189     47.782378
     -3.658659     28.173054     28.173054     56.346107
     -3.648649     33.472659     33.472659     66.945318
     -3.638639     38.866702     38.866702     77.733403
     -3.628629     43.338096     43.338096     86.676193
     -3.618619     46.072306     46.072306     92.144613
     -3.608609     46.667422     46.667422     93.334845
     -3.598599     45.188531     45.188531     90.377063
     -3.588589     42.073661     42.073661     84.147323
     -3.578579     37.957765     37.957765     75.915530
     -3.568569     33.491781     33.491781     66.983562
     -3.558559     29.204630     29.204630     58.409261
     -3.548549     25.421802     25.421802     50.843605
     -3.538539     22.240268     22.240268     44.480535
     -3.528529     19.561433     19.561433     39.122866
     -3.518519     17.180047     17.180047     34.360093
     -3.508509     14.907208     14.907208     29.814416
     -3.498498     12.683460     12.683460     25.366920
     -3.488488     10.635468     10.635468     21.270936
     -3.478478      9.053128      9.053128     18.106256
     -3.468468      8.297363      8.297363     16.594726
     -3.458458      8.671359      8.671359     17.342719
     -3.448448     10.293342     10.293342     20.586684
     -3.438438     13.006756     13.006756     26.013513
     -3.428428     16.362249     16.362249     32.724499
     -3.418418     19.698501     19.698501     39.397002
     -3.408408     22.321480     22.321480     44.642960
     -3.398398     23.734167     23.734167     47.468333
     -3.388388     23.827038     23.827038     47.654075
     -3.378378     22.939173     22.939173     45.878346
     -3.368368     21.753093     21.753093     43.506187
     -3.358358     21.065340     21.065340     42.130681
     -3.348348     21.529021     21.529021     43.058043
     -3.338338     23.461647     23.461647     46.923293
     -3.328328     26.763187     26.763187     53.526375
     -3.318318     30.938380     30.938380     61.876760
     -3.308308     35.198590     35.198590     70.397180
     -3.298298     38.628144     38.628144     77.256288
     -3.288288     40.404053     40.404053     80.808106
     -3.278278     40.031555     40.031555     80.063110
     -3.268268     37.516576     37.516576     75.033153
     -3.258258     33.385829     33.385829     66.771658
     -3.248248     28.516708     28.516708     57.033415
     -3.238238     23.832749     23.832749     47.665497
     -3.228228     19.995856     19.995856     39.991713
     -3.218218     17.231108     17.231108     34.462216
     -3.208208     15.349760     15.349760     30.699520
     -3.198198     13.936265     13.936265     27.872530
     -3.188188     12.594387     12.594387     25.188774
     -3.178178     11.139325     11.139325     22.278651
     -3.168168      9.669556      9.669556     19.339112
     -3.158158      8.517665      8.517665     17.035330
     -3.148148      8.125336      8.125336     16.250671
     -3.138138      8.896894      8.896894     17.793788
     -3.128128     11.068946     11.068946     22.137892
     -3.118118     14.615213     14.615213     29.230427
     -3.108108     19.201882     19.201882     38.403763
     -3.098098     24.214269     24.214269     48.428537
     -3.088088     28.870560     28.870560     57.741120
     -3.078078     32.409455     32.409455     64.818909
     -3.068068     34.295840     34.295840     68.591680
     -3.058058     34.362100     34.362100     68.724200
     -3.048048     32.819723     32.819723     65.639447
     -3.038038     30.136141     30.136141     60.272283
     -3.028028     26.841698     26.841698     53.683396
     -3.018018     23.366043     23.366043     46.732087
     -3.008008     19.978436     19.978436     39.956873
     -2.997998     16.839638     16.839638     33.679275
     -2.987988     14.109276     14.109276     28.218551
     -2.977978     12.030681     12.030681     24.061363
     -2.967968     10.940654     10.940654     21.881308
     -2.957958     11.198821     11.198821     22.397643
     -2.947948     13.068712     13.068712     26.137424
     -2.937938     16.596658     16.596658     33.193316
     -2.927928     21.531094     21.531094     43.062189
     -2.917918     27.314268     27.314268     54.628535
     -2.907908     33.163194     33.163194     66.326388
     -2.897898     38.232634     38.232634     76.465267
     -2.887888     41.820720     41.820720     83.641439
     -2.877878     43.550168     43.550168     87.100336
     -2.867868     43.453624     43.453624     86.907248
     -2.857858     41.921924     41.921924     83.843849
     -2.847848     39.531062     39.531062     79.062124
     -2.837838     36.820821     36.820821     73.641643
     -2.827828     34.123305     34.123305     68.246611
     -2.817818     31.515168     31.515168     63.030336
     -2.807808     28.903265     28.903265     57.806529
     -2.797798     26.184082     26.184082     52.368165
     -2.787788     23.381990     23.381990     46.763979
     -2.777778     20.689970     20.689970     41.379940
     -2.767768     18.397451     18.397451     36.794903
     -2.757758     16.756774     16.756774     33.513549
     -2.747748     15.873418     15.873418     31.746837
     -2.737738     15.685795     15.685795     31.371590
     -2.727728     16.040281     16.040281     32.080562
     -2.717718     16.803935     16.803935     33.607870
     -2.707708     17.932617     17.932617     35.865235
     -2.697698     19.444770     19.444770     38.889539
     -2.687688     21.321292     21.321292     42.642584
     -2.677678     23.411395     23.411395     46.822790
     -2.667668     25.427740     25.427740     50.855480
     -2.657658     27.054318     27.054318     54.108636
     -2.647648     28.107352     28.107352     56.214704
     -2.637638     28.644174     28.644174     57.288348
     -2.627628     28.943326     28.943326     57.886652
     -2.617618     29.362446     29.362446     58.724892
     -2.607608     30.158185     30.158185     60.316370
     -2.597598     31.369087     31.369087     62.738174
     -2.587588     32.811011     32.811011     65.622022
     -2.577578     34.160081     34.160081     68.320163
     -2.567568     35.057676     35.057676     70.115351
     -2.557558     35.188390     35.188390     70.376779
     -2.547548     34.328475     34.328475     68.656950
     -2.537538     32.391355     32.391355     64.782710
     -2.527528     29.483777     29.483777     58.967553
     -2.517518     25.948775     25.948775     51.897550
     -2.507508     22.349578     22.349578     44.699157
     -2.497497     19.366037     19.366037     38.732074
     -2.487487     17.621372     17.621372     35.242743
     -2.477477     17.499727     17.499727     34.999453
     -2.467467     19.027717     19.027717     38.055433
     -2.457457     21.870994     21.870994     43.741987
     -2.447447     25.452316     25.452316     50.904631
     -2.437437     29.148981     29.148981     58.297962
     -2.427427     32.492506     32.492506     64.985011
     -2.417417     35.287142     35.287142     70.574284
     -2.407407     37.593858     37.593858     75.187715
     -2.397397     39.585689     39.585689     79.171378
     -2.387387     41.344873     41.344873     82.689746
     -2.377377     42.709241     42.709241     85.418482
     -2.367367     43.260153     43.260153     86.520306
     -2.357357     42.476432     42.476432     84.952864
     -2.347347     39.989193     39.989193     79.978385
     -2.337337     35.811631     35.811631     71.623263
     -2.327327     30.425335     30.425335     60.850670
     -2.317317     24.679251     24.679251     49.358501
     -2.307307     19.553186     19.553186     39.106372
     -2.297297     15.895804     15.895804     31.791609
     -2.287287     14.238662     14.238662     28.477324
     -2.277277     14.731065     14.731065     29.462130
     -2.267267     17.179473     17.179473     34.358946
     -2.257257     21.143414     21.143414     42.286828
     -2.247247     26.041877     26.041877     52.083754
     -2.237237     31.243420     31.243420     62.486840
     -2.227227     36.132411     36.132411     72.264821
     -2.217217     40.155721     40.155721     80.311442
     -2.207207     42.859943     42.859943     85.719886
     -2.197197     43.930293     43.930293     87.860587
     -2.187187     43.236931     43.236931     86.473863
     -2.177177     40.880382     40.880382     81.760764
     -2.167167     37.210030     37.210030     74.420060
     -2.157157     32.782493     32.782493     65.564987
     -2.147147     28.244674     28.244674     56.489348
     -2.137137     24.167842     24.167842     48.335684
     -2.127127     20.899358     20.899358     41.798715
     -2.117117     18.504251     18.504251     37.008501
     -2.107107     16.826302     16.826302     33.652604
     -2.097097     15.630400     15.630400     31.260801
     -2.087087     14.740548     14.740548     29.481096
     -2.077077     14.095348     14.095348     28.190697
     -2.067067     13.700914     13.700914     27.401828
     -2.057057     13.529654     13.529654     27.059308
     -2.047047     13.445692     13.445692     26.891384
     -2.037037     13.213963     13.213963     26.427925
     -2.027027     12.590004     12.590004     25.180007
     -2.017017     11.433952     11.433952     22.867904
     -2.007007      9.780078      9.780078     19.560155
     -1.996997      7.825876      7.825876     15.651752
     -1.986987      5.855499      5.855499     11.710998
     -1.976977      4.146229      4.146229      8.292459
     -1.966967      2.905653      2.905653      5.811306
     -1.956957      2.258706      2.258706      4.517412
     -1.946947      2.270735      2.270735      4.541469
     -1.936937      2.975318      2.975318      5.950636
     -1.926927      4.380355      4.380355      8.760709
     -1.916917      6.445815      6.445815     12.891630
     -1.906907      9.048392      9.048392     18.096783
     -1.896897     11.959731     11.959731     23.919463
     -1.886887     14.860293     14.860293     29.720587
     -1.876877     17.393491     17.393491     34.786983
     -1.866867     19.245243     19.245243     38.490486
     -1.856857     20.222725     20.222725     40.445451
     -1.846847     20.306265     20.306265     40.612531
     -1.836837     19.655705     19.655705     39.311410
     -1.826827     18.563223     18.563223     37.126445
     -1.816817     17.359285     17.359285     34.718570
     -1.806807     16.298381     16.298381     32.596761
     -1.796797     15.468953     15.468953     30.937906
     -1.786787     14.771816     14.771816     29.543632
     -1.776777     13.983713     13.983713     27.967427
     -1.766767     12.878301     12.878301     25.756601
     -1.756757     11.343904     11.343904     22.687807
     -1.746747      9.440019      9.440019     18.880038
     -1.736737      7.371993      7.371993     14.743986
     -1.726727      5.409652      5.409652     10.819304
     -1.716717      3.800319      3.800319      7.600638
     -1.706707      2.717273      2.717273      5.434546
     -1.696697      2.253252      2.253252      4.506503
     -1.686687      2.438817      2.438817      4.877633
     -1.676677      3.255313      3.255313      6.510625
     -1.666667      4.624729      4.624729      9.249459
     -1.656657      6.383567      6.383567     12.767135
     -1.646647      8.268499      8.268499     16.536999
     -1.636637      9.944154      9.944154     19.888308
     -1.626627     11.083645     11.083645     22.167291
