# EIG2DOS: Utility for SIESTA to obtain the electronic density of states
#  E. Artacho, Apr 1999, A. Garcia, Apr 2012
#  Nick R. Papior, Feb 2017
# ------------------------------------------
# Eigenvalues calculated from a non-polarized calculation
# Eigenvalues read from siesta.EIG
# Kpoint weights read from siesta.KP
# Using smearing parameter:   0.0500
# Using 1000 points in the energy range
# Selected bands: 1 to: 2981
# Emin, Emax in file for selected band(s):    -27.0670788    218.3305290
# Nbands, Nspin, Nk   =   2981     1     1
# E_F                 =    -4.2761 eV --> (shifted to ZERO)
# Broadening          =     0.0500 eV
#
#        E            N(up)  (=)   N(down)         Ntot
     -5.000000     43.810965     43.810965     87.621930
     -4.989990     44.972154     44.972154     89.944307
     -4.979980     45.393969     45.393969     90.787939
     -4.969970     45.030996     45.030996     90.061991
     -4.959960     43.843754     43.843754     87.687508
     -4.949950     41.856942     41.856942     83.713884
     -4.939940     39.211918     39.211918     78.423836
     -4.929930     36.196910     36.196910     72.393821
     -4.919920     33.251419     33.251419     66.502838
     -4.909910     30.942452     30.942452     61.884904
     -4.899900     29.899893     29.899893     59.799785
     -4.889890     30.691516     30.691516     61.383031
     -4.879880     33.635797     33.635797     67.271594
     -4.869870     38.598443     38.598443     77.196886
     -4.859860     44.870442     44.870442     89.740885
     -4.849850     51.233647     51.233647    102.467294
     -4.839840     56.252932     56.252932    112.505864
     -4.829830     58.713684     58.713684    117.427368
     -4.819820     58.023104     58.023104    116.046207
     -4.809810     54.388785     54.388785    108.777569
     -4.799800     48.694279     48.694279     97.388557
     -4.789790     42.145713     42.145713     84.291426
     -4.779780     35.867695     35.867695     71.735391
     -4.769770     30.620911     30.620911     61.241822
     -4.759760     26.718017     26.718017     53.436034
     -4.749750     24.103971     24.103971     48.207942
     -4.739740     22.508764     22.508764     45.017528
     -4.729730     21.588727     21.588727     43.177454
     -4.719720     21.015767     21.015767     42.031533
     -4.709710     20.514536     20.514536     41.029072
     -4.699700     19.869508     19.869508     39.739015
     -4.689690     18.929373     18.929373     37.858747
     -4.679680     17.629504     17.629504     35.259008
     -4.669670     16.035740     16.035740     32.071480
     -4.659660     14.390320     14.390320     28.780639
     -4.649650     13.125895     13.125895     26.251790
     -4.639640     12.816854     12.816854     25.633707
     -4.629630     14.057672     14.057672     28.115343
     -4.619620     17.285998     17.285998     34.571995
     -4.609610     22.594814     22.594814     45.189628
     -4.599600     29.597907     29.597907     59.195815
     -4.589590     37.417602     37.417602     74.835204
     -4.579580     44.839767     44.839767     89.679534
     -4.569570     50.622359     50.622359    101.244718
     -4.559560     53.868262     53.868262    107.736525
     -4.549550     54.321987     54.321987    108.643975
     -4.539540     52.461497     52.461497    104.922993
     -4.529530     49.335880     49.335880     98.671760
     -4.519520     46.209185     46.209185     92.418370
     -4.509510     44.152750     44.152750     88.305499
     -4.499499     43.741347     43.741347     87.482694
     -4.489489     44.950259     44.950259     89.900517
     -4.479479     47.256186     47.256186     94.512372
     -4.469469     49.864475     49.864475     99.728951
     -4.459459     51.955215     51.955215    103.910430
     -4.449449     52.866891     52.866891    105.733782
     -4.439439     52.192785     52.192785    104.385571
     -4.429429     49.813305     49.813305     99.626610
     -4.419419     45.899575     45.899575     91.799149
     -4.409409     40.900811     40.900811     81.801622
     -4.399399     35.496575     35.496575     70.993150
     -4.389389     30.486457     30.486457     60.972913
     -4.379379     26.616598     26.616598     53.233196
     -4.369369     24.387985     24.387985     48.775971
     -4.359359     23.921696     23.921696     47.843391
     -4.349349     24.945332     24.945332     49.890665
     -4.339339     26.914127     26.914127     53.828253
     -4.329329     29.217824     29.217824     58.435648
     -4.319319     31.386477     31.386477     62.772954
     -4.309309     33.214824     33.214824     66.429649
     -4.299299     34.768472     34.768472     69.536943
     -4.289289     36.287133     36.287133     72.574266
     -4.279279     38.033056     38.033056     76.066111
     -4.269269     40.138463     40.138463     80.276927
     -4.259259     42.497048     42.497048     84.994095
     -4.249249     44.735767     44.735767     89.471533
     -4.239239     46.292315     46.292315     92.584630
     -4.229229     46.595140     46.595140     93.190281
     -4.219219     45.292674     45.292674     90.585347
     -4.209209     42.432451     42.432451     84.864902
     -4.199199     38.491237     38.491237     76.982475
     -4.189189     34.222597     34.222597     68.445195
     -4.179179     30.386789     30.386789     60.773579
     -4.169169     27.495069     27.495069     54.990137
     -4.159159     25.690292     25.690292     51.380583
     -4.149149     24.806489     24.806489     49.612978
     -4.139139     24.554750     24.554750     49.109500
     -4.129129     24.725876     24.725876     49.451752
     -4.119119     25.303493     25.303493     50.606986
     -4.109109     26.432464     26.432464     52.864929
     -4.099099     28.259988     28.259988     56.519976
     -4.089089     30.733446     30.733446     61.466892
     -4.079079     33.472510     33.472510     66.945019
     -4.069069     35.809407     35.809407     71.618815
     -4.059059     37.008766     37.008766     74.017533
     -4.049049     36.573868     36.573868     73.147737
     -4.039039     34.483762     34.483762     68.967525
     -4.029029     31.233297     31.233297     62.466594
     -4.019019     27.655664     27.655664     55.311329
     -4.009009     24.626517     24.626517     49.253033
     -3.998999     22.802419     22.802419     45.604839
     -3.988989     22.504324     22.504324     45.008648
     -3.978979     23.756260     23.756260     47.512520
     -3.968969     26.403545     26.403545     52.807090
     -3.958959     30.216656     30.216656     60.433313
     -3.948949     34.934591     34.934591     69.869182
     -3.938939     40.266642     40.266642     80.533285
     -3.928929     45.901055     45.901055     91.802109
     -3.918919     51.545897     51.545897    103.091793
     -3.908909     56.979460     56.979460    113.958920
     -3.898899     62.060120     62.060120    124.120241
     -3.888889     66.664540     66.664540    133.329081
     -3.878879     70.576038     70.576038    141.152076
     -3.868869     73.393480     73.393480    146.786960
     -3.858859     74.539276     74.539276    149.078552
     -3.848849     73.402122     73.402122    146.804244
     -3.838839     69.576562     69.576562    139.153125
     -3.828829     63.097745     63.097745    126.195491
     -3.818819     54.554827     54.554827    109.109654
     -3.808809     45.013508     45.013508     90.027017
     -3.798799     35.764109     35.764109     71.528218
     -3.788789     27.989149     27.989149     55.978298
     -3.778779     22.472844     22.472844     44.945688
     -3.768769     19.445788     19.445788     38.891576
     -3.758759     18.596296     18.596296     37.192592
     -3.748749     19.221511     19.221511     38.443021
     -3.738739     20.458803     20.458803     40.917607
     -3.728729     21.531805     21.531805     43.063610
     -3.718719     21.954040     21.954040     43.908080
     -3.708709     21.646501     21.646501     43.293001
     -3.698699     20.941332     20.941332     41.882664
     -3.688689     20.465174     20.465174     40.930347
     -3.678679     20.924829     20.924829     41.849658
     -3.668669     22.851121     22.851121     45.702243
     -3.658659     26.382120     26.382120     52.764240
     -3.648649     31.167643     31.167643     62.335286
     -3.638639     36.441389     36.441389     72.882778
     -3.628629     41.241619     41.241619     82.483238
     -3.618619     44.695394     44.695394     89.390789
     -3.608609     46.253412     46.253412     92.506824
     -3.598599     45.792486     45.792486     91.584973
     -3.588589     43.572490     43.572490     87.144980
     -3.578579     40.098529     40.098529     80.197058
     -3.568569     35.959814     35.959814     71.919628
     -3.558559     31.694374     31.694374     63.388748
     -3.548549     27.695490     27.695490     55.390979
     -3.538539     24.161362     24.161362     48.322723
     -3.528529     21.094257     21.094257     42.188514
     -3.518519     18.356527     18.356527     36.713053
     -3.508509     15.772636     15.772636     31.545273
     -3.498498     13.239131     13.239131     26.478263
     -3.488488     10.793762     10.793762     21.587524
     -3.478478      8.613970      8.613970     17.227940
     -3.468468      6.950909      6.950909     13.901818
     -3.458458      6.032768      6.032768     12.065536
     -3.448448      5.975951      5.975951     11.951901
     -3.438438      6.730879      6.730879     13.461758
     -3.428428      8.075877      8.075877     16.151754
     -3.418418      9.664388      9.664388     19.328776
     -3.408408     11.121397     11.121397     22.242794
     -3.398398     12.167341     12.167341     24.334682
     -3.388388     12.727513     12.727513     25.455025
     -3.378378     12.978841     12.978841     25.957681
     -3.368368     13.306280     13.306280     26.612561
     -3.358358     14.180746     14.180746     28.361492
     -3.348348     16.005132     16.005132     32.010264
     -3.338338     18.982228     18.982228     37.964457
     -3.328328     23.037242     23.037242     46.074485
     -3.318318     27.799628     27.799628     55.599256
     -3.308308     32.637841     32.637841     65.275681
     -3.298298     36.749165     36.749165     73.498330
     -3.288288     39.312710     39.312710     78.625421
     -3.278278     39.693037     39.693037     79.386074
     -3.268268     37.638453     37.638453     75.276906
     -3.258258     33.387980     33.387980     66.775960
     -3.248248     27.621660     27.621660     55.243319
     -3.238238     21.260118     21.260118     42.520235
     -3.228228     15.196704     15.196704     30.393407
     -3.218218     10.075872     10.075872     20.151744
     -3.208208      6.196896      6.196896     12.393792
     -3.198198      3.551577      3.551577      7.103155
     -3.188188      1.946330      1.946330      3.892660
     -3.178178      1.141897      1.141897      2.283794
     -3.168168      0.963213      0.963213      1.926425
     -3.158158      1.362256      1.362256      2.724512
     -3.148148      2.435731      2.435731      4.871461
     -3.138138      4.401189      4.401189      8.802378
     -3.128128      7.529126      7.529126     15.058253
     -3.118118     12.029659     12.029659     24.059319
     -3.108108     17.909911     17.909911     35.819822
     -3.098098     24.847659     24.847659     49.695318
     -3.088088     32.148703     32.148703     64.297406
     -3.078078     38.844883     38.844883     77.689766
     -3.068068     43.935431     43.935431     87.870861
     -3.058058     46.695497     46.695497     93.390994
     -3.048048     46.918918     46.918918     93.837836
     -3.038038     44.973434     44.973434     89.946869
     -3.028028     41.632866     41.632866     83.265731
     -3.018018     37.766393     37.766393     75.532786
     -3.008008     34.038736     34.038736     68.077471
     -2.997998     30.760494     30.760494     61.520987
     -2.987988     27.937755     27.937755     55.875510
     -2.977978     25.463044     25.463044     50.926088
     -2.967968     23.326769     23.326769     46.653538
     -2.957958     21.734696     21.734696     43.469392
     -2.947948     21.076197     21.076197     42.152394
     -2.937938     21.763109     21.763109     43.526219
     -2.927928     24.016372     24.016372     48.032744
     -2.917918     27.698572     27.698572     55.397145
     -2.907908     32.271637     32.271637     64.543274
     -2.897898     36.908625     36.908625     73.817250
     -2.887888     40.725163     40.725163     81.450326
     -2.877878     43.044035     43.044035     86.088070
     -2.867868     43.588676     43.588676     87.177352
     -2.857858     42.528466     42.528466     85.056932
     -2.847848     40.361414     40.361414     80.722828
     -2.837838     37.690511     37.690511     75.381022
     -2.827828     34.995150     34.995150     69.990300
     -2.817818     32.496140     32.496140     64.992280
     -2.807808     30.162963     30.162963     60.325927
     -2.797798     27.840164     27.840164     55.680327
     -2.787788     25.412803     25.412803     50.825606
     -2.777778     22.918042     22.918042     45.836083
     -2.767768     20.547081     20.547081     41.094163
     -2.757758     18.547855     18.547855     37.095710
     -2.747748     17.096377     17.096377     34.192755
     -2.737738     16.220185     16.220185     32.440370
     -2.727728     15.821058     15.821058     31.642116
     -2.717718     15.777836     15.777836     31.555673
     -2.707708     16.055485     16.055485     32.110969
     -2.697698     16.740260     16.740260     33.480521
     -2.687688     17.969639     17.969639     35.939279
     -2.677678     19.799193     19.799193     39.598386
     -2.667668     22.097540     22.097540     44.195081
     -2.657658     24.548944     24.548944     49.097888
     -2.647648     26.775029     26.775029     53.550057
     -2.637638     28.506580     28.506580     57.013160
     -2.627628     29.699610     29.699610     59.399220
     -2.617618     30.524709     30.524709     61.049419
     -2.607608     31.241962     31.241962     62.483924
     -2.597598     32.045297     32.045297     64.090594
     -2.587588     32.968850     32.968850     65.937699
     -2.577578     33.892008     33.892008     67.784016
     -2.567568     34.608601     34.608601     69.217203
     -2.557558     34.896800     34.896800     69.793599
     -2.547548     34.555996     34.555996     69.111992
     -2.537538     33.428444     33.428444     66.856888
     -2.527528     31.443595     31.443595     62.887189
     -2.517518     28.692665     28.692665     57.385329
     -2.507508     25.490810     25.490810     50.981620
     -2.497497     22.364175     22.364175     44.728349
     -2.487487     19.931816     19.931816     39.863633
     -2.477477     18.715956     18.715956     37.431912
     -2.467467     18.963082     18.963082     37.926165
     -2.457457     20.561362     20.561362     41.122724
     -2.447447     23.096477     23.096477     46.192955
     -2.437437     26.023412     26.023412     52.046823
     -2.427427     28.877736     28.877736     57.755473
     -2.417417     31.430932     31.430932     62.861864
     -2.407407     33.718862     33.718862     67.437725
     -2.397397     35.930788     35.930788     71.861576
     -2.387387     38.212665     38.212665     76.425330
     -2.377377     40.482555     40.482555     80.965110
     -2.367367     42.356113     42.356113     84.712226
     -2.357357     43.233438     43.233438     86.466876
     -2.347347     42.523089     42.523089     85.046179
     -2.337337     39.908993     39.908993     79.817986
     -2.327327     35.538046     35.538046     71.076093
     -2.317317     30.039641     30.039641     60.079282
     -2.307307     24.367789     24.367789     48.735578
     -2.297297     19.537501     19.537501     39.075003
     -2.287287     16.364241     16.364241     32.728481
     -2.277277     15.294541     15.294541     30.589082
     -2.267267     16.360784     16.360784     32.721569
     -2.257257     19.241473     19.241473     38.482946
     -2.247247     23.382829     23.382829     46.765659
     -2.237237     28.136101     28.136101     56.272203
     -2.227227     32.874392     32.874392     65.748784
     -2.217217     37.065799     37.065799     74.131598
     -2.207207     40.297448     40.297448     80.594896
     -2.197197     42.267224     42.267224     84.534449
     -2.187187     42.776259     42.776259     85.552517
     -2.177177     41.750430     41.750430     83.500860
     -2.167167     39.289465     39.289465     78.578930
     -2.157157     35.705078     35.705078     71.410156
     -2.147147     31.495613     31.495613     62.991226
     -2.137137     27.232791     27.232791     54.465582
     -2.127127     23.393559     23.393559     46.787119
     -2.117117     20.216339     20.216339     40.432678
     -2.107107     17.658589     17.658589     35.317177
     -2.097097     15.478247     15.478247     30.956494
     -2.087087     13.391205     13.391205     26.782410
     -2.077077     11.218221     11.218221     22.436443
     -2.067067      8.950936      8.950936     17.901871
     -2.057057      6.721417      6.721417     13.442835
     -2.047047      4.713118      4.713118      9.426236
     -2.037037      3.071405      3.071405      6.142811
     -2.027027      1.855297      1.855297      3.710593
     -2.017017      1.038662      1.038662      2.077323
     -2.007007      0.543246      0.543246      1.086492
     -1.996997      0.278912      0.278912      0.557823
     -1.986987      0.174612      0.174612      0.349225
     -1.976977      0.195840      0.195840      0.391679
     -1.966967      0.351808      0.351808      0.703617
     -1.956957      0.696043      0.696043      1.392087
     -1.946947      1.319915      1.319915      2.639830
     -1.936937      2.334857      2.334857      4.669713
     -1.926927      3.839792      3.839792      7.679584
     -1.916917      5.877252      5.877252     11.754504
     -1.906907      8.391695      8.391695     16.783389
     -1.896897     11.209623     11.209623     22.419247
     -1.886887     14.056675     14.056675     28.113349
     -1.876877     16.612070     16.612070     33.224139
     -1.866867     18.584041     18.584041     37.168081
     -1.856857     19.781419     19.781419     39.562838
     -1.846847     20.159778     20.159778     40.319556
     -1.836837     19.829578     19.829578     39.659156
     -1.826827     19.021992     19.021992     38.043984
     -1.816817     18.016249     18.016249     36.032498
     -1.806807     17.045906     17.045906     34.091811
     -1.796797     16.218524     16.218524     32.437049
     -1.786787     15.489747     15.489747     30.979493
     -1.776777     14.714029     14.714029     29.428057
     -1.766767     13.753571     13.753571     27.507143
     -1.756757     12.588923     12.588923     25.177846
     -1.746747     11.367666     11.367666     22.735333
     -1.736737     10.359679     10.359679     20.719358
     -1.726727      9.839468      9.839468     19.678937
     -1.716717      9.956457      9.956457     19.912913
     -1.706707     10.660494     10.660494     21.320987
     -1.696697     11.720769     11.720769     23.441538
     -1.686687     12.827749     12.827749     25.655497
     -1.676677     13.724197     13.724197     27.448394
     -1.666667     14.295556     14.295556     28.591113
     -1.656657     14.572942     14.572942     29.145885
     -1.646647     14.653812     14.653812     29.307624
     -1.636637     14.596116     14.596116     29.192231
     -1.626627     14.358144     14.358144     28.716289
