# EIG2DOS: Utility for SIESTA to obtain the electronic density of states
#  E. Artacho, Apr 1999, A. Garcia, Apr 2012
#  Nick R. Papior, Feb 2017
# ------------------------------------------
# Eigenvalues calculated from a non-polarized calculation
# Eigenvalues read from siesta.EIG
# Kpoint weights read from siesta.KP
# Using smearing parameter:   0.0500
# Using 1000 points in the energy range
# Selected bands: 1 to: 2981
# Emin, Emax in file for selected band(s):    -27.0575363    218.3350680
# Nbands, Nspin, Nk   =   2981     1     1
# E_F                 =    -4.2703 eV --> (shifted to ZERO)
# Broadening          =     0.0500 eV
#
#        E            N(up)  (=)   N(down)         Ntot
     -5.000000     37.416880     37.416880     74.833760
     -4.989990     39.878194     39.878194     79.756388
     -4.979980     42.139193     42.139193     84.278385
     -4.969970     43.693357     43.693357     87.386714
     -4.959960     44.116362     44.116362     88.232724
     -4.949950     43.209025     43.209025     86.418051
     -4.939940     41.064748     41.064748     82.129497
     -4.929930     38.057493     38.057493     76.114985
     -4.919920     34.777229     34.777229     69.554457
     -4.909910     31.943038     31.943038     63.886077
     -4.899900     30.302496     30.302496     60.604993
     -4.889890     30.502222     30.502222     61.004444
     -4.879880     32.917366     32.917366     65.834731
     -4.869870     37.468044     37.468044     74.936089
     -4.859860     43.504149     43.504149     87.008298
     -4.849850     49.857757     49.857757     99.715515
     -4.839840     55.109211     55.109211    110.218421
     -4.829830     58.003315     58.003315    116.006630
     -4.819820     57.851780     57.851780    115.703560
     -4.809810     54.740326     54.740326    109.480652
     -4.799800     49.447336     49.447336     98.894672
     -4.789790     43.125271     43.125271     86.250541
     -4.779780     36.905707     36.905707     73.811414
     -4.769770     31.599633     31.599633     63.199266
     -4.759760     27.583579     27.583579     55.167157
     -4.749750     24.854646     24.854646     49.709293
     -4.739740     23.171298     23.171298     46.342596
     -4.729730     22.194825     22.194825     44.389651
     -4.719720     21.585083     21.585083     43.170167
     -4.709710     21.046063     21.046063     42.092126
     -4.699700     20.341449     20.341449     40.682897
     -4.689690     19.306233     19.306233     38.612466
     -4.679680     17.872789     17.872789     35.745578
     -4.669670     16.112921     16.112921     32.225843
     -4.659660     14.277939     14.277939     28.555878
     -4.649650     12.807345     12.807345     25.614691
     -4.639640     12.280529     12.280529     24.561058
     -4.629630     13.302584     13.302584     26.605167
     -4.619620     16.337301     16.337301     32.674601
     -4.609610     21.522826     21.522826     43.045653
     -4.599600     28.527051     28.527051     57.054102
     -4.589590     36.512545     36.512545     73.025090
     -4.579580     44.266945     44.266945     88.533890
     -4.569570     50.500778     50.500778    101.001557
     -4.559560     54.233821     54.233821    108.467641
     -4.549550     55.126240     55.126240    110.252480
     -4.539540     53.609174     53.609174    107.218347
     -4.529530     50.744802     50.744802    101.489604
     -4.519520     47.863318     47.863318     95.726636
     -4.509510     46.120253     46.120253     92.240507
     -4.499499     46.142832     46.142832     92.285664
     -4.489489     47.881939     47.881939     95.763878
     -4.479479     50.692576     50.692576    101.385152
     -4.469469     53.580770     53.580770    107.161540
     -4.459459     55.513480     55.513480    111.026959
     -4.449449     55.694036     55.694036    111.388072
     -4.439439     53.740236     53.740236    107.480471
     -4.429429     49.742472     49.742472     99.484945
     -4.419419     44.211603     44.211603     88.423207
     -4.409409     37.946389     37.946389     75.892779
     -4.399399     31.858325     31.858325     63.716649
     -4.389389     26.789622     26.789622     53.579244
     -4.379379     23.353942     23.353942     46.707885
     -4.369369     21.825630     21.825630     43.651261
     -4.359359     22.101931     22.101931     44.203862
     -4.349349     23.755437     23.755437     47.510874
     -4.339339     26.172483     26.172483     52.344966
     -4.329329     28.741072     28.741072     57.482145
     -4.319319     31.026774     31.026774     62.053548
     -4.309309     32.875190     32.875190     65.750380
     -4.299299     34.408040     34.408040     68.816081
     -4.289289     35.920689     35.920689     71.841379
     -4.279279     37.720732     37.720732     75.441463
     -4.269269     39.960555     39.960555     79.921109
     -4.259259     42.516866     42.516866     85.033733
     -4.249249     44.963902     44.963902     89.927805
     -4.239239     46.669585     46.669585     93.339170
     -4.229229     47.004409     47.004409     94.008818
     -4.219219     45.595456     45.595456     91.190912
     -4.209209     42.514085     42.514085     85.028170
     -4.199199     38.295800     38.295800     76.591600
     -4.189189     33.765965     33.765965     67.531931
     -4.179179     29.747343     29.747343     59.494686
     -4.169169     26.789679     26.789679     53.579358
     -4.159159     25.045400     25.045400     50.090799
     -4.149149     24.331661     24.331661     48.663321
     -4.139139     24.322485     24.322485     48.644971
     -4.129129     24.759326     24.759326     49.518653
     -4.119119     25.573555     25.573555     51.147110
     -4.109109     26.865894     26.865894     53.731787
     -4.099099     28.758493     28.758493     57.516985
     -4.089089     31.199475     31.199475     62.398950
     -4.079079     33.832890     33.832890     67.665780
     -4.069069     36.027141     36.027141     72.054283
     -4.059059     37.078586     37.078586     74.157171
     -4.049049     36.506453     36.506453     73.012906
     -4.039039     34.290686     34.290686     68.581371
     -4.029029     30.924041     30.924041     61.848082
     -4.019019     27.248912     27.248912     54.497823
     -4.009009     24.166358     24.166358     48.332716
     -3.998999     22.364629     22.364629     44.729259
     -3.988989     22.183142     22.183142     44.366285
     -3.978979     23.634996     23.634996     47.269992
     -3.968969     26.523707     26.523707     53.047414
     -3.958959     30.562032     30.562032     61.124064
     -3.948949     35.437824     35.437824     70.875648
     -3.938939     40.833197     40.833197     81.666395
     -3.928929     46.437786     46.437786     92.875571
     -3.918919     51.982566     51.982566    103.965131
     -3.908909     57.278391     57.278391    114.556782
     -3.898899     62.215643     62.215643    124.431286
     -3.888889     66.696445     66.696445    133.392891
     -3.878879     70.520562     70.520562    141.041124
     -3.868869     73.293988     73.293988    146.587976
     -3.858859     74.438061     74.438061    148.876123
     -3.848849     73.334224     73.334224    146.668448
     -3.838839     69.565626     69.565626    139.131252
     -3.828829     63.153311     63.153311    126.306621
     -3.818819     54.670829     54.670829    109.341657
     -3.808809     45.168980     45.168980     90.337960
     -3.798799     35.927597     35.927597     71.855193
     -3.788789     28.127072     28.127072     56.254144
     -3.778779     22.559632     22.559632     45.119265
     -3.768769     19.471887     19.471887     38.943773
     -3.758759     18.570534     18.570534     37.141068
     -3.748749     19.166667     19.166667     38.333333
     -3.738739     20.402035     20.402035     40.804070
     -3.728729     21.493543     21.493543     42.987086
     -3.718719     21.939367     21.939367     43.878734
     -3.708709     21.642173     21.642173     43.284346
     -3.698699     20.919934     20.919934     41.839867
     -3.688689     20.395674     20.395674     40.791348
     -3.678679     20.786352     20.786352     41.572703
     -3.668669     22.644665     22.644665     45.289329
     -3.658659     26.134587     26.134587     52.269173
     -3.648649     30.924992     30.924992     61.849983
     -3.638639     36.252720     36.252720     72.505441
     -3.628629     41.141182     41.141182     82.282364
     -3.618619     44.691311     44.691311     89.382621
     -3.608609     46.328542     46.328542     92.657085
     -3.598599     45.915944     45.915944     91.831888
     -3.588589     43.714479     43.714479     87.428959
     -3.578579     40.240383     40.240383     80.480766
     -3.568569     36.095532     36.095532     72.191063
     -3.558559     31.825868     31.825868     63.651735
     -3.548549     27.826739     27.826739     55.653477
     -3.538539     24.295234     24.295234     48.590469
     -3.528529     21.232127     21.232127     42.464254
     -3.518519     18.498412     18.498412     36.996824
     -3.508509     15.916034     15.916034     31.832068
     -3.498498     13.376863     13.376863     26.753727
     -3.488488     10.912673     10.912673     21.825347
     -3.478478      8.696130      8.696130     17.392259
     -3.468468      6.977629      6.977629     13.955257
     -3.458458      5.990522      5.990522     11.981043
     -3.448448      5.862656      5.862656     11.725313
     -3.438438      6.560623      6.560623     13.121246
     -3.428428      7.879862      7.879862     15.759725
     -3.418418      9.486199      9.486199     18.972399
     -3.408408     11.006354     11.006354     22.012708
     -3.398398     12.148488     12.148488     24.296977
     -3.388388     12.813030     12.813030     25.626061
     -3.378378     13.145643     13.145643     26.291286
     -3.368368     13.502209     13.502209     27.004417
     -3.358358     14.334766     14.334766     28.669532
     -3.348348     16.043302     16.043302     32.086604
     -3.338338     18.846957     18.846957     37.693914
     -3.328328     22.706811     22.706811     45.413621
     -3.318318     27.302871     27.302871     54.605742
     -3.308308     32.056740     32.056740     64.113480
     -3.298298     36.203427     36.203427     72.406854
     -3.288288     38.927225     38.927225     77.854451
     -3.278278     39.558731     39.558731     79.117461
     -3.268268     37.782992     37.782992     75.565983
     -3.258258     33.769730     33.769730     67.539460
     -3.248248     28.149054     28.149054     56.298108
     -3.238238     21.826069     21.826069     43.652138
     -3.228228     15.711784     15.711784     31.423567
     -3.218218     10.487481     10.487481     20.974962
     -3.208208      6.490933      6.490933     12.981866
     -3.198198      3.741588      3.741588      7.483176
     -3.188188      2.058326      2.058326      4.116652
     -3.178178      1.200936      1.200936      2.401871
     -3.168168      0.983329      0.983329      1.966659
     -3.158158      1.337867      1.337867      2.675734
     -3.148148      2.332260      2.332260      4.664521
     -3.138138      4.145877      4.145877      8.291755
     -3.128128      7.008538      7.008538     14.017075
     -3.118118     11.104838     11.104838     22.209676
     -3.108108     16.458117     16.458117     32.916235
     -3.098098     22.827127     22.827127     45.654254
     -3.088088     29.662451     29.662451     59.324901
     -3.078078     36.163446     36.163446     72.326891
     -3.068068     41.443169     41.443169     82.886338
     -3.058058     44.758581     44.758581     89.517162
     -3.048048     45.722501     45.722501     91.445001
     -3.038038     44.410273     44.410273     88.820545
     -3.028028     41.317104     41.317104     82.634208
     -3.018018     37.190399     37.190399     74.380798
     -3.008008     32.815033     32.815033     65.630065
     -2.997998     28.837703     28.837703     57.675406
     -2.987988     25.681135     25.681135     51.362271
     -2.977978     23.549584     23.549584     47.099167
     -2.967968     22.493629     22.493629     44.987259
     -2.957958     22.492517     22.492517     44.985034
     -2.947948     23.515875     23.515875     47.031751
     -2.937938     25.535883     25.535883     51.071766
     -2.927928     28.480052     28.480052     56.960104
     -2.917918     32.147542     32.147542     64.295084
     -2.907908     36.144632     36.144632     72.289263
     -2.897898     39.900784     39.900784     79.801568
     -2.887888     42.790174     42.790174     85.580348
     -2.877878     44.320482     44.320482     88.640965
     -2.867868     44.301269     44.301269     88.602538
     -2.857858     42.903556     42.903556     85.807113
     -2.847848     40.574392     40.574392     81.148784
     -2.837838     37.845217     37.845217     75.690434
     -2.827828     35.127457     35.127457     70.254914
     -2.817818     32.592534     32.592534     65.185069
     -2.807808     30.185939     30.185939     60.371877
     -2.797798     27.753183     27.753183     55.506367
     -2.787788     25.198783     25.198783     50.397565
     -2.777778     22.587582     22.587582     45.175164
     -2.767768     20.136041     20.136041     40.272083
     -2.757758     18.107049     18.107049     36.214098
     -2.747748     16.677913     16.677913     33.355827
     -2.737738     15.864820     15.864820     31.729640
     -2.727728     15.549675     15.549675     31.099351
     -2.717718     15.588793     15.588793     31.177586
     -2.707708     15.928394     15.928394     31.856787
     -2.697698     16.645362     16.645362     33.290724
     -2.687688     17.879950     17.879950     35.759900
     -2.677678     19.700876     19.700876     39.401751
     -2.667668     21.993849     21.993849     43.987697
     -2.657658     24.455588     24.455588     48.911177
     -2.647648     26.709113     26.709113     53.418226
     -2.637638     28.475010     28.475010     56.950020
     -2.627628     29.693501     29.693501     59.387003
     -2.617618     30.523065     30.523065     61.046131
     -2.607608     31.222480     31.222480     62.444960
     -2.597598     31.996038     31.996038     63.992075
     -2.587588     32.894314     32.894314     65.788628
     -2.577578     33.810918     33.810918     67.621837
     -2.567568     34.545615     34.545615     69.091229
     -2.557558     34.873076     34.873076     69.746152
     -2.547548     34.582609     34.582609     69.165217
     -2.537538     33.503593     33.503593     67.007186
     -2.527528     31.552352     31.552352     63.104703
     -2.517518     28.808201     28.808201     57.616401
     -2.507508     25.577801     25.577801     51.155603
     -2.497497     22.386059     22.386059     44.772119
     -2.487487     19.862200     19.862200     39.724400
     -2.477477     18.551365     18.551365     37.102729
     -2.467467     18.731674     18.731674     37.463348
     -2.457457     20.322288     20.322288     40.644576
     -2.447447     22.927935     22.927935     45.855870
     -2.437437     26.002498     26.002498     52.004996
     -2.427427     29.059086     29.059086     58.118172
     -2.417417     31.831468     31.831468     63.662936
     -2.407407     34.312736     34.312736     68.625472
     -2.397397     36.654175     36.654175     73.308349
     -2.387387     38.975532     38.975532     77.951065
     -2.377377     41.184672     41.184672     82.369344
     -2.367367     42.905643     42.905643     85.811286
     -2.357357     43.565995     43.565995     87.131989
     -2.347347     42.616958     42.616958     85.233916
     -2.337337     39.790842     39.790842     79.581684
     -2.327327     35.275491     35.275491     70.550982
     -2.317317     29.722225     29.722225     59.444450
     -2.307307     24.083067     24.083067     48.166133
     -2.297297     19.350532     19.350532     38.701064
     -2.287287     16.306332     16.306332     32.612664
     -2.277277     15.362746     15.362746     30.725493
     -2.267267     16.526097     16.526097     33.052194
     -2.257257     19.461864     19.461864     38.923729
     -2.247247     23.616681     23.616681     47.233363
     -2.237237     28.351777     28.351777     56.703553
     -2.227227     33.053102     33.053102     66.106203
     -2.217217     37.197893     37.197893     74.395785
     -2.207207     40.375622     40.375622     80.751245
     -2.197197     42.281721     42.281721     84.563441
     -2.187187     42.715495     42.715495     85.430990
     -2.177177     41.606679     41.606679     83.213358
     -2.167167     39.065758     39.065758     78.131517
     -2.157157     35.418774     35.418774     70.837547
     -2.147147     31.176176     31.176176     62.352352
     -2.137137     26.914673     26.914673     53.829346
     -2.127127     23.107486     23.107486     46.214971
     -2.117117     19.982661     19.982661     39.965322
     -2.107107     17.484833     17.484833     34.969666
     -2.097097     15.360816     15.360816     30.721631
     -2.087087     13.319547     13.319547     26.639095
     -2.077077     11.179376     11.179376     22.358752
     -2.067067      8.932943      8.932943     17.865885
     -2.057057      6.715069      6.715069     13.430139
     -2.047047      4.712296      4.712296      9.424593
     -2.037037      3.072575      3.072575      6.145149
     -2.027027      1.856685      1.856685      3.713369
     -2.017017      1.039441      1.039441      2.078882
     -2.007007      0.542813      0.542813      1.085627
     -1.996997      0.276192      0.276192      0.552384
     -1.986987      0.167265      0.167265      0.334529
     -1.976977      0.179307      0.179307      0.358615
     -1.966967      0.318411      0.318411      0.636823
     -1.956957      0.634712      0.634712      1.269424
     -1.946947      1.217527      1.217527      2.435054
     -1.936937      2.180038      2.180038      4.360077
     -1.926927      3.629082      3.629082      7.258165
     -1.916917      5.621742      5.621742     11.243484
     -1.906907      8.120535      8.120535     16.241070
     -1.896897     10.966629     10.966629     21.933258
     -1.886887     13.888710     13.888710     27.777420
     -1.876877     16.552308     16.552308     33.104615
     -1.866867     18.637027     18.637027     37.274054
     -1.856857     19.917387     19.917387     39.834774
     -1.846847     20.321995     20.321995     40.643989
     -1.836837     19.952666     19.952666     39.905332
     -1.826827     19.054490     19.054490     38.108979
     -1.816817     17.939343     17.939343     35.878686
     -1.806807     16.882204     16.882204     33.764408
     -1.796797     16.028478     16.028478     32.056956
     -1.786787     15.357428     15.357428     30.714856
     -1.776777     14.727347     14.727347     29.454694
     -1.766767     13.985360     13.985360     27.970721
     -1.756757     13.083573     13.083573     26.167147
     -1.746747     12.133684     12.133684     24.267368
     -1.736737     11.364953     11.364953     22.729907
     -1.726727     11.006860     11.006860     22.013720
     -1.716717     11.162821     11.162821     22.325642
     -1.706707     11.747508     11.747508     23.495015
     -1.696697     12.524152     12.524152     25.048303
     -1.686687     13.220914     13.220914     26.441828
     -1.676677     13.659579     13.659579     27.319158
     -1.666667     13.822517     13.822517     27.645034
     -1.656657     13.820797     13.820797     27.641594
     -1.646647     13.786871     13.786871     27.573743
     -1.636637     13.762265     13.762265     27.524531
     -1.626627     13.653741     13.653741     27.307482
