# EIG2DOS: Utility for SIESTA to obtain the electronic density of states
#  E. Artacho, Apr 1999, A. Garcia, Apr 2012
#  Nick R. Papior, Feb 2017
# ------------------------------------------
# Eigenvalues calculated from a non-polarized calculation
# Eigenvalues read from siesta.EIG
# Kpoint weights read from siesta.KP
# Using smearing parameter:   0.0500
# Using 1000 points in the energy range
# Selected bands: 1 to: 2981
# Emin, Emax in file for selected band(s):    -27.0591783    218.3357010
# Nbands, Nspin, Nk   =   2981     1     1
# E_F                 =    -4.2694 eV --> (shifted to ZERO)
# Broadening          =     0.0500 eV
#
#        E            N(up)  (=)   N(down)         Ntot
     -5.000000     37.102476     37.102476     74.204951
     -4.989990     39.626865     39.626865     79.253731
     -4.979980     41.888815     41.888815     83.777630
     -4.969970     43.393209     43.393209     86.786418
     -4.959960     43.749997     43.749997     87.499995
     -4.949950     42.796900     42.796900     85.593801
     -4.939940     40.650747     40.650747     81.301493
     -4.929930     37.689464     37.689464     75.378927
     -4.919920     34.491104     34.491104     68.982208
     -4.909910     31.755353     31.755353     63.510706
     -4.899900     30.211018     30.211018     60.422036
     -4.889890     30.491440     30.491440     60.982880
     -4.879880     32.965253     32.965253     65.930505
     -4.869870     37.551664     37.551664     75.103328
     -4.859860     43.603134     43.603134     87.206268
     -4.849850     49.955762     49.955762     99.911524
     -4.839840     55.194051     55.194051    110.388103
     -4.829830     58.066656     58.066656    116.133312
     -4.819820     57.888930     57.888930    115.777861
     -4.809810     54.750151     54.750151    109.500302
     -4.799800     49.431898     49.431898     98.863795
     -4.789790     43.088922     43.088922     86.177843
     -4.779780     36.853838     36.853838     73.707675
     -4.769770     31.537587     31.537587     63.075174
     -4.759760     27.516106     27.516106     55.032212
     -4.749750     24.785827     24.785827     49.571654
     -4.739740     23.104600     23.104600     46.209199
     -4.729730     22.133085     22.133085     44.266170
     -4.719720     21.530493     21.530493     43.060986
     -4.709710     21.000368     21.000368     42.000736
     -4.699700     20.306487     20.306487     40.612974
     -4.689690     19.284774     19.284774     38.569548
     -4.679680     17.869547     17.869547     35.739095
     -4.669670     16.135456     16.135456     32.270913
     -4.659660     14.336767     14.336767     28.673534
     -4.649650     12.914086     12.914086     25.828171
     -4.639640     12.442901     12.442901     24.885801
     -4.629630     13.516342     13.516342     27.032684
     -4.619620     16.577823     16.577823     33.155646
     -4.609610     21.741730     21.741730     43.483459
     -4.599600     28.659432     28.659432     57.318865
     -4.589590     36.496286     36.496286     72.992572
     -4.579580     44.068080     44.068080     88.136160
     -4.569570     50.132862     50.132862    100.265724
     -4.559560     53.759831     53.759831    107.519662
     -4.549550     54.640251     54.640251    109.280502
     -4.539540     53.206775     53.206775    106.413549
     -4.529530     50.497753     50.497753    100.995507
     -4.519520     47.810075     47.810075     95.620150
     -4.509510     46.272360     46.272360     92.544720
     -4.499499     46.496382     46.496382     92.992764
     -4.489489     48.421379     48.421379     96.842757
     -4.479479     51.382430     51.382430    102.764861
     -4.469469     54.353024     54.353024    108.706047
     -4.459459     56.264927     56.264927    112.529855
     -4.449449     56.303397     56.303397    112.606795
     -4.439439     54.101866     54.101866    108.203731
     -4.429429     49.801263     49.801263     99.602526
     -4.419419     43.981058     43.981058     87.962115
     -4.409409     37.500820     37.500820     75.001641
     -4.399399     31.304221     31.304221     62.608443
     -4.389389     26.231014     26.231014     52.462029
     -4.379379     22.866698     22.866698     45.733397
     -4.369369     21.447967     21.447967     42.895934
     -4.359359     21.839314     21.839314     43.678628
     -4.349349     23.592873     23.592873     47.185747
     -4.339339     26.087198     26.087198     52.174396
     -4.329329     28.711491     28.711491     57.422981
     -4.319319     31.036750     31.036750     62.073500
     -4.309309     32.914173     32.914173     65.828346
     -4.299299     34.468564     34.468564     68.937128
     -4.289289     35.994923     35.994923     71.989845
     -4.279279     37.798060     37.798060     75.596120
     -4.269269     40.027763     40.027763     80.055526
     -4.259259     42.561238     42.561238     85.122475
     -4.249249     44.977845     44.977845     89.955691
     -4.239239     46.654305     46.654305     93.308610
     -4.229229     46.970429     46.970429     93.940859
     -4.219219     45.559353     45.559353     91.118705
     -4.209209     42.492661     42.492661     84.985322
     -4.199199     38.300077     38.300077     76.600153
     -4.189189     33.797328     33.797328     67.594656
     -4.179179     29.797193     29.797193     59.594386
     -4.169169     26.842529     26.842529     53.685059
     -4.159159     25.084066     25.084066     50.168132
     -4.149149     24.342469     24.342469     48.684938
     -4.139139     24.298567     24.298567     48.597134
     -4.129129     24.701090     24.701090     49.402180
     -4.119119     25.486825     25.486825     50.973650
     -4.109109     26.759259     26.759259     53.518519
     -4.099099     28.641481     28.641481     57.282962
     -4.089089     31.082276     31.082276     62.164551
     -4.079079     33.727101     33.727101     67.454201
     -4.069069     35.946194     35.946194     71.892389
     -4.059059     37.036660     37.036660     74.073319
     -4.049049     36.515607     36.515607     73.031215
     -4.039039     34.357057     34.357057     68.714113
     -4.029029     31.044549     31.044549     62.089099
     -4.019019     27.409833     27.409833     54.819667
     -4.009009     24.344527     24.344527     48.689055
     -3.998999     22.531321     22.531321     45.062643
     -3.988989     22.309903     22.309903     44.619806
     -3.978979     23.699917     23.699917     47.399835
     -3.968969     26.516167     26.516167     53.032334
     -3.958959     30.484209     30.484209     60.968417
     -3.948949     35.302487     35.302487     70.604974
     -3.938939     40.658824     40.658824     81.317648
     -3.928929     46.243044     46.243044     92.486088
     -3.918919     51.782173     51.782173    103.564346
     -3.908909     57.081603     57.081603    114.163207
     -3.898899     62.027669     62.027669    124.055338
     -3.888889     66.522116     66.522116    133.044232
     -3.878879     70.368523     70.368523    140.737045
     -3.868869     73.178803     73.178803    146.357606
     -3.858859     74.377939     74.377939    148.755878
     -3.848849     73.344224     73.344224    146.688448
     -3.838839     69.649383     69.649383    139.298766
     -3.828829     63.298159     63.298159    126.596319
     -3.818819     54.849877     54.849877    109.699754
     -3.808809     45.349634     45.349634     90.699267
     -3.798799     36.082177     36.082177     72.164355
     -3.788789     28.240261     28.240261     56.480522
     -3.778779     22.629889     22.629889     45.259778
     -3.768769     19.507648     19.507648     39.015295
     -3.758759     18.584282     18.584282     37.168565
     -3.748749     19.169913     19.169913     38.339827
     -3.738739     20.402686     20.402686     40.805373
     -3.728729     21.495497     21.495497     42.990994
     -3.718719     21.943374     21.943374     43.886748
     -3.708709     21.646983     21.646983     43.293967
     -3.698699     20.923152     20.923152     41.846303
     -3.688689     20.394203     20.394203     40.788407
     -3.678679     20.776695     20.776695     41.553391
     -3.668669     22.623513     22.623513     45.247027
     -3.658659     26.099999     26.099999     52.199997
     -3.648649     30.877976     30.877976     61.755952
     -3.638639     36.198461     36.198461     72.396923
     -3.628629     41.088896     41.088896     82.177792
     -3.618619     44.652186     44.652186     89.304372
     -3.608609     46.312225     46.312225     92.624450
     -3.598599     45.927026     45.927026     91.854051
     -3.588589     43.750680     43.750680     87.501360
     -3.578579     40.293361     40.293361     80.586722
     -3.568569     36.153924     36.153924     72.307848
     -3.558559     31.879084     31.879084     63.758169
     -3.548549     27.867841     27.867841     55.735681
     -3.538539     24.321924     24.321924     48.643848
     -3.528529     21.245930     21.245930     42.491859
     -3.518519     18.502898     18.502898     37.005795
     -3.508509     15.915063     15.915063     31.830127
     -3.498498     13.373479     13.373479     26.746958
     -3.488488     10.908747     10.908747     21.817493
     -3.478478      8.692517      8.692517     17.385035
     -3.468468      6.974527      6.974527     13.949054
     -3.458458      5.987794      5.987794     11.975589
     -3.448448      5.860054      5.860054     11.720108
     -3.438438      6.557878      6.557878     13.115756
     -3.428428      7.876678      7.876678     15.753355
     -3.418418      9.482149      9.482149     18.964299
     -3.408408     11.000759     11.000759     22.001518
     -3.398398     12.140386     12.140386     24.280772
     -3.388388     12.801406     12.801406     25.602812
     -3.378378     13.130010     13.130010     26.260019
     -3.368368     13.483417     13.483417     26.966835
     -3.358358     14.315646     14.315646     28.631293
     -3.348348     16.028561     16.028561     32.057123
     -3.338338     18.841958     18.841958     37.683916
     -3.328328     22.715440     22.715440     45.430879
     -3.318318     27.325413     27.325413     54.650825
     -3.308308     32.088997     32.088997     64.177994
     -3.298298     36.237846     36.237846     72.475692
     -3.288288     38.955699     38.955699     77.911399
     -3.278278     39.575701     39.575701     79.151402
     -3.268268     37.787256     37.787256     75.574512
     -3.258258     33.764153     33.764153     67.528306
     -3.248248     28.138609     28.138609     56.277218
     -3.238238     21.815476     21.815476     43.630951
     -3.228228     15.703929     15.703929     31.407858
     -3.218218     10.483089     10.483089     20.966178
     -3.208208      6.489147      6.489147     12.978293
     -3.198198      3.740791      3.740791      7.481582
     -3.188188      2.056687      2.056687      4.113374
     -3.178178      1.196586      1.196586      2.393171
     -3.168168      0.974524      0.974524      1.949047
     -3.158158      1.323753      1.323753      2.647506
     -3.148148      2.314883      2.314883      4.629766
     -3.138138      4.133584      4.133584      8.267169
     -3.128128      7.019815      7.019815     14.039630
     -3.118118     11.170051     11.170051     22.340102
     -3.108108     16.615626     16.615626     33.231252
     -3.098098     23.111402     23.111402     46.222804
     -3.088088     30.085980     30.085980     60.171959
     -3.078078     36.700116     36.700116     73.400233
     -3.068068     42.024419     42.024419     84.048838
     -3.058058     45.290626     45.290626     90.581252
     -3.048048     46.122545     46.122545     92.245091
     -3.038038     44.646823     44.646823     89.293646
     -3.028028     41.432751     41.432751     82.865503
     -3.018018     37.290801     37.290801     74.581603
     -3.008008     33.023785     33.023785     66.047570
     -2.997998     29.235081     29.235081     58.470163
     -2.987988     26.255202     26.255202     52.510403
     -2.977978     24.184784     24.184784     48.369569
     -2.967968     23.005663     23.005663     46.011326
     -2.957958     22.696260     22.696260     45.392520
     -2.947948     23.296488     23.296488     46.592975
     -2.937938     24.891193     24.891193     49.782387
     -2.927928     27.516880     27.516880     55.033760
     -2.917918     31.037716     31.037716     62.075431
     -2.907908     35.064645     35.064645     70.129291
     -2.897898     38.982411     38.982411     77.964822
     -2.887888     42.098317     42.098317     84.196635
     -2.877878     43.858270     43.858270     87.716541
     -2.867868     44.031145     44.031145     88.062290
     -2.857858     42.771171     42.771171     85.542341
     -2.847848     40.526891     40.526891     81.053781
     -2.837838     37.841593     37.841593     75.683186
     -2.827828     35.142229     35.142229     70.284457
     -2.817818     32.614831     32.614831     65.229661
     -2.807808     30.215603     30.215603     60.431205
     -2.797798     27.795282     27.795282     55.590564
     -2.787788     25.258114     25.258114     50.516229
     -2.777778     22.664857     22.664857     45.329715
     -2.767768     20.226828     20.226828     40.453655
     -2.757758     18.203446     18.203446     36.406892
     -2.747748     16.771869     16.771869     33.543739
     -2.737738     15.951526     15.951526     31.903051
     -2.727728     15.629672     15.629672     31.259344
     -2.717718     15.667975     15.667975     31.335949
     -2.707708     16.015683     16.015683     32.031366
     -2.697698     16.748486     16.748486     33.496972
     -2.687688     18.000504     18.000504     36.001008
     -2.677678     19.830615     19.830615     39.661230
     -2.667668     22.114307     22.114307     44.228613
     -2.657658     24.542172     24.542172     49.084345
     -2.647648     26.738815     26.738815     53.477630
     -2.637638     28.434778     28.434778     56.869556
     -2.627628     29.585512     29.585512     59.171024
     -2.617618     30.364383     30.364383     60.728766
     -2.607608     31.039315     31.039315     62.078631
     -2.597598     31.815427     31.815427     63.630854
     -2.587588     32.737003     32.737003     65.474006
     -2.577578     33.688110     33.688110     67.376220
     -2.567568     34.459916     34.459916     68.919832
     -2.557558     34.821930     34.821930     69.643861
     -2.547548     34.561810     34.561810     69.123620
     -2.537538     33.509245     33.509245     67.018490
     -2.527528     31.581100     31.581100     63.162200
     -2.517518     28.856644     28.856644     57.713288
     -2.507508     25.642076     25.642076     51.284152
     -2.497497     22.461876     22.461876     44.923752
     -2.487487     19.944837     19.944837     39.889674
     -2.477477     18.635006     18.635006     37.270011
     -2.467467     18.808103     18.808103     37.616206
     -2.457457     20.379793     20.379793     40.759587
     -2.447447     22.951592     22.951592     45.903185
     -2.437437     25.976447     25.976447     51.952894
     -2.427427     28.970338     28.970338     57.940675
     -2.417417     31.673896     31.673896     63.347791
     -2.407407     34.089881     34.089881     68.179761
     -2.397397     36.380241     36.380241     72.760482
     -2.387387     38.674766     38.674766     77.349533
     -2.377377     40.889425     40.889425     81.778850
     -2.367367     42.652811     42.652811     85.305623
     -2.357357     43.391147     43.391147     86.782293
     -2.347347     42.546291     42.546291     85.092583
     -2.337337     39.833052     39.833052     79.666103
     -2.327327     35.417167     35.417167     70.834334
     -2.317317     29.929860     29.929860     59.859720
     -2.307307     24.311897     24.311897     48.623794
     -2.297297     19.556991     19.556991     39.113983
     -2.287287     16.459096     16.459096     32.918191
     -2.277277     15.448283     15.448283     30.896565
     -2.267267     16.547498     16.547498     33.094997
     -2.257257     19.432746     19.432746     38.865492
     -2.247247     23.553641     23.553641     47.107282
     -2.237237     28.268840     28.268840     56.537681
     -2.227227     32.960065     32.960065     65.920130
     -2.217217     37.102256     37.102256     74.204512
     -2.207207     40.285970     40.285970     80.571939
     -2.197197     42.209760     42.209760     84.419520
     -2.187187     42.674956     42.674956     85.349912
     -2.177177     41.609262     41.609262     83.218524
     -2.167167     39.116234     39.116234     78.232467
     -2.157157     35.512031     35.512031     71.024061
     -2.147147     31.298089     31.298089     62.596178
     -2.137137     27.046637     27.046637     54.093275
     -2.127127     23.232516     23.232516     46.465031
     -2.117117     20.090174     20.090174     40.180349
     -2.107107     17.572125     17.572125     35.144250
     -2.097097     15.431121     15.431121     30.862242
     -2.087087     13.378317     13.378317     26.756635
     -2.077077     11.230952     11.230952     22.461904
     -2.067067      8.979055      8.979055     17.958109
     -2.057057      6.755244      6.755244     13.510487
     -2.047047      4.745265      4.745265      9.490530
     -2.037037      3.097585      3.097585      6.195170
     -2.027027      1.874084      1.874084      3.748167
     -2.017017      1.050533      1.050533      2.101067
     -2.007007      0.549364      0.549364      1.098728
     -1.996997      0.279969      0.279969      0.559937
     -1.986987      0.169827      0.169827      0.339654
     -1.976977      0.182055      0.182055      0.364110
     -1.966967      0.322769      0.322769      0.645538
     -1.956957      0.642273      0.642273      1.284546
     -1.946947      1.229974      1.229974      2.459948
     -1.936937      2.198707      2.198707      4.397413
     -1.926927      3.654184      3.654184      7.308369
     -1.916917      5.651515      5.651515     11.303030
     -1.906907      8.150810      8.150810     16.301621
     -1.896897     10.991346     10.991346     21.982692
     -1.886887     13.901559     13.901559     27.803117
     -1.876877     16.549048     16.549048     33.098096
     -1.866867     18.617492     18.617492     37.234985
     -1.856857     19.886104     19.886104     39.772208
     -1.846847     20.286962     20.286962     40.573924
     -1.836837     19.922782     19.922782     39.845563
     -1.826827     19.036854     19.036854     38.073707
     -1.816817     17.937776     17.937776     35.875551
     -1.806807     16.897811     16.897811     33.795622
     -1.796797     16.062303     16.062303     32.124606
     -1.786787     15.414428     15.414428     30.828855
     -1.776777     14.820195     14.820195     29.640391
     -1.766767     14.135922     14.135922     28.271843
     -1.756757     13.319602     13.319602     26.639204
     -1.746747     12.479219     12.479219     24.958437
     -1.736737     11.825564     11.825564     23.651127
     -1.726727     11.554939     11.554939     23.109877
     -1.716717     11.731164     11.731164     23.462328
     -1.706707     12.238453     12.238453     24.476905
     -1.696697     12.835146     12.835146     25.670292
     -1.686687     13.278099     13.278099     26.556198
     -1.676677     13.444640     13.444640     26.889280
     -1.666667     13.379752     13.379752     26.759504
     -1.656657     13.240999     13.240999     26.481998
     -1.646647     13.176282     13.176282     26.352563
     -1.636637     13.211168     13.211168     26.422336
     -1.626627     13.216952     13.216952     26.433904
