# EIG2DOS: Utility for SIESTA to obtain the electronic density of states
#  E. Artacho, Apr 1999, A. Garcia, Apr 2012
#  Nick R. Papior, Feb 2017
# ------------------------------------------
# Eigenvalues calculated from a non-polarized calculation
# Eigenvalues read from siesta.EIG
# Kpoint weights read from siesta.KP
# Using smearing parameter:   0.0500
# Using 1000 points in the energy range
# Selected bands: 1 to: 2981
# Emin, Emax in file for selected band(s):    -27.0948119    218.3548530
# Nbands, Nspin, Nk   =   2981     1     1
# E_F                 =    -4.2484 eV --> (shifted to ZERO)
# Broadening          =     0.0500 eV
#
#        E            N(up)  (=)   N(down)         Ntot
     -5.000000     33.355479     33.355479     66.710958
     -4.989990     37.350873     37.350873     74.701746
     -4.979980     40.885439     40.885439     81.770877
     -4.969970     43.399257     43.399257     86.798514
     -4.959960     44.457851     44.457851     88.915702
     -4.949950     43.883841     43.883841     87.767681
     -4.939940     41.821192     41.821192     83.642384
     -4.929930     38.716934     38.716934     77.433867
     -4.919920     35.242301     35.242301     70.484602
     -4.909910     32.187519     32.187519     64.375039
     -4.899900     30.347032     30.347032     60.694065
     -4.889890     30.386084     30.386084     60.772168
     -4.879880     32.677144     32.677144     65.354287
     -4.869870     37.130091     37.130091     74.260182
     -4.859860     43.090708     43.090708     86.181417
     -4.849850     49.399823     49.399823     98.799646
     -4.839840     54.655528     54.655528    109.311057
     -4.829830     57.617266     57.617266    115.234533
     -4.819820     57.595672     57.595672    115.191343
     -4.809810     54.655164     54.655164    109.310327
     -4.799800     49.539487     49.539487     99.078975
     -4.789790     43.366994     43.366994     86.733987
     -4.779780     37.247826     37.247826     74.495651
     -4.769770     31.988168     31.988168     63.976336
     -4.759760     27.972048     27.972048     55.944096
     -4.749750     25.208781     25.208781     50.417562
     -4.739740     23.468270     23.468270     46.936540
     -4.729730     22.421015     22.421015     44.842030
     -4.719720     21.734814     21.734814     43.469628
     -4.709710     21.121279     21.121279     42.242558
     -4.699700     20.351448     20.351448     40.702896
     -4.689690     19.267359     19.267359     38.534718
     -4.679680     17.808869     17.808869     35.617738
     -4.669670     16.056663     16.056663     32.113326
     -4.659660     14.271656     14.271656     28.543313
     -4.649650     12.899673     12.899673     25.799347
     -4.639640     12.515967     12.515967     25.031934
     -4.629630     13.703728     13.703728     27.407457
     -4.619620     16.885144     16.885144     33.770289
     -4.609610     22.146277     22.146277     44.292554
     -4.599600     29.114878     29.114878     58.229755
     -4.589590     36.955422     36.955422     73.910843
     -4.579580     44.523949     44.523949     89.047899
     -4.569570     50.669043     50.669043    101.338086
     -4.559560     54.590665     54.590665    109.181330
     -4.549550     56.115894     56.115894    112.231788
     -4.539540     55.760279     55.760279    111.520558
     -4.529530     54.524990     54.524990    109.049981
     -4.519520     53.498863     53.498863    106.997727
     -4.509510     53.429764     53.429764    106.859528
     -4.499499     54.448797     54.448797    108.897593
     -4.489489     56.060332     56.060332    112.120664
     -4.479479     57.385854     57.385854    114.771709
     -4.469469     57.535652     57.535652    115.071304
     -4.459459     55.938111     55.938111    111.876221
     -4.449449     52.499577     52.499577    104.999154
     -4.439439     47.566193     47.566193     95.132385
     -4.429429     41.753388     41.753388     83.506776
     -4.419419     35.749993     35.749993     71.499986
     -4.409409     30.180526     30.180526     60.361051
     -4.399399     25.547784     25.547784     51.095568
     -4.389389     22.222415     22.222415     44.444829
     -4.379379     20.430184     20.430184     40.860368
     -4.369369     20.214979     20.214979     40.429957
     -4.359359     21.399799     21.399799     42.799597
     -4.349349     23.592692     23.592692     47.185384
     -4.339339     26.269369     26.269369     52.538739
     -4.329329     28.919364     28.919364     57.838727
     -4.319319     31.200013     31.200013     62.400027
     -4.309309     33.031085     33.031085     66.062170
     -4.299299     34.587986     34.587986     69.175971
     -4.289289     36.194814     36.194814     72.389628
     -4.279279     38.155788     38.155788     76.311577
     -4.269269     40.582882     40.582882     81.165764
     -4.259259     43.281070     43.281070     86.562139
     -4.249249     45.743566     45.743566     91.487131
     -4.239239     47.282277     47.282277     94.564553
     -4.229229     47.267986     47.267986     94.535972
     -4.219219     45.393990     45.393990     90.787981
     -4.209209     41.842760     41.842760     83.685521
     -4.199199     37.263037     37.263037     74.526074
     -4.189189     32.553330     32.553330     65.106661
     -4.179179     28.549005     28.549005     57.098010
     -4.169169     25.760084     25.760084     51.520169
     -4.159159     24.274142     24.274142     48.548284
     -4.149149     23.847060     23.847060     47.694119
     -4.139139     24.111774     24.111774     48.223547
     -4.129129     24.789769     24.789769     49.579538
     -4.119119     25.804062     25.804062     51.608124
     -4.109109     27.247421     27.247421     54.494841
     -4.099099     29.228751     29.228751     58.457502
     -4.089089     31.680351     31.680351     63.360702
     -4.079079     34.236843     34.236843     68.473686
     -4.069069     36.273092     36.273092     72.546183
     -4.059059     37.111547     37.111547     74.223094
     -4.049049     36.312188     36.312188     72.624376
     -4.039039     33.898954     33.898954     67.797908
     -4.029029     30.400074     30.400074     60.800148
     -4.019019     26.678268     26.678268     53.356537
     -4.009009     23.639579     23.639579     47.279158
     -3.998999     21.965054     21.965054     43.930108
     -3.988989     21.977314     21.977314     43.954629
     -3.978979     23.663967     23.663967     47.327935
     -3.968969     26.795897     26.795897     53.591794
     -3.958959     31.051250     31.051250     62.102500
     -3.948949     36.090150     36.090150     72.180301
     -3.938939     41.582629     41.582629     83.165258
     -3.928929     47.225136     47.225136     94.450271
     -3.918919     52.768881     52.768881    105.537761
     -3.908909     58.045715     58.045715    116.091430
     -3.898899     62.954152     62.954152    125.908305
     -3.888889     67.384754     67.384754    134.769508
     -3.878879     71.110972     71.110972    142.221944
     -3.868869     73.713150     73.713150    147.426300
     -3.858859     74.605860     74.605860    149.211721
     -3.848849     73.193631     73.193631    146.387262
     -3.838839     69.109617     69.109617    138.219235
     -3.828829     62.435835     62.435835    124.871669
     -3.818819     53.796547     53.796547    107.593095
     -3.808809     44.266394     44.266394     88.532787
     -3.798799     35.116681     35.116681     70.233362
     -3.788789     27.492991     27.492991     54.985981
     -3.778779     22.139552     22.139552     44.279104
     -3.768769     19.255869     19.255869     38.511739
     -3.758759     18.513026     18.513026     37.026052
     -3.748749     19.203461     19.203461     38.406923
     -3.738739     20.468098     20.468098     40.936195
     -3.728729     21.538348     21.538348     43.076696
     -3.718719     21.937449     21.937449     43.874897
     -3.708709     21.597259     21.597259     43.194518
     -3.698699     20.861765     20.861765     41.723531
     -3.688689     20.369832     20.369832     40.739663
     -3.678679     20.839168     20.839168     41.678335
     -3.668669     22.807163     22.807163     45.614326
     -3.658659     26.410435     26.410435     52.820871
     -3.648649     31.286754     31.286754     62.573507
     -3.638639     36.647969     36.647969     73.295938
     -3.628629     41.506163     41.506163     83.012326
     -3.618619     44.966824     44.966824     89.933647
     -3.608609     46.472365     46.472365     92.944730
     -3.598599     45.908685     45.908685     91.817369
     -3.588589     43.559306     43.559306     87.118611
     -3.578579     39.959183     39.959183     79.918366
     -3.568569     35.723713     35.723713     71.447425
     -3.558559     31.406403     31.406403     62.812807
     -3.548549     27.403267     27.403267     54.806534
     -3.538539     23.904790     23.904790     47.809579
     -3.528529     20.899386     20.899386     41.798773
     -3.518519     18.233512     18.233512     36.467023
     -3.508509     15.716600     15.716600     31.433199
     -3.498498     13.232892     13.232892     26.465785
     -3.488488     10.811840     10.811840     21.623681
     -3.478478      8.627489      8.627489     17.254977
     -3.468468      6.933043      6.933043     13.866086
     -3.458458      5.964374      5.964374     11.928747
     -3.448448      5.850883      5.850883     11.701765
     -3.438438      6.559931      6.559931     13.119861
     -3.428428      7.887547      7.887547     15.775094
     -3.418418      9.500607      9.500607     19.001214
     -3.408408     11.027770     11.027770     22.055541
     -3.398398     12.180034     12.180034     24.360068
     -3.388388     12.861032     12.861032     25.722064
     -3.378378     13.219060     13.219060     26.438120
     -3.368368     13.611074     13.611074     27.222147
     -3.358358     14.488021     14.488021     28.976042
     -3.348348     16.246511     16.246511     32.493022
     -3.338338     19.100013     19.100013     38.200026
     -3.328328     23.001343     23.001343     46.002685
     -3.318318     27.619384     27.619384     55.238767
     -3.308308     32.362824     32.362824     64.725648
     -3.298298     36.455713     36.455713     72.911426
     -3.288288     39.079338     39.079338     78.158675
     -3.278278     39.574477     39.574477     79.148954
     -3.268268     37.649928     37.649928     75.299855
     -3.258258     33.506276     33.506276     67.012551
     -3.248248     27.800820     27.800820     55.601640
     -3.238238     21.452940     21.452940     42.905879
     -3.228228     15.372879     15.372879     30.745758
     -3.218218     10.232921     10.232921     20.465843
     -3.208208      6.366731      6.366731     12.733461
     -3.198198      3.809051      3.809051      7.618101
     -3.188188      2.424157      2.424157      4.848314
     -3.178178      2.049100      2.049100      4.098200
     -3.168168      2.594113      2.594113      5.188227
     -3.158158      4.074638      4.074638      8.149277
     -3.148148      6.577197      6.577197     13.154395
     -3.138138     10.178805     10.178805     20.357610
     -3.128128     14.849733     14.849733     29.699465
     -3.118118     20.374624     20.374624     40.749248
     -3.108108     26.324971     26.324971     52.649942
     -3.098098     32.103577     32.103577     64.207154
     -3.088088     37.059452     37.059452     74.118903
     -3.078078     40.644957     40.644957     81.289915
     -3.068068     42.564286     42.564286     85.128572
     -3.058058     42.853474     42.853474     85.706949
     -3.048048     41.847412     41.847412     83.694823
     -3.038038     40.032650     40.032650     80.065300
     -3.028028     37.843329     37.843329     75.686658
     -3.018018     35.498811     35.498811     70.997621
     -3.008008     32.971668     32.971668     65.943335
     -2.997998     30.107600     30.107600     60.215199
     -2.987988     26.831124     26.831124     53.662249
     -2.977978     23.319750     23.319750     46.639499
     -2.967968     20.048748     20.048748     40.097495
     -2.957958     17.682432     17.682432     35.364864
     -2.947948     16.864863     16.864863     33.729726
     -2.937938     17.999560     17.999560     35.999120
     -2.927928     21.097054     21.097054     42.194107
     -2.917918     25.734008     25.734008     51.468017
     -2.907908     31.132563     31.132563     62.265126
     -2.897898     36.340573     36.340573     72.681147
     -2.887888     40.467916     40.467916     80.935831
     -2.877878     42.911323     42.911323     85.822646
     -2.867868     43.492862     43.492862     86.985724
     -2.857858     42.459284     42.459284     84.918568
     -2.847848     40.340792     40.340792     80.681583
     -2.837838     37.727576     37.727576     75.455151
     -2.827828     35.059846     35.059846     70.119693
     -2.817818     32.519603     32.519603     65.039206
     -2.807808     30.061154     30.061154     60.122308
     -2.797798     27.547913     27.547913     55.095827
     -2.787788     24.911876     24.911876     49.823753
     -2.777778     22.246778     22.246778     44.493557
     -2.767768     19.788752     19.788752     39.577504
     -2.757758     17.805116     17.805116     35.610232
     -2.747748     16.464716     16.464716     32.929431
     -2.737738     15.771312     15.771312     31.542623
     -2.727728     15.599591     15.599591     31.199181
     -2.717718     15.806214     15.806214     31.612428
     -2.707708     16.337976     16.337976     32.675953
     -2.697698     17.259494     17.259494     34.518987
     -2.687688     18.676601     18.676601     37.353202
     -2.677678     20.605338     20.605338     41.210676
     -2.667668     22.879949     22.879949     45.759898
     -2.657658     25.173703     25.173703     50.347406
     -2.647648     27.132840     27.132840     54.265679
     -2.637638     28.545304     28.545304     57.090609
     -2.627628     29.438135     29.438135     58.876270
     -2.617618     30.042195     30.042195     60.084390
     -2.607608     30.649538     30.649538     61.299076
     -2.597598     31.454436     31.454436     62.908872
     -2.587588     32.467850     32.467850     64.935699
     -2.577578     33.533576     33.533576     67.067152
     -2.567568     34.405455     34.405455     68.810910
     -2.557558     34.822526     34.822526     69.645052
     -2.547548     34.552123     34.552123     69.104247
     -2.537538     33.419788     33.419788     66.839575
     -2.527528     31.360096     31.360096     62.720192
     -2.517518     28.490661     28.490661     56.981323
     -2.507508     25.165376     25.165376     50.330752
     -2.497497     21.948633     21.948633     43.897266
     -2.487487     19.487263     19.487263     38.974527
     -2.477477     18.317420     18.317420     36.634840
     -2.467467     18.687618     18.687618     37.375236
     -2.457457     20.479213     20.479213     40.958425
     -2.447447     23.263478     23.263478     46.526956
     -2.437437     26.473006     26.473006     52.946013
     -2.427427     29.613038     29.613038     59.226076
     -2.417417     32.418609     32.418609     64.837217
     -2.407407     34.886391     34.886391     69.772781
     -2.397397     37.168056     37.168056     74.336112
     -2.387387     39.379540     39.379540     78.759080
     -2.377377     41.425146     41.425146     82.850291
     -2.367367     42.933393     42.933393     85.866786
     -2.357357     43.350916     43.350916     86.701831
     -2.347347     42.163330     42.163330     84.326659
     -2.337337     39.145347     39.145347     78.290694
     -2.327327     34.522304     34.522304     69.044607
     -2.317317     28.965406     28.965406     57.930811
     -2.307307     23.422689     23.422689     46.845378
     -2.297297     18.861737     18.861737     37.723473
     -2.287287     16.028374     16.028374     32.056748
     -2.277277     15.299789     15.299789     30.599578
     -2.267267     16.656359     16.656359     33.312718
     -2.257257     19.749224     19.749224     39.498448
     -2.247247     24.019431     24.019431     48.038861
     -2.237237     28.825870     28.825870     57.651739
     -2.227227     33.550677     33.550677     67.101354
     -2.217217     37.664727     37.664727     75.329454
     -2.207207     40.752232     40.752232     81.504464
     -2.197197     42.511160     42.511160     85.022319
     -2.187187     42.756923     42.756923     85.513846
     -2.177177     41.449469     41.449469     82.898937
     -2.167167     38.736888     38.736888     77.473776
     -2.157157     34.978155     34.978155     69.956310
     -2.147147     30.699833     30.699833     61.399666
     -2.137137     26.471774     26.471774     52.943549
     -2.127127     22.740721     22.740721     45.481443
     -2.117117     19.700197     19.700197     39.400394
     -2.107107     17.266459     17.266459     34.532917
     -2.097097     15.173983     15.173983     30.347965
     -2.087087     13.136722     13.136722     26.273443
     -2.077077     10.988750     10.988750     21.977499
     -2.067067      8.739239      8.739239     17.478477
     -2.057057      6.532693      6.532693     13.065387
     -2.047047      4.556188      4.556188      9.112376
     -2.037037      2.951632      2.951632      5.903263
     -2.027027      1.771811      1.771811      3.543621
     -2.017017      0.985376      0.985376      1.970751
     -2.007007      0.511513      0.511513      1.023026
     -1.996997      0.259794      0.259794      0.519589
     -1.986987      0.159750      0.159750      0.319499
     -1.976977      0.176941      0.176941      0.353883
     -1.966967      0.319510      0.319510      0.639021
     -1.956957      0.639220      0.639220      1.278440
     -1.946947      1.226670      1.226670      2.453341
     -1.936937      2.196072      2.196072      4.392144
     -1.926927      3.655013      3.655013      7.310025
     -1.916917      5.660846      5.660846     11.321692
     -1.906907      8.175537      8.175537     16.351074
     -1.896897     11.038526     11.038526     22.077052
     -1.886887     13.975580     13.975580     27.951161
     -1.876877     16.648993     16.648993     33.297985
     -1.866867     18.737282     18.737282     37.474563
     -1.856857     20.020591     20.020591     40.041182
     -1.846847     20.446366     20.446366     40.892731
     -1.836837     20.155619     20.155619     40.311239
     -1.826827     19.457846     19.457846     38.915691
     -1.816817     18.752193     18.752193     37.504385
     -1.806807     18.408059     18.408059     36.816117
     -1.796797     18.638661     18.638661     37.277323
     -1.786787     19.414970     19.414970     38.829939
     -1.776777     20.460365     20.460365     40.920729
     -1.766767     21.335931     21.335931     42.671862
     -1.756757     21.586925     21.586925     43.173851
     -1.746747     20.894617     20.894617     41.789235
     -1.736737     19.177838     19.177838     38.355676
     -1.726727     16.612770     16.612770     33.225539
     -1.716717     13.573771     13.573771     27.147542
     -1.706707     10.526276     10.526276     21.052553
     -1.696697      7.913871      7.913871     15.827742
     -1.686687      6.073051      6.073051     12.146103
     -1.676677      5.187880      5.187880     10.375761
     -1.666667      5.276614      5.276614     10.553228
     -1.656657      6.196122      6.196122     12.392244
     -1.646647      7.659594      7.659594     15.319189
     -1.636637      9.277312      9.277312     18.554624
     -1.626627     10.632716     10.632716     21.265431
