# EIG2DOS: Utility for SIESTA to obtain the electronic density of states
#  E. Artacho, Apr 1999, A. Garcia, Apr 2012
#  Nick R. Papior, Feb 2017
# ------------------------------------------
# Eigenvalues calculated from a non-polarized calculation
# Eigenvalues read from siesta.EIG
# Kpoint weights read from siesta.KP
# Using smearing parameter:   0.0500
# Using 1000 points in the energy range
# Selected bands: 1 to: 2981
# Emin, Emax in file for selected band(s):    -27.0395782    218.3253200
# Nbands, Nspin, Nk   =   2981     1     1
# E_F                 =    -4.2814 eV --> (shifted to ZERO)
# Broadening          =     0.0500 eV
#
#        E            N(up)  (=)   N(down)         Ntot
     -5.000000     41.466420     41.466420     82.932840
     -4.989990     43.225968     43.225968     86.451936
     -4.979980     44.541886     44.541886     89.083772
     -4.969970     45.170971     45.170971     90.341941
     -4.959960     44.861116     44.861116     89.722232
     -4.949950     43.477040     43.477040     86.954081
     -4.939940     41.090532     41.090532     82.181065
     -4.929930     38.007803     38.007803     76.015606
     -4.919920     34.741315     34.741315     69.482630
     -4.909910     31.946783     31.946783     63.893566
     -4.899900     30.333261     30.333261     60.666521
     -4.889890     30.534669     30.534669     61.069338
     -4.879880     32.934018     32.934018     65.868036
     -4.869870     37.470493     37.470493     74.940986
     -4.859860     43.512766     43.512766     87.025531
     -4.849850     49.901073     49.901073     99.802146
     -4.839840     55.208390     55.208390    110.416780
     -4.829830     58.159746     58.159746    116.319493
     -4.819820     58.044257     58.044257    116.088513
     -4.809810     54.932885     54.932885    109.865770
     -4.799800     49.602990     49.602990     99.205980
     -4.789790     43.218428     43.218428     86.436855
     -4.779780     36.928235     36.928235     73.856469
     -4.769770     31.559974     31.559974     63.119948
     -4.759760     27.501677     27.501677     55.003355
     -4.749750     24.755903     24.755903     49.511806
     -4.739740     23.081213     23.081213     46.162425
     -4.729730     22.134556     22.134556     44.269112
     -4.719720     21.567974     21.567974     43.135949
     -4.709710     21.075734     21.075734     42.151468
     -4.699700     20.412048     20.412048     40.824096
     -4.689690     19.404495     19.404495     38.808989
     -4.679680     17.980491     17.980491     35.960983
     -4.669670     16.208257     16.208257     32.416514
     -4.659660     14.335533     14.335533     28.671066
     -4.649650     12.798329     12.798329     25.596658
     -4.639640     12.175052     12.175052     24.350103
     -4.629630     13.076627     13.076627     26.153254
     -4.619620     15.983476     15.983476     31.966953
     -4.609610     21.061622     21.061622     42.123244
     -4.599600     28.012273     28.012273     56.024547
     -4.589590     36.024665     36.024665     72.049330
     -4.579580     43.892081     43.892081     87.784162
     -4.569570     50.300071     50.300071    100.600143
     -4.559560     54.213977     54.213977    108.427953
     -4.549550     55.222660     55.222660    110.445321
     -4.539540     53.687094     53.687094    107.374187
     -4.529530     50.615089     50.615089    101.230178
     -4.519520     47.304665     47.304665     94.609329
     -4.509510     44.902910     44.902910     89.805819
     -4.499499     44.058653     44.058653     88.117306
     -4.489489     44.792643     44.792643     89.585286
     -4.479479     46.602490     46.602490     93.204979
     -4.469469     48.718932     48.718932     97.437863
     -4.459459     50.383210     50.383210    100.766419
     -4.449449     51.037651     51.037651    102.075303
     -4.439439     50.391018     50.391018    100.782035
     -4.429429     48.392454     48.392454     96.784907
     -4.419419     45.181702     45.181702     90.363404
     -4.409409     41.063811     41.063811     82.127622
     -4.399399     36.504527     36.504527     73.009053
     -4.389389     32.100690     32.100690     64.201380
     -4.379379     28.483203     28.483203     56.966405
     -4.369369     26.158427     26.158427     52.316855
     -4.359359     25.350869     25.350869     50.701739
     -4.349349     25.930383     25.930383     51.860766
     -4.339339     27.472162     27.472162     54.944323
     -4.329329     29.429084     29.429084     58.858169
     -4.319319     31.338281     31.338281     62.676563
     -4.309309     32.971274     32.971274     65.942547
     -4.299299     34.371514     34.371514     68.743028
     -4.289289     35.777438     35.777438     71.554875
     -4.279279     37.471471     37.471471     74.942943
     -4.269269     39.612185     39.612185     79.224370
     -4.259259     42.105340     42.105340     84.210680
     -4.249249     44.561767     44.561767     89.123533
     -4.239239     46.374199     46.374199     92.748397
     -4.229229     46.909580     46.909580     93.819160
     -4.219219     45.757742     45.757742     91.515485
     -4.209209     42.929552     42.929552     85.859103
     -4.199199     38.899088     38.899088     77.798176
     -4.189189     34.452327     34.452327     68.904653
     -4.179179     30.406652     30.406652     60.813304
     -4.169169     27.336651     27.336651     54.673301
     -4.159159     25.434484     25.434484     50.868969
     -4.149149     24.554461     24.554461     49.108922
     -4.139139     24.393900     24.393900     48.787800
     -4.129129     24.702010     24.702010     49.404019
     -4.119119     25.408552     25.408552     50.817103
     -4.109109     26.612625     26.612625     53.225250
     -4.099099     28.441950     28.441950     56.883900
     -4.089089     30.858486     30.858486     61.716972
     -4.079079     33.522308     33.522308     67.044616
     -4.069069     35.809685     35.809685     71.619370
     -4.059059     37.007943     37.007943     74.015886
     -4.049049     36.608905     36.608905     73.217809
     -4.039039     34.554203     34.554203     69.108405
     -4.029029     31.300157     31.300157     62.600315
     -4.019019     27.666018     27.666018     55.332037
     -4.009009     24.547866     24.547866     49.095731
     -3.998999     22.644796     22.644796     45.289592
     -3.988989     22.316676     22.316676     44.633353
     -3.978979     23.600602     23.600602     47.201204
     -3.968969     26.323600     26.323600     52.647201
     -3.958959     30.218711     30.218711     60.437422
     -3.948949     34.987930     34.987930     69.975860
     -3.938939     40.318289     40.318289     80.636577
     -3.928929     45.893765     45.893765     91.787529
     -3.918919     51.431872     51.431872    102.863744
     -3.908909     56.729569     56.729569    113.459139
     -3.898899     61.672190     61.672190    123.344380
     -3.888889     66.171696     66.171696    132.343391
     -3.878879     70.050658     70.050658    140.101315
     -3.868869     72.940019     72.940019    145.880039
     -3.858859     74.272870     74.272870    148.545741
     -3.848849     73.417396     73.417396    146.834791
     -3.838839     69.917377     69.917377    139.834753
     -3.828829     63.739795     63.739795    127.479590
     -3.818819     55.408374     55.408374    110.816749
     -3.808809     45.945776     45.945776     91.891552
     -3.798799     36.633656     36.633656     73.267312
     -3.788789     28.680882     28.680882     57.361765
     -3.778779     22.923167     22.923167     45.846334
     -3.768769     19.651665     19.651665     39.303331
     -3.758759     18.607531     18.607531     37.215062
     -3.748749     19.120148     19.120148     38.240296
     -3.738739     20.332180     20.332180     40.664359
     -3.728729     21.446434     21.446434     42.892868
     -3.718719     21.936783     21.936783     43.873566
     -3.708709     21.677839     21.677839     43.355679
     -3.698699     20.963098     20.963098     41.926197
     -3.688689     20.401643     20.401643     40.803285
     -3.678679     20.711816     20.711816     41.423631
     -3.668669     22.463722     22.463722     44.927444
     -3.658659     25.850206     25.850206     51.700413
     -3.648649     30.571373     30.571373     61.142747
     -3.638639     35.887022     35.887022     71.774045
     -3.628629     40.827468     40.827468     81.654937
     -3.618619     44.483067     44.483067     88.966134
     -3.608609     46.256459     46.256459     92.512917
     -3.598599     45.984497     45.984497     91.968994
     -3.588589     43.906265     43.906265     87.812529
     -3.578579     40.524189     40.524189     81.048379
     -3.568569     36.434334     36.434334     72.868668
     -3.558559     32.183127     32.183127     64.366255
     -3.548549     28.171234     28.171234     56.342467
     -3.538539     24.604729     24.604729     49.209457
     -3.528529     21.495264     21.495264     42.990529
     -3.518519     18.713872     18.713872     37.427744
     -3.508509     16.088972     16.088972     32.177944
     -3.498498     13.514133     13.514133     27.028266
     -3.488488     11.018984     11.018984     22.037969
     -3.478478      8.772600      8.772600     17.545200
     -3.468468      7.022804      7.022804     14.045608
     -3.458458      6.002873      6.002873     12.005745
     -3.448448      5.843275      5.843275     11.686551
     -3.438438      6.515053      6.515053     13.030107
     -3.428428      7.818289      7.818289     15.636577
     -3.418418      9.421555      9.421555     18.843110
     -3.408408     10.950518     10.950518     21.901036
     -3.398398     12.107679     12.107679     24.215359
     -3.388388     12.784264     12.784264     25.568529
     -3.378378     13.116019     13.116019     26.232038
     -3.368368     13.451622     13.451622     26.903244
     -3.358358     14.241130     14.241130     28.482260
     -3.348348     15.888520     15.888520     31.777040
     -3.338338     18.622287     18.622287     37.244575
     -3.328328     22.417222     22.417222     44.834443
     -3.318318     26.970242     26.970242     53.940484
     -3.308308     31.720715     31.720715     63.441431
     -3.298298     35.917479     35.917479     71.834958
     -3.288288     38.748029     38.748029     77.496058
     -3.278278     39.530266     39.530266     79.060532
     -3.268268     37.921102     37.921102     75.842205
     -3.258258     34.054691     34.054691     68.109382
     -3.248248     28.530730     28.530730     57.061460
     -3.238238     22.239886     22.239886     44.479771
     -3.228228     16.098140     16.098140     32.196280
     -3.218218     10.806168     10.806168     21.612337
     -3.208208      6.725740      6.725740     13.451480
     -3.198198      3.895629      3.895629      7.791259
     -3.188188      2.144181      2.144181      4.288362
     -3.178178      1.229917      1.229917      2.459833
     -3.168168      0.956112      0.956112      1.912224
     -3.158158      1.236266      1.236266      2.472532
     -3.148148      2.110748      2.110748      4.221497
     -3.138138      3.722164      3.722164      7.444329
     -3.128128      6.255207      6.255207     12.510413
     -3.118118      9.848239      9.848239     19.696479
     -3.108108     14.494979     14.494979     28.989958
     -3.098098     19.970080     19.970080     39.940160
     -3.088088     25.818046     25.818046     51.636092
     -3.078078     31.427673     31.427673     62.855346
     -3.068068     36.175315     36.175315     72.350631
     -3.058058     39.579949     39.579949     79.159897
     -3.048048     41.400371     41.400371     82.800742
     -3.038038     41.635670     41.635670     83.271340
     -3.028028     40.448772     40.448772     80.897544
     -3.018018     38.078963     38.078963     76.157925
     -3.008008     34.806968     34.806968     69.613937
     -2.997998     30.985758     30.985758     61.971517
     -2.987988     27.090548     27.090548     54.181095
     -2.977978     23.719253     23.719253     47.438505
     -2.967968     21.505931     21.505931     43.011862
     -2.957958     20.968816     20.968816     41.937632
     -2.947948     22.357666     22.357666     44.715332
     -2.937938     25.565927     25.565927     51.131854
     -2.927928     30.138679     30.138679     60.277357
     -2.917918     35.365857     35.365857     70.731715
     -2.907908     40.426367     40.426367     80.852733
     -2.897898     44.547122     44.547122     89.094243
     -2.887888     47.149278     47.149278     94.298556
     -2.877878     47.957703     47.957703     95.915405
     -2.867868     47.047388     47.047388     94.094777
     -2.857858     44.803627     44.803627     89.607254
     -2.847848     41.793487     41.793487     83.586974
     -2.837838     38.582562     38.582562     77.165123
     -2.827828     35.563566     35.563566     71.127132
     -2.817818     32.867977     32.867977     65.735954
     -2.807808     30.398210     30.398210     60.796420
     -2.797798     27.959779     27.959779     55.919559
     -2.787788     25.421950     25.421950     50.843900
     -2.777778     22.821657     22.821657     45.643313
     -2.767768     20.358630     20.358630     40.717261
     -2.757758     18.292168     18.292168     36.584336
     -2.747748     16.806355     16.806355     33.612710
     -2.737738     15.927391     15.927391     31.854782
     -2.727728     15.542791     15.542791     31.085581
     -2.717718     15.506840     15.506840     31.013680
     -2.707708     15.759880     15.759880     31.519760
     -2.697698     16.377878     16.377878     32.755757
     -2.687688     17.513030     17.513030     35.026060
     -2.677678     19.259395     19.259395     38.518789
     -2.667668     21.532087     21.532087     43.064173
     -2.657658     24.046078     24.046078     48.092156
     -2.647648     26.419201     26.419201     52.838402
     -2.637638     28.342254     28.342254     56.684507
     -2.627628     29.712756     29.712756     59.425511
     -2.617618     30.651676     30.651676     61.303352
     -2.607608     31.399615     31.399615     62.799230
     -2.597598     32.165150     32.165150     64.330300
     -2.587588     33.018547     33.018547     66.037094
     -2.577578     33.878082     33.878082     67.756164
     -2.567568     34.565903     34.565903     69.131805
     -2.557558     34.874032     34.874032     69.748064
     -2.547548     34.602644     34.602644     69.205288
     -2.537538     33.582393     33.582393     67.164785
     -2.527528     31.717643     31.717643     63.435285
     -2.517518     29.062644     29.062644     58.125289
     -2.507508     25.892726     25.892726     51.785453
     -2.497497     22.706880     22.706880     45.413760
     -2.487487     20.124500     20.124500     40.249000
     -2.477477     18.700886     18.700886     37.401772
     -2.467467     18.739647     18.739647     37.479294
     -2.457457     20.190337     20.190337     40.380673
     -2.447447     22.682018     22.682018     45.364036
     -2.437437     25.680048     25.680048     51.360096
     -2.427427     28.695799     28.695799     57.391598
     -2.417417     31.453508     31.453508     62.907016
     -2.407407     33.937106     33.937106     67.874211
     -2.397397     36.295939     36.295939     72.591879
     -2.387387     38.657179     38.657179     77.314359
     -2.377377     40.941600     40.941600     81.883200
     -2.367367     42.783258     42.783258     85.566517
     -2.357357     43.607719     43.607719     87.215439
     -2.347347     42.847216     42.847216     85.694433
     -2.337337     40.200510     40.200510     80.401020
     -2.327327     35.817279     35.817279     71.634559
     -2.317317     30.319341     30.319341     60.638682
     -2.307307     24.648199     24.648199     49.296398
     -2.297297     19.807341     19.807341     39.614682
     -2.287287     16.605060     16.605060     33.210121
     -2.277277     15.485291     15.485291     30.970581
     -2.267267     16.481260     16.481260     32.962520
     -2.257257     19.275455     19.275455     38.550910
     -2.247247     23.322053     23.322053     46.644107
     -2.237237     27.984640     27.984640     55.969280
     -2.227227     32.651280     32.651280     65.302561
     -2.217217     36.803624     36.803624     73.607248
     -2.207207     40.036310     40.036310     80.072620
     -2.197197     42.045675     42.045675     84.091351
     -2.187187     42.622059     42.622059     85.244118
     -2.177177     41.673980     41.673980     83.347960
     -2.167167     39.282006     39.282006     78.564013
     -2.157157     35.742662     35.742662     71.485323
     -2.147147     31.548221     31.548221     63.096442
     -2.137137     27.275857     27.275857     54.551714
     -2.127127     23.417378     23.417378     46.834757
     -2.117117     20.228976     20.228976     40.457951
     -2.107107     17.680613     17.680613     35.361226
     -2.097097     15.531780     15.531780     31.063560
     -2.087087     13.488818     13.488818     26.977637
     -2.077077     11.357130     11.357130     22.714261
     -2.067067      9.114733      9.114733     18.229466
     -2.057057      6.887418      6.887418     13.774836
     -2.047047      4.860913      4.860913      9.721826
     -2.037037      3.188587      3.188587      6.377174
     -2.027027      1.938708      1.938708      3.877416
     -2.017017      1.092042      1.092042      2.184085
     -2.007007      0.573362      0.573362      1.146723
     -1.996997      0.291962      0.291962      0.583923
     -1.986987      0.173685      0.173685      0.347371
     -1.976977      0.179335      0.179335      0.358670
     -1.966967      0.312576      0.312576      0.625151
     -1.956957      0.621452      0.621452      1.242904
     -1.946947      1.193713      1.193713      2.387425
     -1.936937      2.141779      2.141779      4.283559
     -1.926927      3.572939      3.572939      7.145877
     -1.916917      5.546223      5.546223     11.092447
     -1.906907      8.027485      8.027485     16.054970
     -1.896897     10.861944     10.861944     21.723888
     -1.886887     13.781983     13.781983     27.563966
     -1.876877     16.455350     16.455350     32.910700
     -1.866867     18.561582     18.561582     37.123164
     -1.856857     19.872536     19.872536     39.745072
     -1.846847     20.311821     20.311821     40.623641
     -1.836837     19.974768     19.974768     39.949535
     -1.826827     19.099782     19.099782     38.199565
     -1.816817     17.992938     17.992938     35.985877
     -1.806807     16.923837     16.923837     33.847675
     -1.796797     16.029560     16.029560     32.059119
     -1.786787     15.271519     15.271519     30.543038
     -1.776777     14.473082     14.473082     28.946164
     -1.766767     13.426131     13.426131     26.852262
     -1.756757     12.015688     12.015688     24.031377
     -1.746747     10.300874     10.300874     20.601748
     -1.736737      8.516190      8.516190     17.032380
     -1.726727      7.000635      7.000635     14.001269
     -1.716717      6.093727      6.093727     12.187454
     -1.706707      6.040983      6.040983     12.081965
     -1.696697      6.933690      6.933690     13.867381
     -1.686687      8.688175      8.688175     17.376351
     -1.676677     11.060254     11.060254     22.120508
     -1.666667     13.689116     13.689116     27.378231
     -1.656657     16.162824     16.162824     32.325647
     -1.646647     18.092446     18.092446     36.184892
     -1.636637     19.179036     19.179036     38.358073
     -1.626627     19.262176     19.262176     38.524353
