# EIG2DOS: Utility for SIESTA to obtain the electronic density of states
#  E. Artacho, Apr 1999, A. Garcia, Apr 2012
#  Nick R. Papior, Feb 2017
# ------------------------------------------
# Eigenvalues calculated from a non-polarized calculation
# Eigenvalues read from siesta.EIG
# Kpoint weights read from siesta.KP
# Using smearing parameter:   0.0500
# Using 1000 points in the energy range
# Selected bands: 1 to: 2981
# Emin, Emax in file for selected band(s):    -27.1866590    218.3467440
# Nbands, Nspin, Nk   =   2981     1     1
# E_F                 =    -4.2617 eV --> (shifted to ZERO)
# Broadening          =     0.0500 eV
#
#        E            N(up)  (=)   N(down)         Ntot
     -5.000000     33.990824     33.990824     67.981649
     -4.989990     37.779302     37.779302     75.558603
     -4.979980     40.983461     40.983461     81.966921
     -4.969970     43.125953     43.125953     86.251905
     -4.959960     43.862885     43.862885     87.725770
     -4.949950     43.087234     43.087234     86.174467
     -4.939940     40.972701     40.972701     81.945402
     -4.929930     37.951716     37.951716     75.903431
     -4.919920     34.649393     34.649393     69.298786
     -4.909910     31.799723     31.799723     63.599445
     -4.899900     30.150649     30.150649     60.301298
     -4.889890     30.341879     30.341879     60.683758
     -4.879880     32.741934     32.741934     65.483867
     -4.869870     37.270655     37.270655     74.541309
     -4.859860     43.286505     43.286505     86.573009
     -4.849850     49.636545     49.636545     99.273091
     -4.839840     54.915705     54.915705    109.831411
     -4.829830     57.874861     57.874861    115.749721
     -4.819820     57.818319     57.818319    115.636637
     -4.809810     54.812396     54.812396    109.624792
     -4.799800     49.611622     49.611622     99.223244
     -4.789790     43.349705     43.349705     86.699410
     -4.779780     37.150956     37.150956     74.301913
     -4.769770     31.830909     31.830909     63.661818
     -4.759760     27.777720     27.777720     55.555440
     -4.749750     25.001060     25.001060     50.002120
     -4.739740     23.268801     23.268801     46.537601
     -4.729730     22.247674     22.247674     44.495349
     -4.719720     21.600435     21.600435     43.200869
     -4.709710     21.033280     21.033280     42.066560
     -4.699700     20.312622     20.312622     40.625245
     -4.689690     19.277382     19.277382     38.554764
     -4.679680     17.865778     17.865778     35.731556
     -4.669670     16.158103     16.158103     32.316205
     -4.659660     14.416604     14.416604     28.833208
     -4.649650     13.092115     13.092115     26.184230
     -4.639640     12.772427     12.772427     25.544855
     -4.629630     14.066815     14.066815     28.133630
     -4.619620     17.444424     17.444424     34.888849
     -4.609610     23.063677     23.063677     46.127355
     -4.599600     30.642956     30.642956     61.285913
     -4.589590     39.426386     39.426386     78.852773
     -4.579580     48.284359     48.284359     96.568717
     -4.569570     55.950416     55.950416    111.900832
     -4.559560     61.341698     61.341698    122.683396
     -4.549550     63.862765     63.862765    127.725530
     -4.539540     63.579734     63.579734    127.159469
     -4.529530     61.187435     61.187435    122.374869
     -4.519520     57.767771     57.767771    115.535543
     -4.509510     54.422481     54.422481    108.844961
     -4.499499     51.918901     51.918901    103.837802
     -4.489489     50.483556     50.483556    100.967111
     -4.479479     49.812882     49.812882     99.625764
     -4.469469     49.274321     49.274321     98.548643
     -4.459459     48.193533     48.193533     96.387066
     -4.449449     46.103125     46.103125     92.206251
     -4.439439     42.869149     42.869149     85.738298
     -4.429429     38.683202     38.683202     77.366404
     -4.419419     33.967104     33.967104     67.934209
     -4.409409     29.254720     29.254720     58.509440
     -4.399399     25.092367     25.092367     50.184734
     -4.389389     21.961715     21.961715     43.923430
     -4.379379     20.208627     20.208627     40.417254
     -4.369369     19.971945     19.971945     39.943889
     -4.359359     21.133993     21.133993     42.267985
     -4.349349     23.330594     23.330594     46.661188
     -4.339339     26.042716     26.042716     52.085432
     -4.329329     28.750902     28.750902     57.501804
     -4.319319     31.095190     31.095190     62.190380
     -4.309309     32.974201     32.974201     65.948401
     -4.299299     34.543038     34.543038     69.086076
     -4.289289     36.112594     36.112594     72.225189
     -4.279279     37.988493     37.988493     75.976986
     -4.269269     40.304528     40.304528     80.609056
     -4.259259     42.906961     42.906961     85.813921
     -4.249249     45.338324     45.338324     90.676647
     -4.239239     46.947954     46.947954     93.895909
     -4.229229     47.112691     47.112691     94.225383
     -4.219219     45.492903     45.492903     90.985805
     -4.209209     42.209462     42.209462     84.418924
     -4.199199     37.844658     37.844658     75.689316
     -4.189189     33.250477     33.250477     66.500953
     -4.179179     29.249066     29.249066     58.498131
     -4.169169     26.367952     26.367952     52.735905
     -4.159159     24.729086     24.729086     49.458172
     -4.149149     24.123742     24.123742     48.247485
     -4.139139     24.211012     24.211012     48.422025
     -4.129129     24.727209     24.727209     49.454419
     -4.119119     25.602963     25.602963     51.205925
     -4.109109     26.937608     26.937608     53.875216
     -4.099099     28.849749     28.849749     57.699498
     -4.089089     31.284215     31.284215     62.568429
     -4.079079     33.886187     33.886187     67.772374
     -4.069069     36.032310     36.032310     72.064620
     -4.059059     37.033149     37.033149     74.066298
     -4.049049     36.423286     36.423286     72.846571
     -4.039039     34.193227     34.193227     68.386455
     -4.029029     30.837815     30.837815     61.675631
     -4.019019     27.193446     27.193446     54.386893
     -4.009009     24.150863     24.150863     48.301727
     -3.998999     22.388278     22.388278     44.776556
     -3.988989     22.238359     22.238359     44.476719
     -3.978979     23.711332     23.711332     47.422665
     -3.968969     26.610726     26.610726     53.221453
     -3.958959     30.651143     30.651143     61.302286
     -3.948949     35.523807     35.523807     71.047614
     -3.938939     40.915713     40.915713     81.831427
     -3.928929     46.521899     46.521899     93.043797
     -3.918919     52.076616     52.076616    104.153232
     -3.908909     57.388559     57.388559    114.777117
     -3.898899     62.339108     62.339108    124.678216
     -3.888889     66.817320     66.817320    133.634640
     -3.878879     70.612465     70.612465    141.224930
     -3.868869     73.329517     73.329517    146.659033
     -3.858859     74.400677     74.400677    148.801355
     -3.848849     73.225867     73.225867    146.451735
     -3.838839     69.405791     69.405791    138.811582
     -3.828829     62.970732     62.970732    125.941464
     -3.818819     54.493187     54.493187    108.986374
     -3.808809     45.016097     45.016097     90.032194
     -3.798799     35.810069     35.810069     71.620137
     -3.788789     28.048478     28.048478     56.096957
     -3.778779     22.519110     22.519110     45.038220
     -3.768769     19.465204     19.465204     38.930409
     -3.758759     18.589930     18.589930     37.179860
     -3.748749     19.200860     19.200860     38.401720
     -3.738739     20.437530     20.437530     40.875059
     -3.728729     21.517300     21.517300     43.034599
     -3.718719     21.941991     21.941991     43.883983
     -3.708709     21.620405     21.620405     43.240809
     -3.698699     20.877461     20.877461     41.754922
     -3.688689     20.341981     20.341981     40.683962
     -3.678679     20.734107     20.734107     41.468214
     -3.668669     22.606694     22.606694     45.213387
     -3.658659     26.121443     26.121443     52.242887
     -3.648649     30.943568     30.943568     61.887136
     -3.638639     36.305584     36.305584     72.611168
     -3.628629     41.225959     41.225959     82.451918
     -3.618619     44.799789     44.799789     89.599577
     -3.608609     46.446038     46.446038     92.892076
     -3.598599     46.022165     46.022165     92.044330
     -3.588589     43.786910     43.786910     87.573820
     -3.578579     40.259955     40.259955     80.519911
     -3.568569     36.052731     36.052731     72.105461
     -3.558559     31.724570     31.724570     63.449140
     -3.548549     27.683767     27.683767     55.367535
     -3.538539     24.135523     24.135523     48.271046
     -3.528529     21.081412     21.081412     42.162823
     -3.518519     18.376358     18.376358     36.752715
     -3.508509     15.832203     15.832203     31.664406
     -3.498498     13.330409     13.330409     26.660817
     -3.488488     10.895055     10.895055     21.790110
     -3.478478      8.695221      8.695221     17.390443
     -3.468468      6.981593      6.981593     13.963187
     -3.458458      5.990488      5.990488     11.980976
     -3.448448      5.853991      5.853991     11.707982
     -3.438438      6.543056      6.543056     13.086113
     -3.428428      7.856788      7.856788     15.713576
     -3.418418      9.463339      9.463339     18.926678
     -3.408408     10.989975     10.989975     21.979949
     -3.398398     12.143577     12.143577     24.287154
     -3.388388     12.822057     12.822057     25.644114
     -3.378378     13.168487     13.168487     26.336974
     -3.368368     13.537322     13.537322     27.074643
     -3.358358     14.380942     14.380942     28.761884
     -3.348348     16.100948     16.100948     32.201896
     -3.338338     18.917894     18.917894     37.835788
     -3.328328     22.792454     22.792454     45.584908
     -3.318318     27.401840     27.401840     54.803679
     -3.308308     32.164036     32.164036     64.328072
     -3.298298     36.313772     36.313772     72.627544
     -3.288288     39.044693     39.044693     78.089387
     -3.278278     39.713561     39.713561     79.427122
     -3.268268     38.054525     38.054525     76.109049
     -3.258258     34.311617     34.311617     68.623233
     -3.248248     29.208758     29.208758     58.417516
     -3.238238     23.745781     23.745781     47.491563
     -3.228228     18.895320     18.895320     37.790641
     -3.218218     15.323089     15.323089     30.646177
     -3.208208     13.237028     13.237028     26.474056
     -3.198198     12.407658     12.407658     24.815316
     -3.188188     12.332835     12.332835     24.665671
     -3.178178     12.474986     12.474986     24.949971
     -3.168168     12.485588     12.485588     24.971175
     -3.158158     12.344623     12.344623     24.689246
     -3.148148     12.373420     12.373420     24.746841
     -3.138138     13.118750     13.118750     26.237500
     -3.128128     15.143923     15.143923     30.287846
     -3.118118     18.790216     18.790216     37.580432
     -3.108108     23.984797     23.984797     47.969594
     -3.098098     30.166774     30.166774     60.333548
     -3.088088     36.376020     36.376020     72.752039
     -3.078078     41.497048     41.497048     82.994095
     -3.068068     44.583931     44.583931     89.167862
     -3.058058     45.143334     45.143334     90.286668
     -3.048048     43.256978     43.256978     86.513956
     -3.038038     39.493262     39.493262     78.986524
     -3.028028     34.659117     34.659117     69.318234
     -3.018018     29.518759     29.518759     59.037517
     -3.008008     24.609574     24.609574     49.219148
     -2.997998     20.217348     20.217348     40.434697
     -2.987988     16.480075     16.480075     32.960149
     -2.977978     13.529597     13.529597     27.059193
     -2.967968     11.581395     11.581395     23.162791
     -2.957958     10.929549     10.929549     21.859097
     -2.947948     11.858027     11.858027     23.716054
     -2.937938     14.512295     14.512295     29.024589
     -2.927928     18.782861     18.782861     37.565722
     -2.917918     24.245992     24.245992     48.491985
     -2.907908     30.193553     30.193553     60.387106
     -2.897898     35.761338     35.761338     71.522677
     -2.887888     40.130700     40.130700     80.261400
     -2.877878     42.741358     42.741358     85.482715
     -2.867868     43.434995     43.434995     86.869989
     -2.857858     42.467097     42.467097     84.934194
     -2.847848     40.377059     40.377059     80.754118
     -2.837838     37.770124     37.770124     75.540249
     -2.827828     35.105943     35.105943     70.211886
     -2.817818     32.584059     32.584059     65.168118
     -2.807808     30.167237     30.167237     60.334474
     -2.797798     27.714323     27.714323     55.428645
     -2.787788     25.141574     25.141574     50.283147
     -2.777778     22.522901     22.522901     45.045803
     -2.767768     20.079265     20.079265     40.158530
     -2.757758     18.073249     18.073249     36.146497
     -2.747748     16.679401     16.679401     33.358803
     -2.737738     15.912517     15.912517     31.825033
     -2.727728     15.657180     15.657180     31.314361
     -2.717718     15.775359     15.775359     31.550717
     -2.707708     16.216190     16.216190     32.432380
     -2.697698     17.048779     17.048779     34.097558
     -2.687688     18.389811     18.389811     36.779622
     -2.677678     20.271655     20.271655     40.543310
     -2.667668     22.543493     22.543493     45.086987
     -2.657658     24.882920     24.882920     49.765839
     -2.647648     26.924478     26.924478     53.848957
     -2.637638     28.431320     28.431320     56.862639
     -2.627628     29.402999     29.402999     58.805997
     -2.617618     30.052115     30.052115     60.104230
     -2.607608     30.668010     30.668010     61.336020
     -2.597598     31.455641     31.455641     62.911282
     -2.587588     32.442469     32.442469     64.884938
     -2.577578     33.487597     33.487597     66.975193
     -2.567568     34.356282     34.356282     68.712564
     -2.557558     34.795602     34.795602     69.591204
     -2.547548     34.577402     34.577402     69.154804
     -2.537538     33.525364     33.525364     67.050729
     -2.527528     31.562422     31.562422     63.124844
     -2.517518     28.784977     28.784977     57.569954
     -2.507508     25.522043     25.522043     51.044087
     -2.497497     22.318576     22.318576     44.637151
     -2.487487     19.814509     19.814509     39.629019
     -2.477477     18.552837     18.552837     37.105674
     -2.467467     18.797986     18.797986     37.595973
     -2.457457     20.449250     20.449250     40.898499
     -2.447447     23.092466     23.092466     46.184932
     -2.437437     26.169805     26.169805     52.339609
     -2.427427     29.192821     29.192821     58.385641
     -2.417417     31.902706     31.902706     63.805412
     -2.407407     34.304613     34.304613     68.609226
     -2.397397     36.561713     36.561713     73.123425
     -2.387387     38.803002     38.803002     77.606004
     -2.377377     40.943772     40.943772     81.887544
     -2.367367     42.615954     42.615954     85.231908
     -2.357357     43.256000     43.256000     86.511999
     -2.347347     42.322211     42.322211     84.644421
     -2.337337     39.547336     39.547336     79.094672
     -2.327327     35.110078     35.110078     70.220157
     -2.317317     29.644907     29.644907     59.289814
     -2.307307     24.085637     24.085637     48.171275
     -2.297297     19.412470     19.412470     38.824940
     -2.287287     16.404659     16.404659     32.809317
     -2.277277     15.480618     15.480618     30.961236
     -2.267267     16.656141     16.656141     33.312283
     -2.257257     19.603468     19.603468     39.206936
     -2.247247     23.769499     23.769499     47.538998
     -2.237237     28.509279     28.509279     57.018559
     -2.227227     33.199672     33.199672     66.399344
     -2.217217     37.311219     37.311219     74.622438
     -2.207207     40.433699     40.433699     80.867399
     -2.197197     42.271537     42.271537     84.543074
     -2.187187     42.639464     42.639464     85.278929
     -2.177177     41.483626     41.483626     82.967252
     -2.167167     38.925639     38.925639     77.851278
     -2.157157     35.293160     35.293160     70.586321
     -2.147147     31.088422     31.088422     62.176844
     -2.137137     26.873644     26.873644     53.747288
     -2.127127     23.106935     23.106935     46.213871
     -2.117117     20.005795     20.005795     40.011591
     -2.107107     17.511633     17.511633     35.023266
     -2.097097     15.375032     15.375032     30.750064
     -2.087087     13.312964     13.312964     26.625928
     -2.077077     11.152416     11.152416     22.304832
     -2.067067      8.892244      8.892244     17.784487
     -2.057057      6.669653      6.669653     13.339306
     -2.047047      4.670093      4.670093      9.340186
     -2.037037      3.038447      3.038447      6.076894
     -2.027027      1.832151      1.832151      3.664302
     -2.017017      1.023563      1.023563      2.047126
     -2.007007      0.533453      0.533453      1.066906
     -1.996997      0.271029      0.271029      0.542058
     -1.986987      0.164324      0.164324      0.328649
     -1.976977      0.177050      0.177050      0.354101
     -1.966967      0.315587      0.315587      0.631173
     -1.956957      0.630191      0.630191      1.260383
     -1.946947      1.210309      1.210309      2.420619
     -1.936937      2.169567      2.169567      4.339133
     -1.926927      3.615986      3.615986      7.231973
     -1.916917      5.609142      5.609142     11.218284
     -1.906907      8.116244      8.116244     16.232488
     -1.896897     10.987135     10.987135     21.974271
     -1.886887     13.966617     13.966617     27.933234
     -1.876877     16.749363     16.749363     33.498727
     -1.866867     19.063757     19.063757     38.127514
     -1.856857     20.756319     20.756319     41.512638
     -1.846847     21.844554     21.844554     43.689108
     -1.836837     22.512910     22.512910     45.025821
     -1.826827     23.041835     23.041835     46.083671
     -1.816817     23.683234     23.683234     47.366468
     -1.806807     24.524556     24.524556     49.049112
     -1.796797     25.405070     25.405070     50.810141
     -1.786787     25.940427     25.940427     51.880853
     -1.776777     25.665017     25.665017     51.330035
     -1.766767     24.235455     24.235455     48.470910
     -1.756757     21.595848     21.595848     43.191695
     -1.746747     18.020821     18.020821     36.041643
     -1.736737     14.019542     14.019542     28.039085
     -1.726727     10.158881     10.158881     20.317762
     -1.716717      6.897866      6.897866     13.795731
     -1.706707      4.502663      4.502663      9.005326
     -1.696697      3.055022      3.055022      6.110044
     -1.686687      2.516942      2.516942      5.033885
     -1.676677      2.796634      2.796634      5.593268
     -1.666667      3.776842      3.776842      7.553684
     -1.656657      5.300214      5.300214     10.600428
     -1.646647      7.137551      7.137551     14.275101
     -1.636637      8.978444      8.978444     17.956889
     -1.626627     10.473376     10.473376     20.946752
