# EIG2DOS: Utility for SIESTA to obtain the electronic density of states
#  E. Artacho, Apr 1999, A. Garcia, Apr 2012
#  Nick R. Papior, Feb 2017
# ------------------------------------------
# Eigenvalues calculated from a non-polarized calculation
# Eigenvalues read from siesta.EIG
# Kpoint weights read from siesta.KP
# Using smearing parameter:   0.0500
# Using 1000 points in the energy range
# Selected bands: 1 to: 2981
# Emin, Emax in file for selected band(s):    -27.2637954    218.3772560
# Nbands, Nspin, Nk   =   2981     1     1
# E_F                 =    -4.2257 eV --> (shifted to ZERO)
# Broadening          =     0.0500 eV
#
#        E            N(up)  (=)   N(down)         Ntot
     -5.000000     32.953144     32.953144     65.906288
     -4.989990     37.650643     37.650643     75.301285
     -4.979980     41.860551     41.860551     83.721103
     -4.969970     44.873435     44.873435     89.746870
     -4.959960     46.142496     46.142496     92.284991
     -4.949950     45.463704     45.463704     90.927407
     -4.939940     43.047444     43.047444     86.094888
     -4.929930     39.470077     39.470077     78.940154
     -4.919920     35.546395     35.546395     71.092791
     -4.909910     32.178003     32.178003     64.356005
     -4.899900     30.207268     30.207268     60.414536
     -4.889890     30.272746     30.272746     60.545492
     -4.879880     32.657009     32.657009     65.314018
     -4.869870     37.151596     37.151596     74.303191
     -4.859860     43.006660     43.006660     86.013320
     -4.849850     49.038117     49.038117     98.076235
     -4.839840     53.908966     53.908966    107.817933
     -4.829830     56.508628     56.508628    113.017256
     -4.819820     56.284029     56.284029    112.568058
     -4.809810     53.380872     53.380872    106.761744
     -4.799800     48.538025     48.538025     97.076049
     -4.789790     42.794139     42.794139     85.588279
     -4.779780     37.145128     37.145128     74.290256
     -4.769770     32.291883     32.291883     64.583766
     -4.759760     28.550239     28.550239     57.100478
     -4.749750     25.908963     25.908963     51.817927
     -4.739740     24.166136     24.166136     48.332272
     -4.729730     23.067543     23.067543     46.135087
     -4.719720     22.398283     22.398283     44.796566
     -4.709710     22.014862     22.014862     44.029724
     -4.699700     21.832549     21.832549     43.665098
     -4.689690     21.796036     21.796036     43.592073
     -4.679680     21.860992     21.860992     43.721984
     -4.669670     22.002677     22.002677     44.005355
     -4.659660     22.251119     22.251119     44.502239
     -4.649650     22.736328     22.736328     45.472656
     -4.639640     23.714788     23.714788     47.429576
     -4.629630     25.542759     25.542759     51.085518
     -4.619620     28.571017     28.571017     57.142034
     -4.609610     32.969465     32.969465     65.938929
     -4.599600     38.543495     38.543495     77.086991
     -4.589590     44.645597     44.645597     89.291195
     -4.579580     50.273139     50.273139    100.546278
     -4.569570     54.361684     54.361684    108.723368
     -4.559560     56.170104     56.170104    112.340207
     -4.549550     55.581556     55.581556    111.163112
     -4.539540     53.167418     53.167418    106.334835
     -4.529530     49.972628     49.972628     99.945256
     -4.519520     47.116389     47.116389     94.232778
     -4.509510     45.385336     45.385336     90.770672
     -4.499499     44.987717     44.987717     89.975433
     -4.489489     45.551307     45.551307     91.102614
     -4.479479     46.335699     46.335699     92.671398
     -4.469469     46.545946     46.545946     93.091891
     -4.459459     45.611867     45.611867     91.223734
     -4.449449     43.335868     43.335868     86.671736
     -4.439439     39.885429     39.885429     79.770858
     -4.429429     35.676035     35.676035     71.352070
     -4.419419     31.224157     31.224157     62.448314
     -4.409409     27.036442     27.036442     54.072884
     -4.399399     23.555466     23.555466     47.110932
     -4.389389     21.137219     21.137219     42.274438
     -4.379379     20.021699     20.021699     40.043399
     -4.369369     20.282372     20.282372     40.564743
     -4.359359     21.780046     21.780046     43.560092
     -4.349349     24.167129     24.167129     48.334258
     -4.339339     26.969935     26.969935     53.939870
     -4.329329     29.731389     29.731389     59.462778
     -4.319319     32.156233     32.156233     64.312466
     -4.309309     34.193013     34.193013     68.386026
     -4.299299     36.014678     36.014678     72.029356
     -4.289289     37.903476     37.903476     75.806952
     -4.279279     40.082976     40.082976     80.165953
     -4.269269     42.559359     42.559359     85.118719
     -4.259259     45.035854     45.035854     90.071707
     -4.249249     46.948606     46.948606     93.897212
     -4.239239     47.634926     47.634926     95.269852
     -4.229229     46.587624     46.587624     93.175248
     -4.219219     43.694289     43.694289     87.388578
     -4.209209     39.345153     39.345153     78.690306
     -4.199199     34.341853     34.341853     68.683706
     -4.189189     29.635132     29.635132     59.270263
     -4.179179     26.008129     26.008129     52.016257
     -4.169169     23.848623     23.848623     47.697247
     -4.159159     23.103313     23.103313     46.206626
     -4.149149     23.413110     23.413110     46.826221
     -4.139139     24.344865     24.344865     48.689731
     -4.129129     25.600677     25.600677     51.201355
     -4.119119     27.107934     27.107934     54.215867
     -4.109109     28.954509     28.954509     57.909019
     -4.099099     31.208710     31.208710     62.417420
     -4.089089     33.724790     33.724790     67.449579
     -4.079079     36.053398     36.053398     72.106796
     -4.069069     37.532693     37.532693     75.065386
     -4.059059     37.540464     37.540464     75.080928
     -4.049049     35.789402     35.789402     71.578805
     -4.039039     32.509922     32.509922     65.019844
     -4.029029     28.418992     28.418992     56.837984
     -4.019019     24.489083     24.489083     48.978167
     -4.009009     21.635091     21.635091     43.270182
     -3.998999     20.465683     20.465683     40.931366
     -3.988989     21.189947     21.189947     42.379893
     -3.978979     23.676053     23.676053     47.352106
     -3.968969     27.588278     27.588278     55.176557
     -3.958959     32.518090     32.518090     65.036181
     -3.948949     38.065102     38.065102     76.130205
     -3.938939     43.874233     43.874233     87.748465
     -3.928929     49.657256     49.657256     99.314511
     -3.918919     55.210766     55.210766    110.421532
     -3.908909     60.413020     60.413020    120.826040
     -3.898899     65.174243     65.174243    130.348486
     -3.888889     69.342727     69.342727    138.685455
     -3.878879     72.612309     72.612309    145.224617
     -3.868869     74.498487     74.498487    148.996974
     -3.858859     74.427664     74.427664    148.855327
     -3.848849     71.926033     71.926033    143.852066
     -3.838839     66.836130     66.836130    133.672259
     -3.828829     59.464835     59.464835    118.929669
     -3.818819     50.590472     50.590472    101.180945
     -3.808809     41.314804     41.314804     82.629608
     -3.798799     32.807959     32.807959     65.615918
     -3.788789     26.032062     26.032062     52.064123
     -3.778779     21.529942     21.529942     43.059885
     -3.768769     19.335426     19.335426     38.670851
     -3.758759     19.019081     19.019081     38.038162
     -3.748749     19.845476     19.845476     39.690951
     -3.738739     20.994063     20.994063     41.988126
     -3.728729     21.786817     21.786817     43.573633
     -3.718719     21.868180     21.868180     43.736361
     -3.708709     21.293862     21.293862     42.587723
     -3.698699     20.503097     20.503097     41.006194
     -3.688689     20.174276     20.174276     40.348553
     -3.678679     20.994994     20.994994     41.989988
     -3.668669     23.409204     23.409204     46.818409
     -3.658659     27.424236     27.424236     54.848473
     -3.648649     32.553716     32.553716     65.107431
     -3.638639     37.930264     37.930264     75.860528
     -3.628629     42.554468     42.554468     85.108936
     -3.618619     45.585520     45.585520     91.171039
     -3.608609     46.560706     46.560706     93.121412
     -3.598599     45.469745     45.469745     90.939491
     -3.588589     42.682444     42.682444     85.364888
     -3.578579     38.788298     38.788298     77.576597
     -3.568569     34.421784     34.421784     68.843569
     -3.558559     30.122206     30.122206     60.244412
     -3.548549     26.244442     26.244442     52.488884
     -3.538539     22.922720     22.922720     45.845440
     -3.528529     20.091109     20.091109     40.182217
     -3.518519     17.560845     17.560845     35.121690
     -3.508509     15.134768     15.134768     30.269535
     -3.498498     12.716021     12.716021     25.432042
     -3.488488     10.364829     10.364829     20.729657
     -3.478478      8.281368      8.281368     16.562735
     -3.468468      6.728640      6.728640     13.457281
     -3.458458      5.932455      5.932455     11.864910
     -3.448448      5.995894      5.995894     11.991788
     -3.438438      6.852089      6.852089     13.704178
     -3.428428      8.266682      8.266682     16.533365
     -3.418418      9.894276      9.894276     19.788552
     -3.408408     11.383564     11.383564     22.767128
     -3.398398     12.507162     12.507162     25.014324
     -3.388388     13.271362     13.271362     26.542724
     -3.378378     13.955533     13.955533     27.911066
     -3.368368     15.051896     15.051896     30.103792
     -3.358358     17.116076     17.116076     34.232151
     -3.348348     20.574769     20.574769     41.149539
     -3.338338     25.550201     25.550201     51.100402
     -3.328328     31.751243     31.751243     63.502486
     -3.318318     38.462322     38.462322     76.924644
     -3.308308     44.644802     44.644802     89.289604
     -3.298298     49.147521     49.147521     98.295042
     -3.288288     50.991899     50.991899    101.983797
     -3.278278     49.654586     49.654586     99.309173
     -3.268268     45.243494     45.243494     90.486988
     -3.258258     38.484157     38.484157     76.968313
     -3.248248     30.508505     30.508505     61.017010
     -3.238238     22.529701     22.529701     45.059402
     -3.228228     15.537547     15.537547     31.075094
     -3.218218     10.126664     10.126664     20.253327
     -3.208208      6.491887      6.491887     12.983773
     -3.198198      4.543848      4.543848      9.087695
     -3.188188      4.058308      4.058308      8.116616
     -3.178178      4.786974      4.786974      9.573948
     -3.168168      6.503636      6.503636     13.007272
     -3.158158      9.003960      9.003960     18.007919
     -3.148148     12.095539     12.095539     24.191077
     -3.138138     15.601980     15.601980     31.203961
     -3.128128     19.375402     19.375402     38.750804
     -3.118118     23.291263     23.291263     46.582526
     -3.108108     27.207524     27.207524     54.415048
     -3.098098     30.903989     30.903989     61.807978
     -3.088088     34.049938     34.049938     68.099877
     -3.078078     36.246326     36.246326     72.492652
     -3.068068     37.144536     37.144536     74.289073
     -3.058058     36.585431     36.585431     73.170863
     -3.048048     34.676191     34.676191     69.352382
     -3.038038     31.753951     31.753951     63.507903
     -3.028028     28.255768     28.255768     56.511536
     -3.018018     24.573281     24.573281     49.146563
     -3.008008     20.975081     20.975081     41.950161
     -2.997998     17.629113     17.629113     35.258227
     -2.987988     14.691030     14.691030     29.382059
     -2.977978     12.388317     12.388317     24.776634
     -2.967968     11.042106     11.042106     22.084212
     -2.957958     11.010457     11.010457     22.020915
     -2.947948     12.576879     12.576879     25.153759
     -2.937938     15.827068     15.827068     31.654136
     -2.927928     20.557512     20.557512     41.115025
     -2.917918     26.251499     26.251499     52.502999
     -2.907908     32.144449     32.144449     64.288897
     -2.897898     37.377321     37.377321     74.754643
     -2.887888     41.203640     41.203640     82.407281
     -2.877878     43.184351     43.184351     86.368702
     -2.867868     43.295117     43.295117     86.590233
     -2.857858     41.896278     41.896278     83.792556
     -2.847848     39.571356     39.571356     79.142712
     -2.837838     36.900424     36.900424     73.800848
     -2.827828     34.267384     34.267384     68.534768
     -2.817818     31.784250     31.784250     63.568501
     -2.807808     29.356143     29.356143     58.712286
     -2.797798     26.838652     26.838652     53.677304
     -2.787788     24.194185     24.194185     48.388371
     -2.777778     21.561217     21.561217     43.122433
     -2.767768     19.205278     19.205278     38.410556
     -2.757758     17.390837     17.390837     34.781674
     -2.747748     16.257707     16.257707     32.515413
     -2.737738     15.778242     15.778242     31.556484
     -2.727728     15.816977     15.816977     31.633953
     -2.717718     16.246340     16.246340     32.492680
     -2.707708     17.034493     17.034493     34.068987
     -2.697698     18.240477     18.240477     36.480953
     -2.687688     19.917592     19.917592     39.835184
     -2.677678     21.994831     21.994831     43.989661
     -2.667668     24.228906     24.228906     48.457813
     -2.657658     26.276014     26.276014     52.552027
     -2.647648     27.849593     27.849593     55.699186
     -2.637638     28.866145     28.866145     57.732290
     -2.627628     29.483414     29.483414     58.966828
     -2.617618     30.004607     30.004607     60.009214
     -2.607608     30.709045     30.709045     61.418091
     -2.597598     31.711000     31.711000     63.422000
     -2.587588     32.917670     32.917670     65.835341
     -2.577578     34.084166     34.084166     68.168332
     -2.567568     34.907574     34.907574     69.815147
     -2.557558     35.102695     35.102695     70.205391
     -2.547548     34.446093     34.446093     68.892186
     -2.537538     32.814538     32.814538     65.629077
     -2.527528     30.241405     30.241405     60.482810
     -2.517518     26.976114     26.976114     53.952227
     -2.507508     23.497924     23.497924     46.995849
     -2.497497     20.441405     20.441405     40.882809
     -2.487487     18.436365     18.436365     36.872729
     -2.477477     17.917647     17.917647     35.835294
     -2.467467     18.984883     18.984883     37.969766
     -2.457457     21.375548     21.375548     42.751096
     -2.447447     24.567192     24.567192     49.134384
     -2.437437     27.969438     27.969438     55.938877
     -2.427427     31.126497     31.126497     62.252994
     -2.417417     33.843341     33.843341     67.686682
     -2.407407     36.179195     36.179195     72.358389
     -2.397397     38.310912     38.310912     76.621824
     -2.387387     40.332040     40.332040     80.664080
     -2.377377     42.090869     42.090869     84.181737
     -2.367367     43.160554     43.160554     86.321108
     -2.357357     42.974756     42.974756     85.949512
     -2.347347     41.077660     41.077660     82.155319
     -2.337337     37.371662     37.371662     74.743324
     -2.327327     32.239731     32.239731     64.479461
     -2.317317     26.480835     26.480835     52.961670
     -2.307307     21.090696     21.090696     42.181392
     -2.297297     16.989604     16.989604     33.979207
     -2.287287     14.806551     14.806551     29.613101
     -2.277277     14.781209     14.781209     29.562418
     -2.267267     16.782037     16.782037     33.564075
     -2.257257     20.397982     20.397982     40.795964
     -2.247247     25.054378     25.054378     50.108757
     -2.237237     30.118327     30.118327     60.236655
     -2.227227     34.977436     34.977436     69.954872
     -2.217217     39.089927     39.089927     78.179855
     -2.207207     42.014068     42.014068     84.028137
     -2.197197     43.431563     43.431563     86.863127
     -2.187187     43.179188     43.179188     86.358376
     -2.177177     41.290463     41.290463     82.580926
     -2.167167     38.027207     38.027207     76.054414
     -2.157157     33.864380     33.864380     67.728759
     -2.147147     29.400000     29.400000     58.799999
     -2.137137     25.200178     25.200178     50.400357
     -2.127127     21.636615     21.636615     43.273231
     -2.117117     18.794379     18.794379     37.588758
     -2.107107     16.499335     16.499335     32.998670
     -2.097097     14.450830     14.450830     28.901660
     -2.087087     12.388201     12.388201     24.776403
     -2.077077     10.207573     10.207573     20.415146
     -2.067067      7.983359      7.983359     15.966718
     -2.057057      5.907266      5.907266     11.814532
     -2.047047      4.196879      4.196879      8.393758
     -2.037037      3.025913      3.025913      6.051825
     -2.027027      2.497981      2.497981      4.995962
     -2.017017      2.651424      2.651424      5.302849
     -2.007007      3.467094      3.467094      6.934188
     -1.996997      4.860312      4.860312      9.720623
     -1.986987      6.662375      6.662375     13.324750
     -1.976977      8.617521      8.617521     17.235042
     -1.966967     10.422162     10.422162     20.844325
     -1.956957     11.810276     11.810276     23.620552
     -1.946947     12.654351     12.654351     25.308701
     -1.936937     13.028846     13.028846     26.057693
     -1.926927     13.192109     13.192109     26.384218
     -1.916917     13.482684     13.482684     26.965368
     -1.906907     14.173712     14.173712     28.347424
     -1.896897     15.353870     15.353870     30.707739
     -1.886887     16.889192     16.889192     33.778384
     -1.876877     18.477617     18.477617     36.955235
     -1.866867     19.764821     19.764821     39.529642
     -1.856857     20.469522     20.469522     40.939044
     -1.846847     20.472776     20.472776     40.945552
     -1.836837     19.846042     19.846042     39.692084
     -1.826827     18.813188     18.813188     37.626375
     -1.816817     17.658983     17.658983     35.317966
     -1.806807     16.614266     16.614266     33.228532
     -1.796797     15.762851     15.762851     31.525702
     -1.786787     15.014381     15.014381     30.028761
     -1.776777     14.160760     14.160760     28.321520
     -1.766767     12.990481     12.990481     25.980962
     -1.756757     11.401979     11.401979     22.803958
     -1.746747      9.458550      9.458550     18.917101
     -1.736737      7.363592      7.363592     14.727183
     -1.726727      5.380789      5.380789     10.761578
     -1.716717      3.748888      3.748888      7.497776
     -1.706707      2.632017      2.632017      5.264034
     -1.696697      2.115626      2.115626      4.231252
     -1.686687      2.228243      2.228243      4.456485
     -1.676677      2.958191      2.958191      5.916382
     -1.666667      4.245535      4.245535      8.491069
     -1.656657      5.953546      5.953546     11.907092
     -1.646647      7.845899      7.845899     15.691799
     -1.636637      9.601750      9.601750     19.203500
     -1.626627     10.884875     10.884875     21.769750
