# EIG2DOS: Utility for SIESTA to obtain the electronic density of states
#  E. Artacho, Apr 1999, A. Garcia, Apr 2012
#  Nick R. Papior, Feb 2017
# ------------------------------------------
# Eigenvalues calculated from a non-polarized calculation
# Eigenvalues read from siesta.EIG
# Kpoint weights read from siesta.KP
# Using smearing parameter:   0.0500
# Using 1000 points in the energy range
# Selected bands: 1 to: 2981
# Emin, Emax in file for selected band(s):    -27.0385175    218.3172650
# Nbands, Nspin, Nk   =   2981     1     1
# E_F                 =    -4.2910 eV --> (shifted to ZERO)
# Broadening          =     0.0500 eV
#
#        E            N(up)  (=)   N(down)         Ntot
     -5.000000     45.034170     45.034170     90.068339
     -4.989990     49.312358     49.312358     98.624715
     -4.979980     52.007632     52.007632    104.015263
     -4.969970     52.776336     52.776336    105.552671
     -4.959960     51.594963     51.594963    103.189927
     -4.949950     48.756471     48.756471     97.512942
     -4.939940     44.787791     44.787791     89.575583
     -4.929930     40.339698     40.339698     80.679396
     -4.919920     36.100085     36.100085     72.200169
     -4.909910     32.747722     32.747722     65.495443
     -4.899900     30.919360     30.919360     61.838720
     -4.889890     31.139474     31.139474     62.278947
     -4.879880     33.681117     33.681117     67.362234
     -4.869870     38.386501     38.386501     76.773002
     -4.859860     44.542660     44.542660     89.085319
     -4.849850     50.927940     50.927940    101.855881
     -4.839840     56.084200     56.084200    112.168399
     -4.829830     58.747378     58.747378    117.494755
     -4.819820     58.259679     58.259679    116.519357
     -4.809810     54.770212     54.770212    109.540425
     -4.799800     49.130672     49.130672     98.261344
     -4.789790     42.549315     42.549315     85.098631
     -4.779780     36.179521     36.179521     72.359042
     -4.769770     30.821836     30.821836     61.643673
     -4.759760     26.825067     26.825067     53.650133
     -4.749750     24.157819     24.157819     48.315639
     -4.739740     22.558495     22.558495     45.116991
     -4.729730     21.677512     21.677512     43.355023
     -4.719720     21.169638     21.169638     42.339275
     -4.709710     20.736334     20.736334     41.472667
     -4.699700     20.139444     20.139444     40.278889
     -4.689690     19.211322     19.211322     38.422643
     -4.679680     17.879245     17.879245     35.758490
     -4.669670     16.206616     16.206616     32.413232
     -4.659660     14.434230     14.434230     28.868460
     -4.649650     12.992069     12.992069     25.984137
     -4.639640     12.454326     12.454326     24.908652
     -4.629630     13.427143     13.427143     26.854287
     -4.619620     16.381796     16.381796     32.763593
     -4.609610     21.469611     21.469611     42.939222
     -4.599600     28.375991     28.375991     56.751982
     -4.589590     36.282297     36.282297     72.564593
     -4.579580     43.990088     43.990088     87.980177
     -4.569570     50.210262     50.210262    100.420525
     -4.559560     53.941685     53.941685    107.883369
     -4.549550     54.800338     54.800338    109.600676
     -4.539540     53.156081     53.156081    106.312161
     -4.529530     50.005031     50.005031    100.010063
     -4.519520     46.619880     46.619880     93.239760
     -4.509510     44.117918     44.117918     88.235837
     -4.499499     43.116750     43.116750     86.233501
     -4.489489     43.599290     43.599290     87.198580
     -4.479479     45.013368     45.013368     90.026736
     -4.469469     46.537150     46.537150     93.074299
     -4.459459     47.390543     47.390543     94.781087
     -4.449449     47.078072     47.078072     94.156144
     -4.439439     45.496065     45.496065     90.992131
     -4.429429     42.898284     42.898284     85.796567
     -4.419419     39.763206     39.763206     79.526413
     -4.409409     36.628438     36.628438     73.256877
     -4.399399     33.951257     33.951257     67.902514
     -4.389389     32.027952     32.027952     64.055905
     -4.379379     30.973408     30.973408     61.946815
     -4.369369     30.741494     30.741494     61.482987
     -4.359359     31.164113     31.164113     62.328225
     -4.349349     31.997808     31.997808     63.995616
     -4.339339     32.978469     32.978469     65.956938
     -4.329329     33.884915     33.884915     67.769831
     -4.319319     34.600749     34.600749     69.201498
     -4.309309     35.152490     35.152490     70.304979
     -4.299299     35.703062     35.703062     71.406123
     -4.289289     36.494334     36.494334     72.988668
     -4.279279     37.750712     37.750712     75.501423
     -4.269269     39.568621     39.568621     79.137243
     -4.259259     41.824343     41.824343     83.648686
     -4.249249     44.138466     44.138466     88.276933
     -4.239239     45.933179     45.933179     91.866358
     -4.229229     46.593606     46.593606     93.187212
     -4.219219     45.692609     45.692609     91.385219
     -4.209209     43.185074     43.185074     86.370148
     -4.199199     39.466944     39.466944     78.933887
     -4.189189     35.250728     35.250728     70.501456
     -4.179179     31.307367     31.307367     62.614733
     -4.169169     28.200662     28.200662     56.401324
     -4.159159     26.142422     26.142422     52.284845
     -4.149149     25.024428     25.024428     50.048856
     -4.139139     24.586884     24.586884     49.173768
     -4.129129     24.619455     24.619455     49.238910
     -4.119119     25.086758     25.086758     50.173516
     -4.109109     26.116065     26.116065     52.232130
     -4.099099     27.854974     27.854974     55.709949
     -4.089089     30.274219     30.274219     60.548438
     -4.079079     33.029098     33.029098     66.058197
     -4.069069     35.477855     35.477855     70.955711
     -4.059059     36.880519     36.880519     73.761037
     -4.049049     36.698444     36.698444     73.396889
     -4.039039     34.844701     34.844701     69.689401
     -4.029029     31.750765     31.750765     63.501530
     -4.019019     28.214137     28.214137     56.428274
     -4.009009     25.112514     25.112514     50.225027
     -3.998999     23.134067     23.134067     46.268133
     -3.988989     22.642278     22.642278     45.284555
     -3.978979     23.697592     23.697592     47.395185
     -3.968969     26.167998     26.167998     52.335995
     -3.958959     29.834294     29.834294     59.668587
     -3.948949     34.438013     34.438013     68.876025
     -3.938939     39.685675     39.685675     79.371349
     -3.928929     45.257527     45.257527     90.515053
     -3.918919     50.850059     50.850059    101.700118
     -3.908909     56.233144     56.233144    112.466287
     -3.898899     61.270230     61.270230    122.540460
     -3.888889     65.863532     65.863532    131.727065
     -3.878879     69.838165     69.838165    139.676330
     -3.868869     72.833367     72.833367    145.666734
     -3.858859     74.286286     74.286286    148.572572
     -3.848849     73.557169     73.557169    147.114338
     -3.838839     70.169587     70.169587    140.339175
     -3.828829     64.066199     64.066199    128.132398
     -3.818819     55.754241     55.754241    111.508481
     -3.808809     46.256079     46.256079     92.512158
     -3.798799     36.869152     36.869152     73.738303
     -3.788789     28.826460     28.826460     57.652920
     -3.778779     22.986203     22.986203     45.972406
     -3.768769     19.653637     19.653637     39.307275
     -3.758759     18.574364     18.574364     37.148728
     -3.748749     19.075293     19.075293     38.150586
     -3.738739     20.293452     20.293452     40.586904
     -3.728729     21.425485     21.425485     42.850970
     -3.718719     21.939584     21.939584     43.879169
     -3.708709     21.705180     21.705180     43.410359
     -3.698699     21.010865     21.010865     42.021730
     -3.688689     20.461122     20.461122     40.922244
     -3.678679     20.770444     20.770444     41.540889
     -3.668669     22.506804     22.506804     45.013609
     -3.658659     25.863994     25.863994     51.727988
     -3.648649     30.547329     30.547329     61.094659
     -3.638639     35.826073     35.826073     71.652146
     -3.628629     40.742168     40.742168     81.484336
     -3.618619     44.395735     44.395735     88.791469
     -3.608609     46.192922     46.192922     92.385844
     -3.598599     45.965465     45.965465     91.930929
     -3.588589     43.940034     43.940034     87.880069
     -3.578579     40.604089     40.604089     81.208178
     -3.568569     36.541972     36.541972     73.083943
     -3.558559     32.295565     32.295565     64.591130
     -3.548549     28.268507     28.268507     56.537013
     -3.538539     24.674606     24.674606     49.349212
     -3.528529     21.534212     21.534212     43.068424
     -3.518519     18.725260     18.725260     37.450520
     -3.508509     16.080422     16.080422     32.160845
     -3.498498     13.495412     13.495412     26.990825
     -3.488488     11.000777     11.000777     22.001555
     -3.478478      8.765689      8.765689     17.531379
     -3.468468      7.036975      7.036975     14.073951
     -3.458458      6.045105      6.045105     12.090210
     -3.448448      5.915286      5.915286     11.830571
     -3.438438      6.610920      6.610920     13.221840
     -3.428428      7.923438      7.923438     15.846876
     -3.418418      9.514417      9.514417     19.028834
     -3.408408     11.007287     11.007287     22.014574
     -3.398398     12.109102     12.109102     24.218205
     -3.388388     12.722094     12.722094     25.444189
     -3.378378     12.996654     12.996654     25.993308
     -3.368368     13.295608     13.295608     26.591216
     -3.358358     14.078763     14.078763     28.157526
     -3.348348     15.752820     15.752820     31.505640
     -3.338338     18.540870     18.540870     37.081741
     -3.328328     22.404746     22.404746     44.809492
     -3.318318     27.023534     27.023534     54.047069
     -3.308308     31.818870     31.818870     63.637739
     -3.298298     36.028068     36.028068     72.056136
     -3.288288     38.837899     38.837899     77.675797
     -3.278278     39.576621     39.576621     79.153243
     -3.268268     37.917942     37.917942     75.835884
     -3.258258     34.011935     34.011935     68.023870
     -3.248248     28.467326     28.467326     56.934652
     -3.238238     22.175026     22.175026     44.350052
     -3.228228     16.044855     16.044855     32.089709
     -3.218218     10.769269     10.769269     21.538539
     -3.208208      6.703344      6.703344     13.406687
     -3.198198      3.881973      3.881973      7.763947
     -3.188188      2.131628      2.131628      4.263257
     -3.178178      1.209217      1.209217      2.418433
     -3.168168      0.915312      0.915312      1.830625
     -3.158158      1.159726      1.159726      2.319451
     -3.148148      1.980474      1.980474      3.960949
     -3.138138      3.523992      3.523992      7.047984
     -3.128128      5.991481      5.991481     11.982962
     -3.118118      9.555773      9.555773     19.111546
     -3.108108     14.262007     14.262007     28.524014
     -3.098098     19.940640     19.940640     39.881279
     -3.088088     26.170766     26.170766     52.341532
     -3.078078     32.322920     32.322920     64.645839
     -3.068068     37.681010     37.681010     75.362021
     -3.058058     41.605860     41.605860     83.211719
     -3.048048     43.680395     43.680395     87.360790
     -3.038038     43.785397     43.785397     87.570794
     -3.028028     42.090973     42.090973     84.181946
     -3.018018     38.988975     38.988975     77.977950
     -3.008008     35.008928     35.008928     70.017857
     -2.997998     30.746390     30.746390     61.492780
     -2.987988     26.804615     26.804615     53.609231
     -2.977978     23.734344     23.734344     47.468687
     -2.967968     21.965039     21.965039     43.930077
     -2.957958     21.742025     21.742025     43.484051
     -2.947948     23.093822     23.093822     46.187645
     -2.937938     25.840836     25.840836     51.681673
     -2.927928     29.632844     29.632844     59.265688
     -2.917918     33.992523     33.992523     67.985047
     -2.907908     38.356652     38.356652     76.713305
     -2.897898     42.130416     42.130416     84.260833
     -2.887888     44.775945     44.775945     89.551890
     -2.877878     45.931085     45.931085     91.862171
     -2.867868     45.515630     45.515630     91.031260
     -2.857858     43.763930     43.763930     87.527860
     -2.847848     41.146833     41.146833     82.293666
     -2.837838     38.202289     38.202289     76.404578
     -2.827828     35.347460     35.347460     70.694920
     -2.817818     32.760349     32.760349     65.520698
     -2.807808     30.384552     30.384552     60.769104
     -2.797798     28.045844     28.045844     56.091688
     -2.787788     25.610947     25.610947     51.221894
     -2.777778     23.099733     23.099733     46.199466
     -2.767768     20.692600     20.692600     41.385201
     -2.757758     18.637290     18.637290     37.274580
     -2.747748     17.118118     17.118118     34.236236
     -2.737738     16.171054     16.171054     32.342107
     -2.727728     15.697279     15.697279     31.394557
     -2.717718     15.563515     15.563515     31.127030
     -2.707708     15.719363     15.719363     31.438725
     -2.697698     16.248228     16.248228     32.496455
     -2.687688     17.310480     17.310480     34.620959
     -2.677678     19.010038     19.010038     38.020076
     -2.667668     21.271334     21.271334     42.542668
     -2.657658     23.813513     23.813513     47.627026
     -2.647648     26.249397     26.249397     52.498795
     -2.637638     28.255219     28.255219     56.510438
     -2.627628     29.708653     29.708653     59.417307
     -2.617618     30.712389     30.712389     61.424779
     -2.607608     31.495980     31.495980     62.991960
     -2.597598     32.266083     32.266083     64.532166
     -2.587588     33.098572     33.098572     66.197144
     -2.577578     33.922062     33.922062     67.844125
     -2.567568     34.571652     34.571652     69.143304
     -2.557558     34.853259     34.853259     69.706518
     -2.547548     34.579273     34.579273     69.158545
     -2.537538     33.586930     33.586930     67.173861
     -2.527528     31.778078     31.778078     63.556157
     -2.517518     29.195004     29.195004     58.390009
     -2.507508     26.095378     26.095378     52.190757
     -2.497497     22.960775     22.960775     45.921551
     -2.487487     20.398165     20.398165     40.796330
     -2.477477     18.956788     18.956788     37.913576
     -2.467467     18.939075     18.939075     37.878149
     -2.457457     20.296326     20.296326     40.592652
     -2.447447     22.661905     22.661905     45.323810
     -2.437437     25.509367     25.509367     51.018733
     -2.427427     28.363742     28.363742     56.727485
     -2.417417     30.968506     30.968506     61.937013
     -2.407407     33.330469     33.330469     66.660939
     -2.397397     35.622022     35.622022     71.244044
     -2.387387     37.989269     37.989269     75.978538
     -2.377377     40.363170     40.363170     80.726340
     -2.367367     42.374638     42.374638     84.749276
     -2.357357     43.429540     43.429540     86.859080
     -2.347347     42.924320     42.924320     85.848640
     -2.337337     40.511998     40.511998     81.023996
     -2.327327     36.297968     36.297968     72.595936
     -2.317317     30.874168     30.874168     61.748335
     -2.307307     25.175627     25.175627     50.351254
     -2.297297     20.223744     20.223744     40.447488
     -2.287287     16.861778     16.861778     33.723555
     -2.277277     15.573444     15.573444     31.146888
     -2.267267     16.424419     16.424419     32.848838
     -2.257257     19.114553     19.114553     38.229107
     -2.247247     23.099304     23.099304     46.198609
     -2.237237     27.732971     27.732971     55.465942
     -2.227227     32.392909     32.392909     64.785817
     -2.217217     36.556545     36.556545     73.113090
     -2.207207     39.822928     39.822928     79.645856
     -2.197197     41.896468     41.896468     83.792935
     -2.187187     42.570350     42.570350     85.140700
     -2.177177     41.743821     41.743821     83.487642
     -2.167167     39.475974     39.475974     78.951949
     -2.157157     36.036958     36.036958     72.073916
     -2.147147     31.898495     31.898495     63.796991
     -2.137137     27.631337     27.631337     55.262674
     -2.127127     23.736634     23.736634     47.473268
     -2.117117     20.490271     20.490271     40.980543
     -2.107107     17.883108     17.883108     35.766216
     -2.097097     15.688706     15.688706     31.377412
     -2.087087     13.617316     13.617316     27.234632
     -2.077077     11.470002     11.470002     22.940004
     -2.067067      9.217128      9.217128     18.434257
     -2.057057      6.978276      6.978276     13.956552
     -2.047047      4.936752      4.936752      9.873504
     -2.037037      3.246962      3.246962      6.493925
     -2.027027      1.979835      1.979835      3.959670
     -2.017017      1.118586      1.118586      2.237173
     -2.007007      0.589305      0.589305      1.178610
     -1.996997      0.301525      0.301525      0.603049
     -1.986987      0.180851      0.180851      0.361703
     -1.976977      0.188026      0.188026      0.376051
     -1.966967      0.327162      0.327162      0.654324
     -1.956957      0.647094      0.647094      1.294188
     -1.946947      1.235936      1.235936      2.471873
     -1.936937      2.204856      2.204856      4.409712
     -1.926927      3.657122      3.657122      7.314245
     -1.916917      5.644786      5.644786     11.289571
     -1.906907      8.125334      8.125334     16.250667
     -1.896897     10.937716     10.937716     21.875431
     -1.886887     13.814284     13.814284     27.628569
     -1.876877     16.431516     16.431516     32.863033
     -1.866867     18.485217     18.485217     36.970434
     -1.856857     19.765725     19.765725     39.531449
     -1.846847     20.209940     20.209940     40.419880
     -1.836837     19.915272     19.915272     39.830544
     -1.826827     19.109255     19.109255     38.218510
     -1.816817     18.077450     18.077450     36.154900
     -1.806807     17.066125     17.066125     34.132250
     -1.796797     16.193688     16.193688     32.387376
     -1.786787     15.412780     15.412780     30.825561
     -1.776777     14.548698     14.548698     29.097397
     -1.766767     13.401416     13.401416     26.802833
     -1.756757     11.861334     11.861334     23.722669
     -1.746747      9.980544      9.980544     19.961087
     -1.736737      7.969342      7.969342     15.938684
     -1.726727      6.131622      6.131622     12.263243
     -1.716717      4.781320      4.781320      9.562640
     -1.706707      4.178418      4.178418      8.356837
     -1.696697      4.495843      4.495843      8.991686
     -1.686687      5.802547      5.802547     11.605093
     -1.676677      8.042781      8.042781     16.085562
     -1.666667     11.008517     11.008517     22.017033
     -1.656657     14.325467     14.325467     28.650935
     -1.646647     17.483225     17.483225     34.966449
     -1.636637     19.926155     19.926155     39.852310
     -1.626627     21.190261     21.190261     42.380522
