# EIG2DOS: Utility for SIESTA to obtain the electronic density of states
#  E. Artacho, Apr 1999, A. Garcia, Apr 2012
#  Nick R. Papior, Feb 2017
# ------------------------------------------
# Eigenvalues calculated from a non-polarized calculation
# Eigenvalues read from siesta.EIG
# Kpoint weights read from siesta.KP
# Using smearing parameter:   0.0500
# Using 1000 points in the energy range
# Selected bands: 1 to: 2981
# Emin, Emax in file for selected band(s):    -27.3000724    218.3781770
# Nbands, Nspin, Nk   =   2981     1     1
# E_F                 =    -4.2269 eV --> (shifted to ZERO)
# Broadening          =     0.0500 eV
#
#        E            N(up)  (=)   N(down)         Ntot
     -5.000000     35.847177     35.847177     71.694354
     -4.989990     39.842771     39.842771     79.685541
     -4.979980     42.935084     42.935084     85.870169
     -4.969970     44.627737     44.627737     89.255474
     -4.959960     44.653679     44.653679     89.307358
     -4.949950     43.061637     43.061637     86.123273
     -4.939940     40.211487     40.211487     80.422974
     -4.929930     36.700021     36.700021     73.400043
     -4.919920     33.259971     33.259971     66.519942
     -4.909910     30.661124     30.661124     61.322247
     -4.899900     29.609192     29.609192     59.218384
     -4.889890     30.618634     30.618634     61.237269
     -4.879880     33.854526     33.854526     67.709053
     -4.869870     38.989119     38.989119     77.978239
     -4.859860     45.161186     45.161186     90.322371
     -4.849850     51.115213     51.115213    102.230425
     -4.839840     55.520852     55.520852    111.041703
     -4.829830     57.369770     57.369770    114.739541
     -4.819820     56.285174     56.285174    112.570347
     -4.809810     52.606812     52.606812    105.213624
     -4.799800     47.221228     47.221228     94.442456
     -4.789790     41.229339     41.229339     82.458678
     -4.779780     35.608039     35.608039     71.216077
     -4.769770     30.997980     30.997980     61.995959
     -4.759760     27.663710     27.663710     55.327419
     -4.749750     25.584422     25.584422     51.168845
     -4.739740     24.589843     24.589843     49.179686
     -4.729730     24.464285     24.464285     48.928571
     -4.719720     24.982123     24.982123     49.964247
     -4.709710     25.884686     25.884686     51.769372
     -4.699700     26.844247     26.844247     53.688493
     -4.689690     27.472231     27.472231     54.944463
     -4.679680     27.406800     27.406800     54.813600
     -4.669670     26.464562     26.464562     52.929123
     -4.659660     24.788797     24.788797     49.577594
     -4.649650     22.906870     22.906870     45.813739
     -4.639640     21.639132     21.639132     43.278265
     -4.629630     21.865437     21.865437     43.730875
     -4.619620     24.219572     24.219572     48.439144
     -4.609610     28.818977     28.818977     57.637954
     -4.599600     35.136581     35.136581     70.273163
     -4.589590     42.083930     42.083930     84.167859
     -4.579580     48.305032     48.305032     96.610063
     -4.569570     52.595088     52.595088    105.190177
     -4.559560     54.292491     54.292491    108.584981
     -4.549550     53.486736     53.486736    106.973472
     -4.539540     50.954532     50.954532    101.909064
     -4.529530     47.851968     47.851968     95.703936
     -4.519520     45.292887     45.292887     90.585775
     -4.509510     43.981621     43.981621     87.963241
     -4.499499     44.030023     44.030023     88.060047
     -4.489489     45.001628     45.001628     90.003257
     -4.479479     46.134306     46.134306     92.268612
     -4.469469     46.634804     46.634804     93.269608
     -4.459459     45.931066     45.931066     91.862132
     -4.449449     43.805999     43.805999     87.611999
     -4.439439     40.397225     40.397225     80.794450
     -4.429429     36.102074     36.102074     72.204149
     -4.419419     31.451869     31.451869     62.903738
     -4.409409     27.006849     27.006849     54.013697
     -4.399399     23.286641     23.286641     46.573282
     -4.389389     20.718485     20.718485     41.436970
     -4.379379     19.580115     19.580115     39.160229
     -4.369369     19.937928     19.937928     39.875856
     -4.359359     21.611389     21.611389     43.222778
     -4.349349     24.202448     24.202448     48.404895
     -4.339339     27.202532     27.202532     54.405064
     -4.329329     30.145418     30.145418     60.290835
     -4.319319     32.743237     32.743237     65.486474
     -4.309309     34.946903     34.946903     69.893806
     -4.299299     36.907581     36.907581     73.815163
     -4.289289     38.858927     38.858927     77.717854
     -4.279279     40.967488     40.967488     81.934977
     -4.269269     43.205051     43.205051     86.410103
     -4.259259     45.289762     45.289762     90.579524
     -4.249249     46.728618     46.728618     93.457236
     -4.239239     46.967189     46.967189     93.934377
     -4.229229     45.608404     45.608404     91.216808
     -4.219219     42.615209     42.615209     85.230418
     -4.209209     38.395517     38.395517     76.791033
     -4.199199     33.708647     33.708647     67.417294
     -4.189189     29.419095     29.419095     58.838191
     -4.179179     26.206325     26.206325     52.412650
     -4.169169     24.365006     24.365006     48.730011
     -4.159159     23.781966     23.781966     47.563932
     -4.149149     24.084736     24.084736     48.169472
     -4.139139     24.874538     24.874538     49.749076
     -4.129129     25.923262     25.923262     51.846525
     -4.119119     27.238394     27.238394     54.476788
     -4.109109     28.966707     28.966707     57.933414
     -4.099099     31.189160     31.189160     62.378321
     -4.089089     33.722326     33.722326     67.444652
     -4.079079     36.052017     36.052017     72.104034
     -4.069069     37.465196     37.465196     74.930391
     -4.059059     37.337351     37.337351     74.674702
     -4.049049     35.434611     35.434611     70.869222
     -4.039039     32.068569     32.068569     64.137139
     -4.029029     28.018197     28.018197     56.036393
     -4.019019     24.261372     24.261372     48.522745
     -4.009009     21.656286     21.656286     43.312573
     -3.998999     20.721473     20.721473     41.442945
     -3.988989     21.587319     21.587319     43.174637
     -3.978979     24.090015     24.090015     48.180029
     -3.968969     27.916905     27.916905     55.833810
     -3.958959     32.719071     32.719071     65.438143
     -3.948949     38.161617     38.161617     76.323233
     -3.938939     43.935488     43.935488     87.870975
     -3.928929     49.768158     49.768158     99.536316
     -3.918919     55.443144     55.443144    110.886288
     -3.908909     60.803638     60.803638    121.607276
     -3.898899     65.710446     65.710446    131.420892
     -3.888889     69.957348     69.957348    139.914696
     -3.878879     73.191441     73.191441    146.382883
     -3.868869     74.904084     74.904084    149.808168
     -3.858859     74.531200     74.531200    149.062401
     -3.848849     71.643839     71.643839    143.287678
     -3.838839     66.155384     66.155384    132.310769
     -3.828829     58.452214     58.452214    116.904428
     -3.818819     49.380657     49.380657     98.761315
     -3.808809     40.081245     40.081245     80.162490
     -3.798799     31.722727     31.722727     63.445455
     -3.788789     25.225050     25.225050     50.450100
     -3.778779     21.059008     21.059008     42.118017
     -3.768769     19.176822     19.176822     38.353643
     -3.758759     19.081550     19.081550     38.163100
     -3.748749     20.003703     20.003703     40.007406
     -3.738739     21.130902     21.130902     42.261803
     -3.728729     21.831129     21.831129     43.662258
     -3.718719     21.816752     21.816752     43.633505
     -3.708709     21.210542     21.210542     42.421084
     -3.698699     20.494695     20.494695     40.989390
     -3.688689     20.349707     20.349707     40.699413
     -3.678679     21.420517     21.420517     42.841034
     -3.668669     24.076149     24.076149     48.152298
     -3.658659     28.243300     28.243300     56.486600
     -3.648649     33.380297     33.380297     66.760594
     -3.638639     38.611257     38.611257     77.222514
     -3.628629     42.975966     42.975966     85.951932
     -3.618619     45.700538     45.700538     91.401075
     -3.608609     46.387651     46.387651     92.775302
     -3.598599     45.068697     45.068697     90.137394
     -3.588589     42.126336     42.126336     84.252672
     -3.578579     38.143714     38.143714     76.287428
     -3.568569     33.742982     33.742982     67.485964
     -3.558559     29.452021     29.452021     58.904041
     -3.548549     25.614200     25.614200     51.228401
     -3.538539     22.349302     22.349302     44.698604
     -3.528529     19.575621     19.575621     39.151242
     -3.518519     17.093860     17.093860     34.187719
     -3.508509     14.707878     14.707878     29.415757
     -3.498498     12.333870     12.333870     24.667740
     -3.488488     10.050622     10.050622     20.101244
     -3.478478      8.072560      8.072560     16.145120
     -3.468468      6.664387      6.664387     13.328773
     -3.458458      6.037388      6.037388     12.074777
     -3.448448      6.265405      6.265405     12.530810
     -3.438438      7.244157      7.244157     14.488314
     -3.428428      8.705058      8.705058     17.410116
     -3.418418     10.286001     10.286001     20.572002
     -3.408408     11.648978     11.648978     23.297955
     -3.398398     12.613895     12.613895     25.227791
     -3.388388     13.259350     13.259350     26.518701
     -3.378378     13.941232     13.941232     27.882465
     -3.368368     15.206428     15.206428     30.412855
     -3.358358     17.620295     17.620295     35.240591
     -3.348348     21.560844     21.560844     43.121688
     -3.338338     27.043886     27.043886     54.087772
     -3.328328     33.632817     33.632817     67.265634
     -3.318318     40.465556     40.465556     80.931112
     -3.308308     46.407428     46.407428     92.814856
     -3.298298     50.309840     50.309840    100.619680
     -3.288288     51.317268     51.317268    102.634536
     -3.278278     49.129822     49.129822     98.259644
     -3.268268     44.121125     44.121125     88.242250
     -3.258258     37.251820     37.251820     74.503641
     -3.248248     29.798635     29.798635     59.597270
     -3.238238     22.996894     22.996894     45.993789
     -3.228228     17.726117     17.726117     35.452234
     -3.218218     14.339171     14.339171     28.678342
     -3.208208     12.669148     12.669148     25.338296
     -3.198198     12.183635     12.183635     24.367270
     -3.188188     12.218512     12.218512     24.437025
     -3.178178     12.214535     12.214535     24.429071
     -3.168168     11.890668     11.890668     23.781337
     -3.158158     11.311467     11.311467     22.622934
     -3.148148     10.837811     10.837811     21.675622
     -3.138138     10.983602     10.983602     21.967204
     -3.128128     12.225073     12.225073     24.450146
     -3.118118     14.817936     14.817936     29.635871
     -3.108108     18.673253     18.673253     37.346505
     -3.098098     23.330843     23.330843     46.661686
     -3.088088     28.048666     28.048666     56.097331
     -3.078078     31.993531     31.993531     63.987063
     -3.068068     34.476561     34.476561     68.953121
     -3.058058     35.146188     35.146188     70.292376
     -3.048048     34.058476     34.058476     68.116953
     -3.038038     31.597650     31.597650     63.195299
     -3.028028     28.294514     28.294514     56.589028
     -3.018018     24.640725     24.640725     49.281451
     -3.008008     20.988744     20.988744     41.977488
     -2.997998     17.566938     17.566938     35.133877
     -2.987988     14.569081     14.569081     29.138162
     -2.977978     12.242550     12.242550     24.485100
     -2.967968     10.914548     10.914548     21.829095
     -2.957958     10.939579     10.939579     21.879158
     -2.947948     12.591633     12.591633     25.183266
     -2.937938     15.943423     15.943423     31.886845
     -2.927928     20.775916     20.775916     41.551832
     -2.917918     26.554439     26.554439     53.108877
     -2.907908     32.495024     32.495024     64.990048
     -2.897898     37.721278     37.721278     75.442557
     -2.887888     41.477159     41.477159     82.954317
     -2.877878     43.327610     43.327610     86.655221
     -2.867868     43.268280     43.268280     86.536560
     -2.857858     41.692171     41.692171     83.384342
     -2.847848     39.219547     39.219547     78.439094
     -2.837838     36.460790     36.460790     72.921580
     -2.827828     33.815745     33.815745     67.631490
     -2.817818     31.395638     31.395638     62.791275
     -2.807808     29.091168     29.091168     58.182336
     -2.797798     26.735668     26.735668     53.471335
     -2.787788     24.266693     24.266693     48.533386
     -2.777778     21.798443     21.798443     43.596886
     -2.767768     19.574838     19.574838     39.149675
     -2.757758     17.844625     17.844625     35.689249
     -2.747748     16.743103     16.743103     33.486207
     -2.737738     16.254369     16.254369     32.508739
     -2.727728     16.270653     16.270653     32.541305
     -2.717718     16.698261     16.698261     33.396521
     -2.707708     17.527694     17.527694     35.055388
     -2.697698     18.812029     18.812029     37.624058
     -2.687688     20.566566     20.566566     41.133131
     -2.677678     22.666237     22.666237     45.332473
     -2.667668     24.827684     24.827684     49.655369
     -2.657658     26.708197     26.708197     53.416394
     -2.647648     28.069682     28.069682     56.139363
     -2.637638     28.903331     28.903331     57.806663
     -2.627628     29.430433     29.430433     58.860867
     -2.617618     29.975017     29.975017     59.950035
     -2.607608     30.786778     30.786778     61.573556
     -2.597598     31.918036     31.918036     63.836071
     -2.587588     33.211802     33.211802     66.423605
     -2.577578     34.380527     34.380527     68.761054
     -2.567568     35.108152     35.108152     70.216303
     -2.557558     35.121679     35.121679     70.243358
     -2.547548     34.228672     34.228672     68.457343
     -2.537538     32.352266     32.352266     64.704531
     -2.527528     29.584124     29.584124     59.168249
     -2.517518     26.233750     26.233750     52.467501
     -2.507508     22.823609     22.823609     45.647217
     -2.497497     19.994136     19.994136     39.988272
     -2.487487     18.332737     18.332737     36.665474
     -2.477477     18.190386     18.190386     36.380772
     -2.467467     19.565690     19.565690     39.131379
     -2.457457     22.110941     22.110941     44.221882
     -2.447447     25.262813     25.262813     50.525625
     -2.437437     28.446713     28.446713     56.893426
     -2.427427     31.270963     31.270963     62.541927
     -2.417417     33.628481     33.628481     67.256962
     -2.407407     35.660672     35.660672     71.321344
     -2.397397     37.597674     37.597674     75.195349
     -2.387387     39.547386     39.547386     79.094771
     -2.377377     41.336949     41.336949     82.673898
     -2.367367     42.496120     42.496120     84.992240
     -2.357357     42.410739     42.410739     84.821477
     -2.347347     40.589397     40.589397     81.178795
     -2.337337     36.920903     36.920903     73.841806
     -2.327327     31.796170     31.796170     63.592340
     -2.317317     26.034418     26.034418     52.068837
     -2.307307     20.652037     20.652037     41.304074
     -2.297297     16.582640     16.582640     33.165279
     -2.287287     14.460278     14.460278     28.920556
     -2.277277     14.524692     14.524692     29.049385
     -2.267267     16.641967     16.641967     33.283934
     -2.257257     20.395341     20.395341     40.790681
     -2.247247     25.198245     25.198245     50.396491
     -2.237237     30.398623     30.398623     60.797246
     -2.227227     35.360963     35.360963     70.721926
     -2.217217     39.523307     39.523307     79.046614
     -2.207207     42.433947     42.433947     84.867893
     -2.197197     43.779165     43.779165     87.558331
     -2.187187     43.414667     43.414667     86.829333
     -2.177177     41.402490     41.402490     82.804980
     -2.167167     38.034290     38.034290     76.068580
     -2.157157     33.806417     33.806417     67.612833
     -2.147147     29.321985     29.321985     58.643969
     -2.137137     25.133943     25.133943     50.267886
     -2.127127     21.588684     21.588684     43.177369
     -2.117117     18.746010     18.746010     37.492020
     -2.107107     16.418741     16.418741     32.837481
     -2.097097     14.310804     14.310804     28.621607
     -2.087087     12.179163     12.179163     24.358325
     -2.077077      9.938369      9.938369     19.876739
     -2.067067      7.668017      7.668017     15.336035
     -2.057057      5.541233      5.541233     11.082466
     -2.047047      3.728489      3.728489      7.456978
     -2.037037      2.328838      2.328838      4.657676
     -2.027027      1.351566      1.351566      2.703131
     -2.017017      0.740081      0.740081      1.480161
     -2.007007      0.414643      0.414643      0.829286
     -1.996997      0.313205      0.313205      0.626410
     -1.986987      0.420618      0.420618      0.841235
     -1.976977      0.784802      0.784802      1.569605
     -1.966967      1.519298      1.519298      3.038597
     -1.956957      2.787291      2.787291      5.574582
     -1.946947      4.759795      4.759795      9.519589
     -1.936937      7.546954      7.546954     15.093908
     -1.926927     11.117719     11.117719     22.235439
     -1.916917     15.241425     15.241425     30.482849
     -1.906907     19.489982     19.489982     38.979965
     -1.896897     23.319981     23.319981     46.639963
     -1.886887     26.214641     26.214641     52.429282
     -1.876877     27.829649     27.829649     55.659297
     -1.866867     28.080906     28.080906     56.161811
     -1.856857     27.142837     27.142837     54.285674
     -1.846847     25.371572     25.371572     50.743144
     -1.836837     23.195417     23.195417     46.390833
     -1.826827     21.011184     21.011184     42.022369
     -1.816817     19.103898     19.103898     38.207797
     -1.806807     17.594654     17.594654     35.189307
     -1.796797     16.425528     16.425528     32.851057
     -1.786787     15.395530     15.395530     30.791061
     -1.776777     14.248591     14.248591     28.497181
     -1.766767     12.785540     12.785540     25.571080
     -1.756757     10.950755     10.950755     21.901509
     -1.746747      8.852802      8.852802     17.705605
     -1.736737      6.714651      6.714651     13.429302
     -1.726727      4.787292      4.787292      9.574583
     -1.716717      3.274678      3.274678      6.549355
     -1.706707      2.301365      2.301365      4.602730
     -1.696697      1.922440      1.922440      3.844880
     -1.686687      2.150405      2.150405      4.300811
     -1.676677      2.968950      2.968950      5.937901
     -1.666667      4.318480      4.318480      8.636960
     -1.656657      6.062495      6.062495     12.124990
     -1.646647      7.963565      7.963565     15.927130
     -1.636637      9.700679      9.700679     19.401357
     -1.626627     10.941716     10.941716     21.883433
