# EIG2DOS: Utility for SIESTA to obtain the electronic density of states
#  E. Artacho, Apr 1999, A. Garcia, Apr 2012
#  Nick R. Papior, Feb 2017
# ------------------------------------------
# Eigenvalues calculated from a non-polarized calculation
# Eigenvalues read from siesta.EIG
# Kpoint weights read from siesta.KP
# Using smearing parameter:   0.0500
# Using 1000 points in the energy range
# Selected bands: 1 to: 2981
# Emin, Emax in file for selected band(s):    -27.2378407    218.3668190
# Nbands, Nspin, Nk   =   2981     1     1
# E_F                 =    -4.2322 eV --> (shifted to ZERO)
# Broadening          =     0.0500 eV
#
#        E            N(up)  (=)   N(down)         Ntot
     -5.000000     32.112259     32.112259     64.224517
     -4.989990     36.628331     36.628331     73.256661
     -4.979980     40.817992     40.817992     81.635985
     -4.969970     44.006274     44.006274     88.012547
     -4.959960     45.617698     45.617698     91.235396
     -4.949950     45.364285     45.364285     90.728570
     -4.939940     43.349581     43.349581     86.699162
     -4.929930     40.057785     40.057785     80.115570
     -4.919920     36.250628     36.250628     72.501256
     -4.909910     32.821219     32.821219     65.642438
     -4.899900     30.641412     30.641412     61.282824
     -4.889890     30.408501     30.408501     60.817003
     -4.879880     32.485004     32.485004     64.970008
     -4.869870     36.750990     36.750990     73.501980
     -4.859860     42.531529     42.531529     85.063057
     -4.849850     48.676281     48.676281     97.352562
     -4.839840     53.821946     53.821946    107.643892
     -4.829830     56.775604     56.775604    113.551208
     -4.819820     56.875253     56.875253    113.750505
     -4.809810     54.172950     54.172950    108.345901
     -4.799800     49.362704     49.362704     98.725408
     -4.789790     43.497092     43.497092     86.994183
     -4.779780     37.630298     37.630298     75.260595
     -4.769770     32.538035     32.538035     65.076070
     -4.759760     28.599904     28.599904     57.199808
     -4.749750     25.837795     25.837795     51.675591
     -4.739740     24.041580     24.041580     48.083160
     -4.729730     22.904293     22.904293     45.808587
     -4.719720     22.118976     22.118976     44.237951
     -4.709710     21.428414     21.428414     42.856829
     -4.699700     20.646095     20.646095     41.292190
     -4.689690     19.674490     19.674490     39.348979
     -4.679680     18.536437     18.536437     37.072874
     -4.669670     17.412907     17.412907     34.825814
     -4.659660     16.658867     16.658867     33.317734
     -4.649650     16.764204     16.764204     33.528408
     -4.639640     18.245751     18.245751     36.491502
     -4.629630     21.489875     21.489875     42.979750
     -4.619620     26.593097     26.593097     53.186194
     -4.609610     33.256346     33.256346     66.512692
     -4.599600     40.776059     40.776059     81.552118
     -4.589590     48.150571     48.150571     96.301143
     -4.579580     54.290094     54.290094    108.580188
     -4.569570     58.286021     58.286021    116.572042
     -4.559560     59.665880     59.665880    119.331759
     -4.549550     58.546917     58.546917    117.093834
     -4.539540     55.619408     55.619408    111.238816
     -4.529530     51.944273     51.944273    103.888547
     -4.519520     48.621823     48.621823     97.243647
     -4.509510     46.446735     46.446735     92.893471
     -4.499499     45.677389     45.677389     91.354779
     -4.489489     46.004194     46.004194     92.008388
     -4.479479     46.719167     46.719167     93.438335
     -4.469469     47.006585     47.006585     94.013170
     -4.459459     46.231604     46.231604     92.463208
     -4.449449     44.119362     44.119362     88.238724
     -4.439439     40.779368     40.779368     81.558736
     -4.429429     36.604016     36.604016     73.208032
     -4.419419     32.116996     32.116996     64.233991
     -4.409409     27.846101     27.846101     55.692202
     -4.399399     24.253413     24.253413     48.506827
     -4.389389     21.706300     21.706300     43.412600
     -4.379379     20.450386     20.450386     40.900773
     -4.369369     20.563937     20.563937     41.127874
     -4.359359     21.912976     21.912976     43.825951
     -4.349349     24.151986     24.151986     48.303972
     -4.339339     26.802106     26.802106     53.604212
     -4.329329     29.394621     29.394621     58.789242
     -4.319319     31.623926     31.623926     63.247852
     -4.309309     33.441118     33.441118     66.882236
     -4.299299     35.043677     35.043677     70.087354
     -4.289289     36.760957     36.760957     73.521914
     -4.279279     38.875848     38.875848     77.751697
     -4.269269     41.446949     41.446949     82.893898
     -4.259259     44.201421     44.201421     88.402842
     -4.249249     46.555215     46.555215     93.110429
     -4.239239     47.779075     47.779075     95.558149
     -4.229229     47.267170     47.267170     94.534340
     -4.219219     44.803547     44.803547     89.607093
     -4.209209     40.700230     40.700230     81.400461
     -4.199199     35.727384     35.727384     71.454768
     -4.189189     30.855558     30.855558     61.711115
     -4.179179     26.926562     26.926562     53.853124
     -4.169169     24.403334     24.403334     48.806668
     -4.159159     23.301220     23.301220     46.602441
     -4.149149     23.306592     23.306592     46.613184
     -4.139139     24.001394     24.001394     48.002788
     -4.129129     25.075882     25.075882     50.151765
     -4.119119     26.432644     26.432644     52.865288
     -4.109109     28.143110     28.143110     56.286219
     -4.099099     30.287131     30.287131     60.574263
     -4.089089     32.763615     32.763615     65.527230
     -4.079079     35.183109     35.183109     70.366218
     -4.069069     36.923144     36.923144     73.846288
     -4.059059     37.346219     37.346219     74.692439
     -4.049049     36.085413     36.085413     72.170825
     -4.039039     33.251777     33.251777     66.503554
     -4.029029     29.450141     29.450141     58.900283
     -4.019019     25.591232     25.591232     51.182463
     -4.009009     22.595283     22.595283     45.190565
     -3.998999     21.128856     21.128856     42.257713
     -3.988989     21.479450     21.479450     42.958901
     -3.978979     23.584744     23.584744     47.169487
     -3.968969     27.155468     27.155468     54.310935
     -3.958959     31.807084     31.807084     63.614168
     -3.948949     37.147136     37.147136     74.294272
     -3.938939     42.816759     42.816759     85.633518
     -3.928929     48.514032     48.514032     97.028064
     -3.918919     54.016777     54.016777    108.033554
     -3.908909     59.191655     59.191655    118.383311
     -3.898899     63.960465     63.960465    127.920931
     -3.888889     68.214030     68.214030    136.428060
     -3.878879     71.707205     71.707205    143.414411
     -3.868869     74.001436     74.001436    148.002871
     -3.858859     74.514766     74.514766    149.029533
     -3.848849     72.690573     72.690573    145.381147
     -3.838839     68.230532     68.230532    136.461064
     -3.828829     61.292036     61.292036    122.584072
     -3.818819     52.553179     52.553179    105.106359
     -3.808809     43.101137     43.101137     86.202273
     -3.798799     34.175868     34.175868     68.351735
     -3.788789     26.860977     26.860977     53.721954
     -3.778779     21.828774     21.828774     43.657547
     -3.768769     19.215827     19.215827     38.431653
     -3.758759     18.651331     18.651331     37.302661
     -3.748749     19.411687     19.411687     38.823374
     -3.738739     20.647016     20.647016     41.294032
     -3.728729     21.618700     21.618700     43.237399
     -3.718719     21.893069     21.893069     43.786138
     -3.708709     21.448071     21.448071     42.896143
     -3.698699     20.665720     20.665720     41.331440
     -3.688689     20.205359     20.205359     40.410718
     -3.678679     20.782331     20.782331     41.564661
     -3.668669     22.909461     22.909461     45.818921
     -3.658659     26.683402     26.683402     53.366804
     -3.648649     31.697772     31.697772     63.395544
     -3.638639     37.128326     37.128326     74.256652
     -3.628629     41.968464     41.968464     83.936928
     -3.618619     45.326040     45.326040     90.652080
     -3.608609     46.664373     46.664373     93.328745
     -3.598599     45.902026     45.902026     91.804053
     -3.588589     43.358663     43.358663     86.717327
     -3.578579     39.601084     39.601084     79.202167
     -3.568569     35.265968     35.265968     70.531935
     -3.558559     30.913525     30.913525     61.827050
     -3.548549     26.931305     26.931305     53.862610
     -3.538539     23.490008     23.490008     46.980016
     -3.528529     20.554513     20.554513     41.109025
     -3.518519     17.952414     17.952414     35.904828
     -3.508509     15.484455     15.484455     30.968911
     -3.498498     13.036656     13.036656     26.073311
     -3.488488     10.646462     10.646462     21.292923
     -3.478478      8.496270      8.496270     16.992541
     -3.468468      6.843587      6.843587     13.687174
     -3.458458      5.923041      5.923041     11.846082
     -3.448448      5.858310      5.858310     11.716621
     -3.438438      6.609001      6.609001     13.218002
     -3.428428      7.964291      7.964291     15.928582
     -3.418418      9.588000      9.588000     19.176000
     -3.408408     11.111718     11.111718     22.223436
     -3.398398     12.255801     12.255801     24.511603
     -3.388388     12.937608     12.937608     25.875216
     -3.378378     13.319488     13.319488     26.638976
     -3.368368     13.768979     13.768979     27.537958
     -3.358358     14.743475     14.743475     29.486949
     -3.348348     16.646121     16.646121     33.292241
     -3.338338     19.705338     19.705338     39.410676
     -3.328328     23.906305     23.906305     47.812610
     -3.318318     28.972296     28.972296     57.944593
     -3.308308     34.383286     34.383286     68.766571
     -3.298298     39.432357     39.432357     78.864715
     -3.288288     43.333945     43.333945     86.667890
     -3.278278     45.385475     45.385475     90.770949
     -3.268268     45.146218     45.146218     90.292436
     -3.258258     42.565669     42.565669     85.131338
     -3.248248     38.001891     38.001891     76.003782
     -3.238238     32.119504     32.119504     64.239008
     -3.228228     25.713862     25.713862     51.427725
     -3.218218     19.534504     19.534504     39.069009
     -3.208208     14.165917     14.165917     28.331834
     -3.198198      9.985594      9.985594     19.971188
     -3.188188      7.184740      7.184740     14.369479
     -3.178178      5.820052      5.820052     11.640105
     -3.168168      5.865271      5.865271     11.730542
     -3.158158      7.242276      7.242276     14.484552
     -3.148148      9.827038      9.827038     19.654077
     -3.138138     13.439204     13.439204     26.878409
     -3.128128     17.829324     17.829324     35.658648
     -3.118118     22.673470     22.673470     45.346939
     -3.108108     27.577820     27.577820     55.155640
     -3.098098     32.094902     32.094902     64.189803
     -3.088088     35.759414     35.759414     71.518829
     -3.078078     38.153716     38.153716     76.307432
     -3.068068     38.998789     38.998789     77.997578
     -3.058058     38.239385     38.239385     76.478770
     -3.048048     36.074831     36.074831     72.149662
     -3.038038     32.903042     32.903042     65.806085
     -3.028028     29.192992     29.192992     58.385983
     -3.018018     25.348401     25.348401     50.696801
     -3.008008     21.634745     21.634745     43.269490
     -2.997998     18.202304     18.202304     36.404608
     -2.987988     15.177581     15.177581     30.355161
     -2.977978     12.756600     12.756600     25.513200
     -2.967968     11.239293     11.239293     22.478585
     -2.957958     10.982729     10.982729     21.965457
     -2.947948     12.292474     12.292474     24.584948
     -2.937938     15.294391     15.294391     30.588782
     -2.927928     19.832639     19.832639     39.665279
     -2.917918     25.432566     25.432566     50.865132
     -2.907908     31.353824     31.353824     62.707648
     -2.897898     36.735846     36.735846     73.471692
     -2.887888     40.803863     40.803863     81.607726
     -2.877878     43.070471     43.070471     86.140943
     -2.867868     43.455615     43.455615     86.911230
     -2.857858     42.271522     42.271522     84.543043
     -2.847848     40.073853     40.073853     80.147707
     -2.837838     37.441110     37.441110     74.882219
     -2.827828     34.778719     34.778719     69.557439
     -2.817818     32.231658     32.231658     64.463316
     -2.807808     29.734163     29.734163     59.468326
     -2.797798     27.155629     27.155629     54.311258
     -2.787788     24.455273     24.455273     48.910546
     -2.777778     21.759909     21.759909     43.519818
     -2.767768     19.327603     19.327603     38.655206
     -2.757758     17.427397     17.427397     34.854793
     -2.747748     16.213082     16.213082     32.426164
     -2.737738     15.669208     15.669208     31.338417
     -2.727728     15.659648     15.659648     31.319296
     -2.717718     16.041769     16.041769     32.083538
     -2.707708     16.765199     16.765199     33.530399
     -2.697698     17.883692     17.883692     35.767384
     -2.687688     19.468559     19.468559     38.937117
     -2.677678     21.484029     21.484029     42.968057
     -2.667668     23.718449     23.718449     47.436898
     -2.657658     25.833172     25.833172     51.666343
     -2.647648     27.511460     27.511460     55.022919
     -2.637638     28.617272     28.617272     57.234544
     -2.627628     29.261402     29.261402     58.522803
     -2.617618     29.731306     29.731306     59.462613
     -2.607608     30.329481     30.329481     60.658963
     -2.597598     31.219315     31.219315     62.438629
     -2.587588     32.360238     32.360238     64.720477
     -2.577578     33.544827     33.544827     67.089654
     -2.567568     34.486993     34.486993     68.973986
     -2.557558     34.899536     34.899536     69.799072
     -2.547548     34.538961     34.538961     69.077923
     -2.537538     33.240799     33.240799     66.481597
     -2.527528     30.975227     30.975227     61.950455
     -2.517518     27.916891     27.916891     55.833781
     -2.507508     24.481570     24.481570     48.963140
     -2.497497     21.277606     21.277606     42.555213
     -2.487487     18.960565     18.960565     37.921130
     -2.477477     18.037370     18.037370     36.074740
     -2.467467     18.701717     18.701717     37.403434
     -2.457457     20.775071     20.775071     41.550143
     -2.447447     23.782905     23.782905     47.565811
     -2.437437     27.136682     27.136682     54.273363
     -2.427427     30.344584     30.344584     60.689167
     -2.417417     33.158788     33.158788     66.317576
     -2.407407     35.593359     35.593359     71.186718
     -2.397397     37.806125     37.806125     75.612250
     -2.387387     39.904401     39.904401     79.808802
     -2.377377     41.775619     41.775619     83.551238
     -2.367367     43.037301     43.037301     86.074602
     -2.357357     43.145951     43.145951     86.291902
     -2.347347     41.625388     41.625388     83.250776
     -2.337337     38.310932     38.310932     76.621863
     -2.327327     33.492380     33.492380     66.984760
     -2.317317     27.886190     27.886190     55.772379
     -2.307307     22.450112     22.450112     44.900225
     -2.297297     18.124040     18.124040     36.248079
     -2.287287     15.600981     15.600981     31.201961
     -2.277277     15.199354     15.199354     30.398708
     -2.267267     16.851686     16.851686     33.703371
     -2.257257     20.180607     20.180607     40.361213
     -2.247247     24.616801     24.616801     49.233601
     -2.237237     29.519134     29.519134     59.038269
     -2.227227     34.270840     34.270840     68.541681
     -2.217217     38.339687     38.339687     76.679373
     -2.207207     41.304385     41.304385     82.608770
     -2.197197     42.863300     42.863300     85.726600
     -2.187187     42.848084     42.848084     85.696168
     -2.177177     41.255401     41.255401     82.510803
     -2.167167     38.284742     38.284742     76.569484
     -2.157157     34.345223     34.345223     68.690447
     -2.147147     29.992991     29.992991     59.985981
     -2.137137     25.794342     25.794342     51.588685
     -2.127127     22.161119     22.161119     44.322239
     -2.117117     19.236702     19.236702     38.473404
     -2.107107     16.894102     16.894102     33.788204
     -2.097097     14.847959     14.847959     29.695917
     -2.087087     12.818839     12.818839     25.637677
     -2.077077     10.663939     10.663939     21.327877
     -2.067067      8.416666      8.416666     16.833332
     -2.057057      6.235048      6.235048     12.470097
     -2.047047      4.305691      4.305691      8.611382
     -2.037037      2.760360      2.760360      5.520721
     -2.027027      1.639326      1.639326      3.278651
     -2.017017      0.902077      0.902077      1.804153
     -2.007007      0.464156      0.464156      0.928312
     -1.996997      0.236221      0.236221      0.472441
     -1.986987      0.151715      0.151715      0.303430
     -1.976977      0.181581      0.181581      0.363162
     -1.966967      0.340850      0.340850      0.681700
     -1.956957      0.691451      0.691451      1.382901
     -1.946947      1.340992      1.340992      2.681984
     -1.936937      2.432757      2.432757      4.865514
     -1.926927      4.121215      4.121215      8.242429
     -1.916917      6.531524      6.531524     13.063048
     -1.906907      9.709183      9.709183     19.418366
     -1.896897     13.573028     13.573028     27.146056
     -1.886887     17.887399     17.887399     35.774798
     -1.876877     22.266959     22.266959     44.533917
     -1.866867     26.222671     26.222671     52.445342
     -1.856857     29.250227     29.250227     58.500454
     -1.846847     30.949284     30.949284     61.898569
     -1.836837     31.141705     31.141705     62.283409
     -1.826827     29.939337     29.939337     59.878675
     -1.816817     27.716408     27.716408     55.432815
     -1.806807     24.979841     24.979841     49.959682
     -1.796797     22.187723     22.187723     44.375446
     -1.786787     19.603005     19.603005     39.206010
     -1.776777     17.254562     17.254562     34.509123
     -1.766767     15.015653     15.015653     30.031306
     -1.756757     12.742542     12.742542     25.485084
     -1.746747     10.389438     10.389438     20.778876
     -1.736737      8.044059      8.044059     16.088118
     -1.726727      5.884814      5.884814     11.769629
     -1.716717      4.104275      4.104275      8.208550
     -1.706707      2.849410      2.849410      5.698819
     -1.696697      2.202595      2.202595      4.405190
     -1.686687      2.193493      2.193493      4.386986
     -1.676677      2.813536      2.813536      5.627071
     -1.666667      4.010094      4.010094      8.020187
     -1.656657      5.659316      5.659316     11.318632
     -1.646647      7.540075      7.540075     15.080150
     -1.636637      9.341160      9.341160     18.682320
     -1.626627     10.721727     10.721727     21.443454
