# EIG2DOS: Utility for SIESTA to obtain the electronic density of states
#  E. Artacho, Apr 1999, A. Garcia, Apr 2012
#  Nick R. Papior, Feb 2017
# ------------------------------------------
# Eigenvalues calculated from a non-polarized calculation
# Eigenvalues read from siesta.EIG
# Kpoint weights read from siesta.KP
# Using smearing parameter:   0.0500
# Using 1000 points in the energy range
# Selected bands: 1 to: 2981
# Emin, Emax in file for selected band(s):    -27.2865107    218.3801170
# Nbands, Nspin, Nk   =   2981     1     1
# E_F                 =    -4.2179 eV --> (shifted to ZERO)
# Broadening          =     0.0500 eV
#
#        E            N(up)  (=)   N(down)         Ntot
     -5.000000     32.803372     32.803372     65.606745
     -4.989990     37.390809     37.390809     74.781618
     -4.979980     41.535407     41.535407     83.070815
     -4.969970     44.550856     44.550856     89.101711
     -4.959960     45.888420     45.888420     91.776841
     -4.949950     45.319347     45.319347     90.638694
     -4.939940     43.019028     43.019028     86.038056
     -4.929930     39.533074     39.533074     79.066149
     -4.919920     35.658489     35.658489     71.316977
     -4.909910     32.292937     32.292937     64.585873
     -4.899900     30.285339     30.285339     60.570679
     -4.889890     30.288351     30.288351     60.576703
     -4.879880     32.604947     32.604947     65.209894
     -4.869870     37.051234     37.051234     74.102468
     -4.859860     42.900126     42.900126     85.800251
     -4.849850     48.979289     48.979289     97.958577
     -4.839840     53.944960     53.944960    107.889919
     -4.829830     56.661140     56.661140    113.322281
     -4.819820     56.539636     56.539636    113.079271
     -4.809810     53.695313     53.695313    107.390627
     -4.799800     48.852430     48.852430     97.704860
     -4.789790     43.056072     43.056072     86.112143
     -4.779780     37.327242     37.327242     74.654483
     -4.769770     32.404817     32.404817     64.809635
     -4.759760     28.650378     28.650378     57.300756
     -4.749750     26.102859     26.102859     52.205718
     -4.739740     24.610888     24.610888     49.221776
     -4.729730     23.961698     23.961698     47.923397
     -4.719720     23.953764     23.953764     47.907528
     -4.709710     24.401539     24.401539     48.803078
     -4.699700     25.097701     25.097701     50.195402
     -4.689690     25.780990     25.780990     51.561979
     -4.679680     26.157027     26.157027     52.314055
     -4.669670     25.990475     25.990475     51.980951
     -4.659660     25.239315     25.239315     50.478630
     -4.649650     24.161972     24.161972     48.323944
     -4.639640     23.322405     23.322405     46.644811
     -4.629630     23.455522     23.455522     46.911044
     -4.619620     25.219015     25.219015     50.438029
     -4.609610     28.917337     28.917337     57.834674
     -4.599600     34.311026     34.311026     68.622053
     -4.589590     40.605177     40.605177     81.210353
     -4.579580     46.647559     46.647559     93.295119
     -4.569570     51.281279     51.281279    102.562558
     -4.559560     53.724711     53.724711    107.449421
     -4.549550     53.829081     53.829081    107.658163
     -4.539540     52.107640     52.107640    104.215281
     -4.529530     49.523507     49.523507     99.047014
     -4.519520     47.123294     47.123294     94.246588
     -4.509510     45.664329     45.664329     91.328659
     -4.499499     45.378769     45.378769     90.757538
     -4.489489     45.953341     45.953341     91.906682
     -4.479479     46.710433     46.710433     93.420866
     -4.469469     46.897091     46.897091     93.794182
     -4.459459     45.956939     45.956939     91.913877
     -4.449449     43.686042     43.686042     87.372083
     -4.439439     40.239487     40.239487     80.478975
     -4.429429     36.025273     36.025273     72.050546
     -4.419419     31.560877     31.560877     63.121753
     -4.409409     27.359761     27.359761     54.719521
     -4.399399     23.871810     23.871810     47.743621
     -4.389389     21.456179     21.456179     42.912359
     -4.379379     20.349427     20.349427     40.698855
     -4.369369     20.614864     20.614864     41.229728
     -4.359359     22.098582     22.098582     44.197165
     -4.349349     24.438197     24.438197     48.876395
     -4.339339     27.151491     27.151491     54.302982
     -4.329329     29.785359     29.785359     59.570718
     -4.319319     32.064021     32.064021     64.128042
     -4.309309     33.968049     33.968049     67.936097
     -4.299299     35.705712     35.705712     71.411424
     -4.289289     37.585149     37.585149     75.170299
     -4.279279     39.835273     39.835273     79.670547
     -4.269269     42.442727     42.442727     84.885453
     -4.259259     45.071671     45.071671     90.143342
     -4.249249     47.113507     47.113507     94.227015
     -4.239239     47.871937     47.871937     95.743873
     -4.229229     46.829248     46.829248     93.658496
     -4.219219     43.886671     43.886671     87.773342
     -4.209209     39.462094     39.462094     78.924188
     -4.199199     34.383500     34.383500     68.767000
     -4.189189     29.615043     29.615043     59.230086
     -4.179179     25.938508     25.938508     51.877016
     -4.169169     23.733040     23.733040     47.466080
     -4.159159     22.939853     22.939853     45.879706
     -4.149149     23.203271     23.203271     46.406542
     -4.139139     24.099857     24.099857     48.199714
     -4.129129     25.339525     25.339525     50.679050
     -4.119119     26.848692     26.848692     53.697383
     -4.109109     28.705832     28.705832     57.411664
     -4.099099     30.969295     30.969295     61.938589
     -4.089089     33.492338     33.492338     66.984676
     -4.079079     35.836985     35.836985     71.673970
     -4.069069     37.358813     37.358813     74.717625
     -4.059059     37.446702     37.446702     74.893404
     -4.049049     35.808192     35.808192     71.616385
     -4.039039     32.651851     32.651851     65.303703
     -4.029029     28.665479     28.665479     57.330958
     -4.019019     24.797988     24.797988     49.595975
     -4.009009     21.954882     21.954882     43.909764
     -3.998999     20.749799     20.749799     41.499597
     -3.988989     21.404856     21.404856     42.809712
     -3.978979     23.801811     23.801811     47.603622
     -3.968969     27.614838     27.614838     55.229677
     -3.958959     32.441713     32.441713     64.883426
     -3.948949     37.887232     37.887232     75.774464
     -3.938939     43.602361     43.602361     87.204721
     -3.928929     49.305842     49.305842     98.611684
     -3.918919     54.801066     54.801066    109.602131
     -3.908909     59.972635     59.972635    119.945269
     -3.898899     64.738202     64.738202    129.476403
     -3.888889     68.956181     68.956181    137.912361
     -3.878879     72.331242     72.331242    144.662483
     -3.868869     74.382730     74.382730    148.765460
     -3.858859     74.523490     74.523490    149.046980
     -3.848849     72.243541     72.243541    144.487081
     -3.838839     67.333820     67.333820    134.667640
     -3.828829     60.053360     60.053360    120.106719
     -3.818819     51.157720     51.157720    102.315439
     -3.808809     41.761584     41.761584     83.523169
     -3.798799     33.077154     33.077154     66.154308
     -3.788789     26.118728     26.118728     52.237456
     -3.778779     21.471464     21.471464     42.942928
     -3.768769     19.190610     19.190610     38.381219
     -3.758759     18.847411     18.847411     37.694822
     -3.748749     19.693418     19.693418     39.386835
     -3.738739     20.889386     20.889386     41.778771
     -3.728729     21.738490     21.738490     43.476981
     -3.718719     21.869296     21.869296     43.738591
     -3.708709     21.326317     21.326317     42.652633
     -3.698699     20.543658     20.543658     41.087316
     -3.688689     20.201339     20.201339     40.402678
     -3.678679     20.994569     20.994569     41.989138
     -3.668669     23.378278     23.378278     46.756555
     -3.658659     27.370366     27.370366     54.740731
     -3.648649     32.491274     32.491274     64.982547
     -3.638639     37.875230     37.875230     75.750460
     -3.628629     42.520041     42.520041     85.040083
     -3.618619     45.579823     45.579823     91.159647
     -3.608609     46.586288     46.586288     93.172576
     -3.598599     45.523795     45.523795     91.047590
     -3.588589     42.757152     42.757152     85.514303
     -3.578579     38.871854     38.871854     77.743707
     -3.568569     34.500851     34.500851     69.001703
     -3.558559     30.185807     30.185807     60.371614
     -3.548549     26.287759     26.287759     52.575519
     -3.538539     22.948718     22.948718     45.897435
     -3.528529     20.108763     20.108763     40.217526
     -3.518519     17.580596     17.580596     35.161193
     -3.508509     15.163326     15.163326     30.326652
     -3.498498     12.752904     12.752904     25.505808
     -3.488488     10.401958     10.401958     20.803915
     -3.478478      8.305572      8.305572     16.611144
     -3.468468      6.725930      6.725930     13.451860
     -3.458458      5.892784      5.892784     11.785568
     -3.448448      5.917417      5.917417     11.834835
     -3.438438      6.744064      6.744064     13.488129
     -3.428428      8.150134      8.150134     16.300269
     -3.418418      9.799829      9.799829     19.599658
     -3.408408     11.346878     11.346878     22.693757
     -3.398398     12.563676     12.563676     25.127352
     -3.388388     13.452257     13.452257     26.904515
     -3.378378     14.285107     14.285107     28.570215
     -3.368368     15.543824     15.543824     31.087649
     -3.358358     17.765146     17.765146     35.530291
     -3.348348     21.343953     21.343953     42.687905
     -3.338338     26.359528     26.359528     52.719057
     -3.328328     32.479848     32.479848     64.959696
     -3.318318     38.972288     38.972288     77.944576
     -3.308308     44.823788     44.823788     89.647575
     -3.298298     48.953136     48.953136     97.906271
     -3.288288     50.475322     50.475322    100.950645
     -3.278278     48.950452     48.950452     97.900904
     -3.268268     44.532801     44.532801     89.065602
     -3.258258     37.953456     37.953456     75.906913
     -3.248248     30.329535     30.329535     60.659069
     -3.238238     22.867561     22.867561     45.735122
     -3.228228     16.572292     16.572292     33.144585
     -3.218218     12.057247     12.057247     24.114494
     -3.208208      9.493436      9.493436     18.986873
     -3.198198      8.671954      8.671954     17.343908
     -3.188188      9.129970      9.129970     18.259940
     -3.178178     10.299840     10.299840     20.599680
     -3.168168     11.660602     11.660602     23.321204
     -3.158158     12.874497     12.874497     25.748994
     -3.148148     13.877385     13.877385     27.754770
     -3.138138     14.882942     14.882942     29.765884
     -3.128128     16.278222     16.278222     32.556445
     -3.118118     18.432914     18.432914     36.865828
     -3.108108     21.492944     21.492944     42.985888
     -3.098098     25.249993     25.249993     50.499987
     -3.088088     29.154400     29.154400     58.308801
     -3.078078     32.477052     32.477052     64.954104
     -3.068068     34.554964     34.554964     69.109929
     -3.058058     35.012148     35.012148     70.024296
     -3.048048     33.857859     33.857859     67.715718
     -3.038038     31.426856     31.426856     62.853713
     -3.028028     28.207975     28.207975     56.415949
     -3.018018     24.660697     24.660697     49.321394
     -3.008008     21.112682     21.112682     42.225364
     -2.997998     17.771600     17.771600     35.543201
     -2.987988     14.813715     14.813715     29.627430
     -2.977978     12.474259     12.474259     24.948518
     -2.967968     11.077026     11.077026     22.154052
     -2.957958     10.983731     10.983731     21.967461
     -2.947948     12.485325     12.485325     24.970649
     -2.937938     15.678324     15.678324     31.356648
     -2.927928     20.370860     20.370860     40.741720
     -2.917918     26.055485     26.055485     52.110970
     -2.907908     31.971997     31.971997     63.943995
     -2.897898     37.259759     37.259759     74.519519
     -2.887888     41.165022     41.165022     82.330043
     -2.877878     43.236950     43.236950     86.473901
     -2.867868     43.436550     43.436550     86.873101
     -2.857858     42.108853     42.108853     84.217706
     -2.847848     39.824526     39.824526     79.649053
     -2.837838     37.156852     37.156852     74.313705
     -2.827828     34.491646     34.491646     68.983291
     -2.817818     31.951436     31.951436     63.902872
     -2.807808     29.457004     29.457004     58.914008
     -2.797798     26.879280     26.879280     53.758560
     -2.787788     24.190940     24.190940     48.381879
     -2.777778     21.533921     21.533921     43.067843
     -2.767768     19.172133     19.172133     38.344267
     -2.757758     17.366903     17.366903     34.733807
     -2.747748     16.256430     16.256430     32.512860
     -2.737738     15.813798     15.813798     31.627596
     -2.727728     15.904911     15.904911     31.809821
     -2.717718     16.400919     16.400919     32.801838
     -2.707708     17.262739     17.262739     34.525479
     -2.697698     18.534597     18.534597     37.069193
     -2.687688     20.249059     20.249059     40.498118
     -2.677678     22.313990     22.313990     44.627981
     -2.667668     24.472756     24.472756     48.945512
     -2.657658     26.383487     26.383487     52.766974
     -2.647648     27.779581     27.779581     55.559162
     -2.637638     28.611098     28.611098     57.222196
     -2.627628     29.072665     29.072665     58.145331
     -2.617618     29.496112     29.496112     58.992224
     -2.607608     30.173421     30.173421     60.346842
     -2.597598     31.214532     31.214532     62.429065
     -2.587588     32.510160     32.510160     65.020319
     -2.577578     33.794117     33.794117     67.588235
     -2.567568     34.743642     34.743642     69.487285
     -2.557558     35.058204     35.058204     70.116408
     -2.547548     34.503516     34.503516     69.007033
     -2.537538     32.948527     32.948527     65.897053
     -2.527528     30.420888     30.420888     60.841776
     -2.517518     27.167056     27.167056     54.334112
     -2.507508     23.667760     23.667760     47.335519
     -2.497497     20.564615     20.564615     41.129230
     -2.487487     18.499224     18.499224     36.998448
     -2.477477     17.919878     17.919878     35.839755
     -2.467467     18.937041     18.937041     37.874082
     -2.457457     21.292834     21.292834     42.585667
     -2.447447     24.462043     24.462043     48.924087
     -2.437437     27.845882     27.845882     55.691764
     -2.427427     30.978461     30.978461     61.956921
     -2.417417     33.657505     33.657505     67.315010
     -2.407407     35.941525     35.941525     71.883050
     -2.397397     38.015338     38.015338     76.030676
     -2.387387     39.989297     39.989297     79.978593
     -2.377377     41.734510     41.734510     83.469019
     -2.367367     42.846022     42.846022     85.692043
     -2.357357     42.768258     42.768258     85.536515
     -2.347347     41.035977     41.035977     82.071955
     -2.337337     37.520220     37.520220     75.040441
     -2.327327     32.559656     32.559656     65.119312
     -2.317317     26.912629     26.912629     53.825259
     -2.307307     21.553649     21.553649     43.107298
     -2.297297     17.407712     17.407712     34.815424
     -2.287287     15.129027     15.129027     30.258055
     -2.277277     14.989790     14.989790     29.979579
     -2.267267     16.884773     16.884773     33.769546
     -2.257257     20.415370     20.415370     40.830740
     -2.247247     25.005833     25.005833     50.011666
     -2.237237     30.015198     30.015198     60.030396
     -2.227227     34.824665     34.824665     69.649330
     -2.217217     38.893922     38.893922     77.787844
     -2.207207     41.791248     41.791248     83.582496
     -2.197197     43.211672     43.211672     86.423343
     -2.187187     43.000223     43.000223     86.000446
     -2.177177     41.186807     41.186807     82.373614
     -2.167167     38.016768     38.016768     76.033537
     -2.157157     33.941731     33.941731     67.883462
     -2.147147     29.539579     29.539579     59.079158
     -2.137137     25.368072     25.368072     50.736144
     -2.127127     21.804607     21.804607     43.609214
     -2.117117     18.948916     18.948916     37.897831
     -2.107107     16.641444     16.641444     33.282888
     -2.097097     14.588381     14.588381     29.176762
     -2.087087     12.525533     12.525533     25.051066
     -2.077077     10.337073     10.337073     20.674146
     -2.067067      8.079830      8.079830     16.159661
     -2.057057      5.921711      5.921711     11.843422
     -2.047047      4.045035      4.045035      8.090070
     -2.037037      2.570210      2.570210      5.140421
     -2.027027      1.529248      1.529248      3.058497
     -2.017017      0.885912      0.885912      1.771824
     -2.007007      0.579885      0.579885      1.159770
     -1.996997      0.571001      0.571001      1.142003
     -1.986987      0.868310      0.868310      1.736620
     -1.976977      1.537518      1.537518      3.075036
     -1.966967      2.684985      2.684985      5.369970
     -1.956957      4.419529      4.419529      8.839058
     -1.946947      6.799122      6.799122     13.598243
     -1.936937      9.778434      9.778434     19.556868
     -1.926927     13.179553     13.179553     26.359105
     -1.916917     16.704484     16.704484     33.408967
     -1.906907     19.991928     19.991928     39.983855
     -1.896897     22.699340     22.699340     45.398679
     -1.886887     24.577970     24.577970     49.155941
     -1.876877     25.513285     25.513285     51.026571
     -1.866867     25.523722     25.523722     51.047443
     -1.856857     24.732949     24.732949     49.465897
     -1.846847     23.338472     23.338472     46.676944
     -1.836837     21.587557     21.587557     43.175114
     -1.826827     19.751495     19.751495     39.502990
     -1.816817     18.081175     18.081175     36.162350
     -1.806807     16.741741     16.741741     33.483483
     -1.796797     15.751902     15.751902     31.503805
     -1.786787     14.968839     14.968839     29.937678
     -1.776777     14.143713     14.143713     28.287426
     -1.766767     13.031737     13.031737     26.063475
     -1.756757     11.503974     11.503974     23.007948
     -1.746747      9.604056      9.604056     19.208113
     -1.736737      7.525818      7.525818     15.051636
     -1.726727      5.533517      5.533517     11.067034
     -1.716717      3.873491      3.873491      7.746982
     -1.706707      2.719752      2.719752      5.439503
     -1.696697      2.165954      2.165954      4.331908
     -1.686687      2.245448      2.245448      4.490897
     -1.676677      2.948539      2.948539      5.897079
     -1.666667      4.216054      4.216054      8.432107
     -1.656657      5.912124      5.912124     11.824248
     -1.646647      7.801572      7.801572     15.603145
     -1.636637      9.564068      9.564068     19.128136
     -1.626627     10.862008     10.862008     21.724016
