# EIG2DOS: Utility for SIESTA to obtain the electronic density of states
#  E. Artacho, Apr 1999, A. Garcia, Apr 2012
#  Nick R. Papior, Feb 2017
# ------------------------------------------
# Eigenvalues calculated from a non-polarized calculation
# Eigenvalues read from siesta.EIG
# Kpoint weights read from siesta.KP
# Using smearing parameter:   0.0500
# Using 1000 points in the energy range
# Selected bands: 1 to: 2981
# Emin, Emax in file for selected band(s):    -27.2800612    218.3782840
# Nbands, Nspin, Nk   =   2981     1     1
# E_F                 =    -4.2229 eV --> (shifted to ZERO)
# Broadening          =     0.0500 eV
#
#        E            N(up)  (=)   N(down)         Ntot
     -5.000000     34.112297     34.112297     68.224595
     -4.989990     38.323276     38.323276     76.646552
     -4.979980     41.898986     41.898986     83.797973
     -4.969970     44.265570     44.265570     88.531140
     -4.959960     45.015872     45.015872     90.031743
     -4.949950     44.043168     44.043168     88.086337
     -4.939940     41.586292     41.586292     83.172585
     -4.929930     38.183900     38.183900     76.367801
     -4.919920     34.572973     34.572973     69.145945
     -4.909910     31.571176     31.571176     63.142352
     -4.899900     29.957414     29.957414     59.914827
     -4.889890     30.337984     30.337984     60.675968
     -4.879880     32.988994     32.988994     65.977989
     -4.869870     37.705640     37.705640     75.411279
     -4.859860     43.735182     43.735182     87.470364
     -4.849850     49.875812     49.875812     99.751624
     -4.839840     54.763344     54.763344    109.526687
     -4.829830     57.266950     57.266950    114.533900
     -4.819820     56.837402     56.837402    113.674803
     -4.809810     53.654562     53.654562    107.309123
     -4.799800     48.512507     48.512507     97.025014
     -4.789790     42.507865     42.507865     85.015729
     -4.779780     36.682626     36.682626     73.365252
     -4.769770     31.769995     31.769995     63.539991
     -4.759760     28.114333     28.114333     56.228667
     -4.749750     25.741167     25.741167     51.482334
     -4.739740     24.495281     24.495281     48.990561
     -4.729730     24.162074     24.162074     48.324148
     -4.719720     24.523018     24.523018     49.046035
     -4.709710     25.343474     25.343474     50.686949
     -4.699700     26.331095     26.331095     52.662190
     -4.689690     27.122433     27.122433     54.244865
     -4.679680     27.343519     27.343519     54.687037
     -4.669670     26.746070     26.746070     53.492140
     -4.659660     25.364937     25.364937     50.729874
     -4.649650     23.609603     23.609603     47.219206
     -4.639640     22.218104     22.218104     44.436209
     -4.629630     22.059988     22.059988     44.119975
     -4.619620     23.844146     23.844146     47.688293
     -4.609610     27.834118     27.834118     55.668236
     -4.599600     33.680907     33.680907     67.361815
     -4.589590     40.451479     40.451479     80.902959
     -4.579580     46.867511     46.867511     93.735023
     -4.569570     51.689395     51.689395    103.378789
     -4.559560     54.112951     54.112951    108.225902
     -4.549550     54.026025     54.026025    108.052051
     -4.539540     52.019189     52.019189    104.038379
     -4.529530     49.144416     49.144416     98.288833
     -4.519520     46.520994     46.520994     93.041988
     -4.509510     44.947491     44.947491     89.894982
     -4.499499     44.666070     44.666070     89.332141
     -4.489489     45.351813     45.351813     90.703625
     -4.479479     46.303254     46.303254     92.606508
     -4.469469     46.735170     46.735170     93.470340
     -4.459459     46.050311     46.050311     92.100623
     -4.449449     43.997201     43.997201     87.994403
     -4.439439     40.685289     40.685289     81.370578
     -4.429429     36.492676     36.492676     72.985352
     -4.419419     31.934956     31.934956     63.869913
     -4.409409     27.554705     27.554705     55.109409
     -4.399399     23.852453     23.852453     47.704906
     -4.389389     21.241499     21.241499     42.482998
     -4.379379     19.998140     19.998140     39.996280
     -4.369369     20.201448     20.201448     40.402897
     -4.359359     21.690997     21.690997     43.381994
     -4.349349     24.085126     24.085126     48.170253
     -4.339339     26.880163     26.880163     53.760326
     -4.329329     29.605279     29.605279     59.210558
     -4.319319     31.970446     31.970446     63.940892
     -4.309309     33.941903     33.941903     67.883805
     -4.299299     35.711677     35.711677     71.423354
     -4.289289     37.573575     37.573575     75.147150
     -4.279279     39.753274     39.753274     79.506548
     -4.269269     42.254567     42.254567     84.509134
     -4.259259     44.780814     44.780814     89.561628
     -4.249249     46.773909     46.773909     93.547818
     -4.239239     47.578989     47.578989     95.157979
     -4.229229     46.690960     46.690960     93.381920
     -4.219219     43.986965     43.986965     87.973930
     -4.209209     39.832745     39.832745     79.665491
     -4.199199     34.995937     34.995937     69.991873
     -4.189189     30.392109     30.392109     60.784218
     -4.179179     26.777178     26.777178     53.554357
     -4.169169     24.527155     24.527155     49.054309
     -4.159159     23.596470     23.596470     47.192940
     -4.149149     23.652390     23.652390     47.304779
     -4.139139     24.300577     24.300577     48.601154
     -4.129129     25.284949     25.284949     50.569899
     -4.119119     26.568803     26.568803     53.137605
     -4.109109     28.265053     28.265053     56.530106
     -4.099099     30.455772     30.455772     60.911544
     -4.089089     32.999510     32.999510     65.999020
     -4.079079     35.442794     35.442794     70.885588
     -4.069069     37.110616     37.110616     74.221232
     -4.059059     37.357916     37.357916     74.715832
     -4.049049     35.866518     35.866518     71.733037
     -4.039039     32.832398     32.832398     65.664796
     -4.029029     28.939856     28.939856     57.879711
     -4.019019     25.134402     25.134402     50.268803
     -4.009009     22.311832     22.311832     44.623663
     -3.998999     21.071674     21.071674     42.143347
     -3.988989     21.627264     21.627264     43.254529
     -3.978979     23.867816     23.867816     47.735632
     -3.968969     27.495131     27.495131     54.990263
     -3.958959     32.147929     32.147929     64.295859
     -3.948949     37.470830     37.470830     74.941660
     -3.938939     43.139403     43.139403     86.278805
     -3.928929     48.875108     48.875108     97.750216
     -3.918919     54.464855     54.464855    108.929710
     -3.908909     59.766130     59.766130    119.532260
     -3.898899     64.667783     64.667783    129.335566
     -3.888889     69.003564     69.003564    138.007128
     -3.878879     72.460263     72.460263    144.920527
     -3.868869     74.547511     74.547511    149.095022
     -3.858859     74.677903     74.677903    149.355805
     -3.848849     72.351083     72.351083    144.702167
     -3.838839     67.375274     67.375274    134.750549
     -3.828829     60.029163     60.029163    120.058327
     -3.818819     51.083906     51.083906    102.167812
     -3.808809     41.661280     41.661280     83.322560
     -3.798799     32.971664     32.971664     65.943327
     -3.788789     26.021881     26.021881     52.043763
     -3.778779     21.388631     21.388631     42.777262
     -3.768769     19.121388     19.121388     38.242776
     -3.758759     18.789771     18.789771     37.579542
     -3.748749     19.647252     19.647252     39.294503
     -3.738739     20.858336     20.858336     41.716672
     -3.728729     21.729868     21.729868     43.459737
     -3.718719     21.892473     21.892473     43.784945
     -3.708709     21.390144     21.390144     42.780289
     -3.698699     20.653391     20.653391     41.306782
     -3.688689     20.355507     20.355507     40.711014
     -3.678679     21.182502     21.182502     42.365004
     -3.668669     23.579467     23.579467     47.158935
     -3.658659     27.556974     27.556974     55.113948
     -3.648649     32.634238     32.634238     65.268476
     -3.638639     37.952532     37.952532     75.905064
     -3.628629     42.523855     42.523855     85.047710
     -3.618619     45.518979     45.518979     91.037957
     -3.608609     46.482479     46.482479     92.964958
     -3.598599     45.403216     45.403216     90.806433
     -3.588589     42.641655     42.641655     85.283309
     -3.578579     38.773626     38.773626     77.547251
     -3.568569     34.422242     34.422242     68.844484
     -3.558559     30.122975     30.122975     60.245950
     -3.548549     26.235256     26.235256     52.470511
     -3.538539     22.902593     22.902593     45.805185
     -3.528529     20.067484     20.067484     40.134967
     -3.518519     17.544556     17.544556     35.089111
     -3.508509     15.134169     15.134169     30.268337
     -3.498498     12.733363     12.733363     25.466727
     -3.488488     10.396107     10.396107     20.792213
     -3.478478      8.318859      8.318859     16.637719
     -3.468468      6.764322      6.764322     13.528644
     -3.458458      5.960669      5.960669     11.921338
     -3.448448      6.014598      6.014598     12.029197
     -3.438438      6.863023      6.863023     13.726047
     -3.428428      8.275361      8.275361     16.550722
     -3.418418      9.910814      9.910814     19.821629
     -3.408408     11.424990     11.424990     22.849981
     -3.398398     12.600996     12.600996     25.201993
     -3.388388     13.458703     13.458703     26.917407
     -3.378378     14.289938     14.289938     28.579875
     -3.368368     15.589267     15.589267     31.178534
     -3.358358     17.892816     17.892816     35.785632
     -3.348348     21.577861     21.577861     43.155723
     -3.338338     26.691773     26.691773     53.383547
     -3.328328     32.865512     32.865512     65.731023
     -3.318318     39.337719     39.337719     78.675438
     -3.308308     45.087391     45.087391     90.174782
     -3.298298     49.051876     49.051876     98.103751
     -3.288288     50.386785     50.386785    100.773570
     -3.278278     48.702038     48.702038     97.404076
     -3.268268     44.195897     44.195897     88.391793
     -3.258258     37.627246     37.627246     75.254492
     -3.248248     30.121991     30.121991     60.243982
     -3.238238     22.878407     22.878407     45.756813
     -3.228228     16.877244     16.877244     33.754488
     -3.218218     12.689882     12.689882     25.379763
     -3.208208     10.424281     10.424281     20.848563
     -3.198198      9.792480      9.792480     19.584960
     -3.188188     10.255451     10.255451     20.510902
     -3.178178     11.202011     11.202011     22.404021
     -3.168168     12.126980     12.126980     24.253959
     -3.158158     12.773641     12.773641     25.547282
     -3.148148     13.201078     13.201078     26.402157
     -3.138138     13.745280     13.745280     27.490560
     -3.128128     14.873452     14.873452     29.746903
     -3.118118     16.974148     16.974148     33.948297
     -3.108108     20.159437     20.159437     40.318873
     -3.098098     24.159868     24.159868     48.319736
     -3.088088     28.362674     28.362674     56.725349
     -3.078078     31.987706     31.987706     63.975413
     -3.068068     34.335702     34.335702     68.671403
     -3.058058     35.007095     35.007095     70.014191
     -3.048048     33.999187     33.999187     67.998373
     -3.038038     31.646909     31.646909     63.293818
     -3.028028     28.450621     28.450621     56.901242
     -3.018018     24.888337     24.888337     49.776675
     -3.008008     21.306350     21.306350     42.612699
     -2.997998     17.924939     17.924939     35.849877
     -2.987988     14.924589     14.924589     29.849178
     -2.977978     12.538313     12.538313     25.076626
     -2.967968     11.085747     11.085747     22.171495
     -2.957958     10.927106     10.927106     21.854213
     -2.947948     12.357342     12.357342     24.714683
     -2.937938     15.482770     15.482770     30.965540
     -2.927928     20.124799     20.124799     40.249598
     -2.917918     25.788249     25.788249     51.576497
     -2.907908     31.718827     31.718827     63.437654
     -2.897898     37.051474     37.051474     74.102949
     -2.887888     41.017560     41.017560     82.035120
     -2.877878     43.145834     43.145834     86.291668
     -2.867868     43.379953     43.379953     86.759906
     -2.857858     42.059036     42.059036     84.118072
     -2.847848     39.762850     39.762850     79.525700
     -2.837838     37.085024     37.085024     74.170049
     -2.827828     34.433204     34.433204     68.866407
     -2.817818     31.942237     31.942237     63.884474
     -2.807808     29.529145     29.529145     59.058291
     -2.797798     27.046195     27.046195     54.092391
     -2.787788     24.440572     24.440572     48.881145
     -2.777778     21.832497     21.832497     43.664994
     -2.767768     19.475742     19.475742     38.951484
     -2.757758     17.634772     17.634772     35.269544
     -2.747748     16.459931     16.459931     32.919863
     -2.737738     15.938425     15.938425     31.876850
     -2.727728     15.946649     15.946649     31.893298
     -2.717718     16.361299     16.361299     32.722599
     -2.707708     17.146887     17.146887     34.293774
     -2.697698     18.353880     18.353880     36.707761
     -2.687688     20.026100     20.026100     40.052200
     -2.677678     22.085261     22.085261     44.170521
     -2.667668     24.284618     24.284618     48.569235
     -2.657658     26.281248     26.281248     52.562496
     -2.647648     27.793747     27.793747     55.587495
     -2.637638     28.747340     28.747340     57.494680
     -2.627628     29.310333     29.310333     58.620666
     -2.617618     29.795546     29.795546     59.591093
     -2.607608     30.487985     30.487985     60.975971
     -2.597598     31.501993     31.501993     63.003986
     -2.587588     32.739973     32.739973     65.479945
     -2.577578     33.950250     33.950250     67.900501
     -2.567568     34.824350     34.824350     69.648700
     -2.557558     35.074086     35.074086     70.148171
     -2.547548     34.474239     34.474239     68.948478
     -2.537538     32.898211     32.898211     65.796423
     -2.527528     30.372697     30.372697     60.745395
     -2.517518     27.138258     27.138258     54.276516
     -2.507508     23.666625     23.666625     47.333251
     -2.497497     20.589789     20.589789     41.179579
     -2.487487     18.541237     18.541237     37.082474
     -2.477477     17.963932     17.963932     35.927865
     -2.467467     18.966257     18.966257     37.932514
     -2.457457     21.291400     21.291400     42.582800
     -2.447447     24.417904     24.417904     48.835807
     -2.437437     27.752672     27.752672     55.505345
     -2.427427     30.836711     30.836711     61.673422
     -2.417417     33.475506     33.475506     66.951012
     -2.407407     35.736179     35.736179     71.472358
     -2.397397     37.812369     37.812369     75.624738
     -2.387387     39.821045     39.821045     79.642090
     -2.377377     41.633612     41.633612     83.267223
     -2.367367     42.835511     42.835511     85.671022
     -2.357357     42.851809     42.851809     85.703618
     -2.347347     41.193568     41.193568     82.387137
     -2.337337     37.712435     37.712435     75.424869
     -2.327327     32.739194     32.739194     65.478389
     -2.317317     27.037627     27.037627     54.075255
     -2.307307     21.597020     21.597020     43.194041
     -2.297297     17.359904     17.359904     34.719807
     -2.287287     14.995503     14.995503     29.991006
     -2.277277     14.786458     14.786458     29.572916
     -2.267267     16.633818     16.633818     33.267636
     -2.257257     20.142094     20.142094     40.284187
     -2.247247     24.736071     24.736071     49.472141
     -2.237237     29.773048     29.773048     59.546095
     -2.227227     34.630826     34.630826     69.261652
     -2.217217     38.764888     38.764888     77.529776
     -2.207207     41.738932     41.738932     83.477864
     -2.197197     43.242580     43.242580     86.485161
     -2.187187     43.113724     43.113724     86.227448
     -2.177177     41.373152     41.373152     82.746304
     -2.167167     38.256486     38.256486     76.512971
     -2.157157     34.207861     34.207861     68.415722
     -2.147147     29.802899     29.802899     59.605799
     -2.137137     25.603679     25.603679     51.207358
     -2.127127     21.997216     21.997216     43.994432
     -2.117117     19.094721     19.094721     38.189443
     -2.107107     16.746084     16.746084     33.492167
     -2.097097     14.662400     14.662400     29.324800
     -2.087087     12.579653     12.579653     25.159306
     -2.077077     10.379154     10.379154     20.758308
     -2.067067      8.114154      8.114154     16.228309
     -2.057057      5.950060      5.950060     11.900119
     -2.047047      4.068552      4.068552      8.137105
     -2.037037      2.591337      2.591337      5.182675
     -2.027027      1.553646      1.553646      3.107292
     -2.017017      0.924691      0.924691      1.849383
     -2.007007      0.652241      0.652241      1.304481
     -1.996997      0.706346      0.706346      1.412692
     -1.986987      1.105631      1.105631      2.211262
     -1.976977      1.918856      1.918856      3.837712
     -1.966967      3.241048      3.241048      6.482097
     -1.956957      5.149368      5.149368     10.298737
     -1.946947      7.651410      7.651410     15.302820
     -1.936937     10.645733     10.645733     21.291467
     -1.926927     13.914749     13.914749     27.829498
     -1.916917     17.159040     17.159040     34.318080
     -1.906907     20.063042     20.063042     40.126085
     -1.896897     22.365703     22.365703     44.731406
     -1.886887     23.907632     23.907632     47.815264
     -1.876877     24.640680     24.640680     49.281361
     -1.866867     24.607651     24.607651     49.215301
     -1.856857     23.914151     23.914151     47.828303
     -1.846847     22.711587     22.711587     45.423175
     -1.836837     21.192252     21.192252     42.384504
     -1.826827     19.578654     19.578654     39.157308
     -1.816817     18.086621     18.086621     36.173242
     -1.806807     16.861569     16.861569     33.723139
     -1.796797     15.916793     15.916793     31.833586
     -1.786787     15.116748     15.116748     30.233496
     -1.776777     14.230233     14.230233     28.460466
     -1.766767     13.036410     13.036410     26.072820
     -1.756757     11.430637     11.430637     22.861273
     -1.746747      9.474834      9.474834     18.949668
     -1.736737      7.370843      7.370843     14.741687
     -1.726727      5.380226      5.380226     10.760451
     -1.716717      3.739162      3.739162      7.478324
     -1.706707      2.609069      2.609069      5.218139
     -1.696697      2.073118      2.073118      4.146236
     -1.686687      2.159030      2.159030      4.318059
     -1.676677      2.857168      2.857168      5.714335
     -1.666667      4.113465      4.113465      8.226929
     -1.656657      5.800419      5.800419     11.600839
     -1.646647      7.691636      7.691636     15.383272
     -1.636637      9.472488      9.472488     18.944975
     -1.626627     10.804937     10.804937     21.609875
