# EIG2DOS: Utility for SIESTA to obtain the electronic density of states
#  E. Artacho, Apr 1999, A. Garcia, Apr 2012
#  Nick R. Papior, Feb 2017
# ------------------------------------------
# Eigenvalues calculated from a non-polarized calculation
# Eigenvalues read from siesta.EIG
# Kpoint weights read from siesta.KP
# Using smearing parameter:   0.0500
# Using 1000 points in the energy range
# Selected bands: 1 to: 2981
# Emin, Emax in file for selected band(s):    -27.0306727    218.3076540
# Nbands, Nspin, Nk   =   2981     1     1
# E_F                 =    -4.3041 eV --> (shifted to ZERO)
# Broadening          =     0.0500 eV
#
#        E            N(up)  (=)   N(down)         Ntot
     -5.000000     44.671307     44.671307     89.342615
     -4.989990     48.926966     48.926966     97.853933
     -4.979980     51.648622     51.648622    103.297245
     -4.969970     52.498263     52.498263    104.996526
     -4.959960     51.442551     51.442551    102.885101
     -4.949950     48.751285     48.751285     97.502570
     -4.939940     44.921767     44.921767     89.843534
     -4.929930     40.576608     40.576608     81.153215
     -4.919920     36.382986     36.382986     72.765972
     -4.909910     33.009593     33.009593     66.019187
     -4.899900     31.095431     31.095431     62.190862
     -4.889890     31.181060     31.181060     62.362120
     -4.879880     33.569971     33.569971     67.139942
     -4.869870     38.145599     38.145599     76.291198
     -4.859860     44.236816     44.236816     88.473631
     -4.849850     50.649258     50.649258    101.298515
     -4.839840     55.924161     55.924161    111.848321
     -4.829830     58.765669     58.765669    117.531339
     -4.819820     58.463664     58.463664    116.927329
     -4.809810     55.114666     55.114666    110.229333
     -4.799800     49.537165     49.537165     99.074329
     -4.789790     42.935123     42.935123     85.870246
     -4.779780     36.482996     36.482996     72.965991
     -4.769770     31.015595     31.015595     62.031189
     -4.759760     26.915851     26.915851     53.831702
     -4.749750     24.177206     24.177206     48.354412
     -4.739740     22.549779     22.549779     45.099558
     -4.729730     21.682686     21.682686     43.365373
     -4.719720     21.218973     21.218973     42.437947
     -4.709710     20.842383     20.842383     41.684765
     -4.699700     20.296398     20.296398     40.592795
     -4.689690     19.398773     19.398773     38.797546
     -4.679680     18.067500     18.067500     36.135001
     -4.669670     16.360375     16.360375     32.720750
     -4.659660     14.513437     14.513437     29.026873
     -4.649650     12.951861     12.951861     25.903722
     -4.639640     12.248251     12.248251     24.496502
     -4.629630     13.017412     13.017412     26.034824
     -4.619620     15.756816     15.756816     31.513633
     -4.609610     20.663358     20.663358     41.326716
     -4.599600     27.478770     27.478770     54.957539
     -4.589590     35.432016     35.432016     70.864032
     -4.579580     43.339894     43.339894     86.679787
     -4.569570     49.880547     49.880547     99.761093
     -4.559560     53.975532     53.975532    107.951064
     -4.549550     55.143567     55.143567    110.287134
     -4.539540     53.673237     53.673237    107.346473
     -4.529530     50.525802     50.525802    101.051604
     -4.519520     46.996197     46.996197     93.992394
     -4.509510     44.268281     44.268281     88.536562
     -4.499499     43.041878     43.041878     86.083755
     -4.489489     43.366561     43.366561     86.733122
     -4.479479     44.719335     44.719335     89.438671
     -4.469469     46.263418     46.263418     92.526837
     -4.459459     47.168317     47.168317     94.336634
     -4.449449     46.872963     46.872963     93.745926
     -4.439439     45.219261     45.219261     90.438522
     -4.429429     42.443179     42.443179     84.886358
     -4.419419     39.057851     39.057851     78.115702
     -4.409409     35.685115     35.685115     71.370230
     -4.399399     32.890049     32.890049     65.780099
     -4.389389     31.057096     31.057096     62.114192
     -4.379379     30.327019     30.327019     60.654038
     -4.369369     30.597637     30.597637     61.195274
     -4.359359     31.579403     31.579403     63.158806
     -4.349349     32.888443     32.888443     65.776886
     -4.339339     34.153898     34.153898     68.307795
     -4.329329     35.114103     35.114103     70.228206
     -4.319319     35.678627     35.678627     71.357253
     -4.309309     35.941384     35.941384     71.882768
     -4.299299     36.142617     36.142617     72.285233
     -4.289289     36.589848     36.589848     73.179696
     -4.279279     37.555258     37.555258     75.110516
     -4.269269     39.169227     39.169227     78.338453
     -4.259259     41.333252     41.333252     82.666505
     -4.249249     43.683690     43.683690     87.367380
     -4.239239     45.641703     45.641703     91.283406
     -4.229229     46.565949     46.565949     93.131897
     -4.219219     45.975540     45.975540     91.951080
     -4.209209     43.754835     43.754835     87.509670
     -4.199199     40.233520     40.233520     80.467039
     -4.189189     36.084438     36.084438     72.168875
     -4.179179     32.077726     32.077726     64.155453
     -4.169169     28.811349     28.811349     57.622699
     -4.159159     26.548963     26.548963     53.097926
     -4.149149     25.230494     25.230494     50.460988
     -4.139139     24.624981     24.624981     49.249962
     -4.129129     24.527461     24.527461     49.054921
     -4.119119     24.891795     24.891795     49.783591
     -4.109109     25.832546     25.832546     51.665092
     -4.099099     27.496272     27.496272     54.992544
     -4.089089     29.869910     29.869910     59.739820
     -4.079079     32.635605     32.635605     65.271209
     -4.069069     35.172750     35.172750     70.345500
     -4.059059     36.739778     36.739778     73.479556
     -4.049049     36.766767     36.766767     73.533534
     -4.039039     35.114579     35.114579     70.229158
     -4.029029     32.161938     32.161938     64.323875
     -4.019019     28.673682     28.673682     57.347365
     -4.009009     25.524778     25.524778     51.049555
     -3.998999     23.425972     23.425972     46.851944
     -3.988989     22.774793     22.774793     45.549585
     -3.978979     23.663378     23.663378     47.326756
     -3.968969     25.981774     25.981774     51.963547
     -3.958959     29.522825     29.522825     59.045649
     -3.948949     34.032557     34.032557     68.065114
     -3.938939     39.215891     39.215891     78.431782
     -3.928929     44.745574     44.745574     89.491147
     -3.918919     50.306478     50.306478    100.612955
     -3.908909     55.658558     55.658558    111.317117
     -3.898899     60.665634     60.665634    121.331268
     -3.888889     65.246700     65.246700    130.493401
     -3.878879     69.257904     69.257904    138.515807
     -3.868869     72.371408     72.371408    144.742816
     -3.858859     74.041080     74.041080    148.082159
     -3.848849     73.612972     73.612972    147.225944
     -3.838839     70.562991     70.562991    141.125981
     -3.828829     64.765232     64.765232    129.530463
     -3.818819     56.660240     56.660240    113.320480
     -3.808809     47.228274     47.228274     94.456548
     -3.798799     37.762114     37.762114     75.524227
     -3.788789     29.526320     29.526320     59.052640
     -3.778779     23.434100     23.434100     46.868200
     -3.768769     19.851517     19.851517     39.703034
     -3.758759     18.574830     18.574830     37.149659
     -3.748749     18.960996     18.960996     37.921991
     -3.738739     20.152348     20.152348     40.304696
     -3.728729     21.327560     21.327560     42.655121
     -3.718719     21.919667     21.919667     43.839334
     -3.708709     21.755465     21.755465     43.510930
     -3.698699     21.085337     21.085337     42.170674
     -3.688689     20.491615     20.491615     40.983229
     -3.678679     20.690706     20.690706     41.381412
     -3.668669     22.277530     22.277530     44.555060
     -3.658659     25.490039     25.490039     50.980079
     -3.648649     30.079965     30.079965     60.159930
     -3.638639     35.348578     35.348578     70.697156
     -3.628629     40.344334     40.344334     80.688668
     -3.618619     44.147985     44.147985     88.295970
     -3.608609     46.130371     46.130371     92.260742
     -3.598599     46.086281     46.086281     92.172561
     -3.588589     44.214888     44.214888     88.429777
     -3.578579     40.989316     40.989316     81.978631
     -3.568569     36.990363     36.990363     73.980727
     -3.558559     32.763154     32.763154     65.526307
     -3.548549     28.718937     28.718937     57.437874
     -3.538539     25.082602     25.082602     50.165203
     -3.528529     21.887533     21.887533     43.775066
     -3.518519     19.023471     19.023471     38.046943
     -3.508509     16.330072     16.330072     32.660144
     -3.498498     13.703583     13.703583     27.407166
     -3.488488     11.170159     11.170159     22.340318
     -3.478478      8.893318      8.893318     17.786636
     -3.468468      7.116640      7.116640     14.233280
     -3.458458      6.071765      6.071765     12.143531
     -3.448448      5.889461      5.889461     11.778921
     -3.438438      6.541429      6.541429     13.082857
     -3.428428      7.827387      7.827387     15.654773
     -3.418418      9.413829      9.413829     18.827658
     -3.408408     10.922677     10.922677     21.845353
     -3.398398     12.051697     12.051697     24.103395
     -3.388388     12.687594     12.687594     25.375188
     -3.378378     12.963325     12.963325     25.926650
     -3.368368     13.227875     13.227875     26.455750
     -3.358358     13.935285     13.935285     27.870570
     -3.348348     15.496842     15.496842     30.993685
     -3.338338     18.151008     18.151008     36.302016
     -3.328328     21.885177     21.885177     43.770354
     -3.318318     26.412108     26.412108     52.824217
     -3.308308     31.189574     31.189574     62.379147
     -3.298298     35.482801     35.482801     70.965601
     -3.288288     38.484802     38.484802     76.969605
     -3.278278     39.499041     39.499041     78.998081
     -3.268268     38.145631     38.145631     76.291262
     -3.258258     34.508361     34.508361     69.016721
     -3.248248     29.140507     29.140507     58.281014
     -3.238238     22.907583     22.907583     45.815166
     -3.228228     16.729410     16.729410     33.458819
     -3.218218     11.334159     11.334159     22.668319
     -3.208208      7.120620      7.120620     14.241240
     -3.198198      4.159323      4.159323      8.318646
     -3.188188      2.296076      2.296076      4.592153
     -3.178178      1.290895      1.290895      2.581791
     -3.168168      0.936004      0.936004      1.872008
     -3.158158      1.126709      1.126709      2.253418
     -3.148148      1.883742      1.883742      3.767484
     -3.138138      3.334488      3.334488      6.668976
     -3.128128      5.658830      5.658830     11.317661
     -3.118118      9.005348      9.005348     18.010697
     -3.108108     13.393227     13.393227     26.786455
     -3.098098     18.631416     18.631416     37.262832
     -3.088088     24.296019     24.296019     48.592038
     -3.078078     29.794728     29.794728     59.589455
     -3.068068     34.509679     34.509679     69.019357
     -3.058058     37.964002     37.964002     75.928004
     -3.048048     39.933646     39.933646     79.867292
     -3.038038     40.449376     40.449376     80.898752
     -3.028028     39.698116     39.698116     79.396232
     -3.018018     37.897412     37.897412     75.794825
     -3.008008     35.233003     35.233003     70.466007
     -2.997998     31.900454     31.900454     63.800907
     -2.987988     28.211141     28.211141     56.422281
     -2.977978     24.670247     24.670247     49.340493
     -2.967968     21.947698     21.947698     43.895396
     -2.957958     20.729391     20.729391     41.458783
     -2.947948     21.506965     21.506965     43.013930
     -2.937938     24.396434     24.396434     48.792869
     -2.927928     29.059465     29.059465     58.118931
     -2.917918     34.755963     34.755963     69.511926
     -2.907908     40.509938     40.509938     81.019876
     -2.897898     45.338485     45.338485     90.676971
     -2.887888     48.479916     48.479916     96.959833
     -2.877878     49.559646     49.559646     99.119292
     -2.867868     48.649015     48.649015     97.298030
     -2.857858     46.200706     46.200706     92.401413
     -2.847848     42.880459     42.880459     85.760919
     -2.837838     39.349590     39.349590     78.699180
     -2.827828     36.073359     36.073359     72.146718
     -2.817818     33.224014     33.224014     66.448028
     -2.807808     30.710935     30.710935     61.421870
     -2.797798     28.315701     28.315701     56.631402
     -2.787788     25.862054     25.862054     51.724109
     -2.777778     23.335626     23.335626     46.671253
     -2.767768     20.896778     20.896778     41.793556
     -2.757758     18.789219     18.789219     37.578439
     -2.747748     17.205233     17.205233     34.410466
     -2.737738     16.191599     16.191599     32.383198
     -2.727728     15.653372     15.653372     31.306743
     -2.717718     15.449968     15.449968     30.899936
     -2.707708     15.517510     15.517510     31.035020
     -2.697698     15.932060     15.932060     31.864120
     -2.687688     16.864910     16.864910     33.729821
     -2.677678     18.452143     18.452143     36.904287
     -2.667668     20.660812     20.660812     41.321624
     -2.657658     23.242467     23.242467     46.484933
     -2.647648     25.812791     25.812791     51.625583
     -2.637638     28.015484     28.015484     56.030968
     -2.627628     29.672709     29.672709     59.345418
     -2.617618     30.832861     30.832861     61.665723
     -2.607608     31.694520     31.694520     63.389039
     -2.597598     32.464990     32.464990     64.929980
     -2.587588     33.245127     33.245127     66.490255
     -2.577578     33.997975     33.997975     67.995951
     -2.567568     34.590151     34.590151     69.180303
     -2.557558     34.850690     34.850690     69.701379
     -2.547548     34.605038     34.605038     69.210075
     -2.537538     33.690826     33.690826     67.381651
     -2.527528     31.993739     31.993739     63.987477
     -2.517518     29.523044     29.523044     59.046088
     -2.507508     26.494626     26.494626     52.989252
     -2.497497     23.355076     23.355076     46.710152
     -2.487487     20.698923     20.698923     41.397845
     -2.477477     19.092653     19.092653     38.185305
     -2.467467     18.879842     18.879842     37.759684
     -2.457457     20.060795     20.060795     40.121589
     -2.447447     22.307157     22.307157     44.614313
     -2.437437     25.107378     25.107378     50.214756
     -2.427427     27.976393     27.976393     55.952787
     -2.417417     30.631821     30.631821     61.263641
     -2.407407     33.053733     33.053733     66.107465
     -2.397397     35.399959     35.399959     70.799919
     -2.387387     37.819478     37.819478     75.638956
     -2.377377     40.259244     40.259244     80.518488
     -2.367367     42.368209     42.368209     84.736418
     -2.357357     43.560013     43.560013     87.120025
     -2.347347     43.220778     43.220778     86.441557
     -2.337337     40.975477     40.975477     81.950953
     -2.327327     36.892489     36.892489     73.784979
     -2.317317     31.531288     31.531288     63.062576
     -2.307307     25.811067     25.811067     51.622134
     -2.297297     20.759051     20.759051     41.518103
     -2.287287     17.242052     17.242052     34.484104
     -2.277277     15.774854     15.774854     31.549708
     -2.267267     16.450712     16.450712     32.901423
     -2.257257     18.986776     18.986776     37.973552
     -2.247247     22.845182     22.845182     45.690364
     -2.237237     27.381285     27.381285     54.762570
     -2.227227     31.974665     31.974665     63.949331
     -2.217217     36.110411     36.110411     72.220822
     -2.207207     39.399338     39.399338     78.798676
     -2.197197     41.554781     41.554781     83.109562
     -2.187187     42.366989     42.366989     84.733979
     -2.177177     41.714947     41.714947     83.429893
     -2.167167     39.622784     39.622784     79.245567
     -2.157157     36.322086     36.322086     72.644173
     -2.147147     32.257341     32.257341     64.514683
     -2.137137     27.994587     27.994587     55.989174
     -2.127127     24.054054     24.054054     48.108108
     -2.117117     20.744783     20.744783     41.489567
     -2.107107     18.089198     18.089198     36.178396
     -2.097097     15.877474     15.877474     31.754949
     -2.087087     13.817062     13.817062     27.634124
     -2.077077     11.692340     11.692340     23.384679
     -2.067067      9.454161      9.454161     18.908322
     -2.057057      7.209634      7.209634     14.419267
     -2.047047      5.140637      5.140637     10.281275
     -2.037037      3.408939      3.408939      6.817878
     -2.027027      2.096088      2.096088      4.192177
     -2.017017      1.194089      1.194089      2.388178
     -2.007007      0.633466      0.633466      1.266932
     -1.996997      0.323921      0.323921      0.647841
     -1.986987      0.188385      0.188385      0.376770
     -1.976977      0.183591      0.183591      0.367183
     -1.966967      0.309311      0.309311      0.618622
     -1.956957      0.610339      0.610339      1.220679
     -1.946947      1.171812      1.171812      2.343624
     -1.936937      2.104127      2.104127      4.208253
     -1.926927      3.513292      3.513292      7.026585
     -1.916917      5.458234      5.458234     10.916468
     -1.906907      7.906473      7.906473     15.812946
     -1.896897     10.707290     10.707290     21.414581
     -1.886887     13.599783     13.599783     27.199567
     -1.876877     16.260449     16.260449     32.520897
     -1.866867     18.377595     18.377595     36.755189
     -1.856857     19.728542     19.728542     39.457084
     -1.846847     20.235543     20.235543     40.471086
     -1.836837     19.984051     19.984051     39.968101
     -1.826827     19.195860     19.195860     38.391719
     -1.816817     18.158894     18.158894     36.317788
     -1.806807     17.129357     17.129357     34.258713
     -1.796797     16.239728     16.239728     32.479457
     -1.786787     15.455089     15.455089     30.910177
     -1.776777     14.605547     14.605547     29.211093
     -1.766767     13.484791     13.484791     26.969581
     -1.756757     11.966285     11.966285     23.932570
     -1.746747     10.077754     10.077754     20.155507
     -1.736737      8.000958      8.000958     16.001917
     -1.726727      6.008953      6.008953     12.017906
     -1.716717      4.385210      4.385210      8.770421
     -1.706707      3.368273      3.368273      6.736546
     -1.696697      3.136908      3.136908      6.273816
     -1.686687      3.817071      3.817071      7.634142
     -1.676677      5.476417      5.476417     10.952834
     -1.666667      8.084156      8.084156     16.168312
     -1.656657     11.446301     11.446301     22.892602
     -1.646647     15.158904     15.158904     30.317808
     -1.636637     18.631799     18.631799     37.263597
     -1.626627     21.209711     21.209711     42.419423
