# EIG2DOS: Utility for SIESTA to obtain the electronic density of states
#  E. Artacho, Apr 1999, A. Garcia, Apr 2012
#  Nick R. Papior, Feb 2017
# ------------------------------------------
# Eigenvalues calculated from a non-polarized calculation
# Eigenvalues read from siesta.EIG
# Kpoint weights read from siesta.KP
# Using smearing parameter:   0.0500
# Using 1000 points in the energy range
# Selected bands: 1 to: 2981
# Emin, Emax in file for selected band(s):    -27.1639351    218.3772550
# Nbands, Nspin, Nk   =   2981     1     1
# E_F                 =    -4.2213 eV --> (shifted to ZERO)
# Broadening          =     0.0500 eV
#
#        E            N(up)  (=)   N(down)         Ntot
     -5.000000     31.461252     31.461252     62.922505
     -4.989990     36.076839     36.076839     72.153679
     -4.979980     40.466191     40.466191     80.932382
     -4.969970     43.926510     43.926510     87.853021
     -4.959960     45.827873     45.827873     91.655747
     -4.949950     45.819110     45.819110     91.638221
     -4.939940     43.953067     43.953067     87.906134
     -4.929930     40.690999     40.690999     81.381997
     -4.919920     36.802600     36.802600     73.605200
     -4.909910     33.211460     33.211460     66.422920
     -4.899900     30.828842     30.828842     61.657683
     -4.889890     30.389020     30.389020     60.778040
     -4.879880     32.283976     32.283976     64.567951
     -4.869870     36.415909     36.415909     72.831818
     -4.859860     42.126104     42.126104     84.252208
     -4.849850     48.273647     48.273647     96.547295
     -4.839840     53.494356     53.494356    106.988712
     -4.829830     56.580846     56.580846    113.161693
     -4.819820     56.843838     56.843838    113.687676
     -4.809810     54.301747     54.301747    108.603494
     -4.799800     49.618582     49.618582     99.237163
     -4.789790     43.829438     43.829438     87.658876
     -4.779780     37.987004     37.987004     75.974007
     -4.769770     32.878447     32.878447     65.756894
     -4.759760     28.900632     28.900632     57.801264
     -4.749750     26.091160     26.091160     52.182319
     -4.739740     24.249226     24.249226     48.498452
     -4.729730     23.068804     23.068804     46.137607
     -4.719720     22.234706     22.234706     44.469411
     -4.709710     21.470879     21.470879     42.941758
     -4.699700     20.558403     20.558403     41.116806
     -4.689690     19.350680     19.350680     38.701360
     -4.679680     17.805816     17.805816     35.611631
     -4.669670     16.036341     16.036341     32.072683
     -4.659660     14.354398     14.354398     28.708796
     -4.649650     13.278523     13.278523     26.557047
     -4.639640     13.472735     13.472735     26.945469
     -4.629630     15.606848     15.606848     31.213697
     -4.619620     20.152959     20.152959     40.305917
     -4.609610     27.163764     27.163764     54.327527
     -4.599600     36.109334     36.109334     72.218667
     -4.589590     45.863319     45.863319     91.726638
     -4.579580     54.901939     54.901939    109.803878
     -4.569570     61.698823     61.698823    123.397646
     -4.559560     65.194342     65.194342    130.388683
     -4.549550     65.151113     65.151113    130.302225
     -4.539540     62.231350     62.231350    124.462701
     -4.529530     57.747508     57.747508    115.495015
     -4.519520     53.185920     53.185920    106.371841
     -4.509510     49.702778     49.702778     99.405556
     -4.499499     47.792316     47.792316     95.584631
     -4.489489     47.236351     47.236351     94.472702
     -4.479479     47.315636     47.315636     94.631273
     -4.469469     47.160916     47.160916     94.321832
     -4.459459     46.086642     46.086642     92.173284
     -4.449449     43.787335     43.787335     87.574671
     -4.439439     40.357537     40.357537     80.715074
     -4.429429     36.177869     36.177869     72.355737
     -4.419419     31.754251     31.754251     63.508501
     -4.409409     27.589169     27.589169     55.178339
     -4.399399     24.116392     24.116392     48.232784
     -4.389389     21.678366     21.678366     43.356731
     -4.379379     20.503805     20.503805     41.007609
     -4.369369     20.663334     20.663334     41.326668
     -4.359359     22.023039     22.023039     44.046078
     -4.349349     24.242381     24.242381     48.484762
     -4.339339     26.849992     26.849992     53.699985
     -4.329329     29.386076     29.386076     58.772152
     -4.319319     31.555529     31.555529     63.111057
     -4.309309     33.322043     33.322043     66.644086
     -4.299299     34.897194     34.897194     69.794388
     -4.289289     36.622946     36.622946     73.245892
     -4.279279     38.787936     38.787936     77.575872
     -4.269269     41.444079     41.444079     82.888157
     -4.259259     44.297490     44.297490     88.594980
     -4.249249     46.733525     46.733525     93.467051
     -4.239239     47.993809     47.993809     95.987619
     -4.229229     47.457128     47.457128     94.914256
     -4.219219     44.912684     44.912684     89.825368
     -4.209209     40.695622     40.695622     81.391244
     -4.199199     35.606959     35.606959     71.213917
     -4.189189     30.643978     30.643978     61.287957
     -4.179179     26.663667     26.663667     53.327334
     -4.169169     24.131840     24.131840     48.263679
     -4.159159     23.058380     23.058380     46.116761
     -4.149149     23.120606     23.120606     46.241212
     -4.139139     23.890534     23.890534     47.781069
     -4.129129     25.047994     25.047994     50.095988
     -4.119119     26.484229     26.484229     52.968458
     -4.109109     28.259024     28.259024     56.518049
     -4.099099     30.442506     30.442506     60.885013
     -4.089089     32.928572     32.928572     65.857143
     -4.079079     35.328987     35.328987     70.657974
     -4.069069     37.027732     37.027732     74.055465
     -4.059059     37.395914     37.395914     74.791829
     -4.049049     36.074161     36.074161     72.148322
     -4.039039     33.178768     33.178768     66.357536
     -4.029029     29.318914     29.318914     58.637829
     -4.019019     25.411509     25.411509     50.823017
     -4.009009     22.386235     22.386235     44.772469
     -3.998999     20.920502     20.920502     41.841003
     -3.988989     21.309130     21.309130     42.618259
     -3.978979     23.488333     23.488333     46.976665
     -3.968969     27.156573     27.156573     54.313146
     -3.958959     31.909475     31.909475     63.818949
     -3.948949     37.334585     37.334585     74.669170
     -3.938939     43.060772     43.060772     86.121544
     -3.928929     48.785872     48.785872     97.571745
     -3.918919     54.297937     54.297937    108.595873
     -3.908909     59.477532     59.477532    118.955065
     -3.898899     64.255155     64.255155    128.510311
     -3.888889     68.518608     68.518608    137.037216
     -3.878879     72.007869     72.007869    144.015738
     -3.868869     74.265091     74.265091    148.530182
     -3.858859     74.696537     74.696537    149.393074
     -3.848849     72.751007     72.751007    145.502014
     -3.838839     68.153860     68.153860    136.307721
     -3.828829     61.095273     61.095273    122.190545
     -3.818819     52.280809     52.280809    104.561618
     -3.808809     42.808501     42.808501     85.617002
     -3.798799     33.910353     33.910353     67.820706
     -3.788789     26.650018     26.650018     53.300036
     -3.778779     21.678424     21.678424     43.356848
     -3.768769     19.117483     19.117483     38.234966
     -3.758759     18.591056     18.591056     37.182111
     -3.748749     19.377340     19.377340     38.754679
     -3.738739     20.631328     20.631328     41.262657
     -3.728729     21.619102     21.619102     43.238203
     -3.718719     21.910157     21.910157     43.820315
     -3.708709     21.484209     21.484209     42.968418
     -3.698699     20.724180     20.724180     41.448360
     -3.688689     20.289497     20.289497     40.578993
     -3.678679     20.894006     20.894006     41.788012
     -3.668669     23.046461     23.046461     46.092921
     -3.658659     26.836650     26.836650     53.673299
     -3.648649     31.850007     31.850007     63.700014
     -3.638639     37.255926     37.255926     74.511852
     -3.628629     42.046820     42.046820     84.093639
     -3.618619     45.336920     45.336920     90.673841
     -3.608609     46.602224     46.602224     93.204448
     -3.598599     45.776239     45.776239     91.552479
     -3.588589     43.190668     43.190668     86.381337
     -3.578579     39.417651     39.417651     78.835302
     -3.568569     35.091786     35.091786     70.183572
     -3.558559     30.766072     30.766072     61.532145
     -3.548549     26.819408     26.819408     53.638817
     -3.538539     23.415421     23.415421     46.830842
     -3.528529     20.514603     20.514603     41.029206
     -3.518519     17.942166     17.942166     35.884332
     -3.508509     15.497141     15.497141     30.994281
     -3.498498     13.063681     13.063681     26.127361
     -3.488488     10.677385     10.677385     21.354771
     -3.478478      8.519663      8.519663     17.039326
     -3.468468      6.848799      6.848799     13.697598
     -3.458458      5.902515      5.902515     11.805030
     -3.448448      5.809919      5.809919     11.619837
     -3.438438      6.537747      6.537747     13.075495
     -3.428428      7.882555      7.882555     15.765111
     -3.418418      9.513559      9.513559     19.027118
     -3.408408     11.063426     11.063426     22.126852
     -3.398398     12.247952     12.247952     24.495904
     -3.388388     12.974863     12.974863     25.949727
     -3.378378     13.394031     13.394031     26.788063
     -3.368368     13.860032     13.860032     27.720065
     -3.358358     14.817215     14.817215     29.634429
     -3.348348     16.652584     16.652584     33.305167
     -3.338338     19.569144     19.569144     39.138288
     -3.328328     23.510635     23.510635     47.021270
     -3.318318     28.140896     28.140896     56.281791
     -3.308308     32.872697     32.872697     65.745393
     -3.298298     36.952998     36.952998     73.905996
     -3.288288     39.617674     39.617674     79.235349
     -3.278278     40.302117     40.302117     80.604234
     -3.268268     38.841708     38.841708     77.683416
     -3.258258     35.562283     35.562283     71.124567
     -3.248248     31.189343     31.189343     62.378687
     -3.238238     26.594003     26.594003     53.188005
     -3.228228     22.488084     22.488084     44.976169
     -3.218218     19.213473     19.213473     38.426945
     -3.208208     16.717523     16.717523     33.435047
     -3.198198     14.703564     14.703564     29.407128
     -3.188188     12.860270     12.860270     25.720539
     -3.178178     11.053526     11.053526     22.107052
     -3.168168      9.408349      9.408349     18.816699
     -3.158158      8.276148      8.276148     16.552295
     -3.148148      8.128416      8.128416     16.256831
     -3.138138      9.422792      9.422792     18.845583
     -3.128128     12.466861     12.466861     24.933723
     -3.118118     17.290662     17.290662     34.581323
     -3.108108     23.549069     23.549069     47.098139
     -3.098098     30.498702     30.498702     60.997403
     -3.088088     37.098305     37.098305     74.196609
     -3.078078     42.242655     42.242655     84.485310
     -3.068068     45.068138     45.068138     90.136276
     -3.058058     45.208655     45.208655     90.417309
     -3.048048     42.882455     42.882455     85.764910
     -3.038038     38.766254     38.766254     77.532508
     -3.028028     33.721752     33.721752     67.443504
     -3.018018     28.512866     28.512866     57.025732
     -3.008008     23.643012     23.643012     47.286023
     -2.997998     19.360542     19.360542     38.721085
     -2.987988     15.783911     15.783911     31.567822
     -2.977978     13.046108     13.046108     26.092216
     -2.967968     11.371404     11.371404     22.742808
     -2.957958     11.052086     11.052086     22.104172
     -2.947948     12.347058     12.347058     24.694116
     -2.937938     15.352153     15.352153     30.704306
     -2.927928     19.894316     19.894316     39.788631
     -2.917918     25.491358     25.491358     50.982716
     -2.907908     31.402809     31.402809     62.805618
     -2.897898     36.773008     36.773008     73.546016
     -2.887888     40.834034     40.834034     81.668068
     -2.877878     43.103878     43.103878     86.207756
     -2.867868     43.503798     43.503798     87.007596
     -2.857858     42.342298     42.342298     84.684596
     -2.847848     40.167175     40.167175     80.334350
     -2.837838     37.547195     37.547195     75.094389
     -2.827828     34.879133     34.879133     69.758267
     -2.817818     32.303319     32.303319     64.606638
     -2.807808     29.755443     29.755443     59.510886
     -2.797798     27.112827     27.112827     54.225653
     -2.787788     24.347211     24.347211     48.694422
     -2.777778     21.598793     21.598793     43.197586
     -2.767768     19.135727     19.135727     38.271455
     -2.757758     17.231047     17.231047     34.462094
     -2.747748     16.036017     16.036017     32.072034
     -2.737738     15.527907     15.527907     31.055813
     -2.727728     15.561366     15.561366     31.122731
     -2.717718     15.985248     15.985248     31.970496
     -2.707708     16.743153     16.743153     33.486306
     -2.697698     17.886066     17.886066     35.772131
     -2.687688     19.485671     19.485671     38.971342
     -2.677678     21.508872     21.508872     43.017744
     -2.667668     23.747640     23.747640     47.495280
     -2.657658     25.866430     25.866430     51.732859
     -2.647648     27.549980     27.549980     55.099960
     -2.637638     28.661826     28.661826     57.323652
     -2.627628     29.311144     29.311144     58.622288
     -2.617618     29.783936     29.783936     59.567872
     -2.607608     30.382614     30.382614     60.765227
     -2.597598     31.272046     31.272046     62.544092
     -2.587588     32.413520     32.413520     64.827040
     -2.577578     33.599883     33.599883     67.199766
     -2.567568     34.542417     34.542417     69.084833
     -2.557558     34.948931     34.948931     69.897862
     -2.547548     34.571020     34.571020     69.142041
     -2.537538     33.242257     33.242257     66.484514
     -2.527528     30.935206     30.935206     61.870412
     -2.517518     27.830254     27.830254     55.660508
     -2.507508     24.349863     24.349863     48.699726
     -2.497497     21.108150     21.108150     42.216300
     -2.487487     18.765713     18.765713     37.531425
     -2.477477     17.835473     17.835473     35.670947
     -2.467467     18.519248     18.519248     37.038497
     -2.457457     20.647255     20.647255     41.294510
     -2.447447     23.749913     23.749913     47.499826
     -2.437437     27.234616     27.234616     54.469232
     -2.427427     30.593826     30.593826     61.187652
     -2.417417     33.554556     33.554556     67.109111
     -2.407407     36.102777     36.102777     72.205554
     -2.397397     38.373040     38.373040     76.746080
     -2.387387     40.459717     40.459717     80.919435
     -2.377377     42.249500     42.249500     84.499001
     -2.367367     43.370556     43.370556     86.741111
     -2.357357     43.299687     43.299687     86.599374
     -2.347347     41.588455     41.588455     83.176911
     -2.337337     38.103519     38.103519     76.207039
     -2.327327     33.163223     33.163223     66.326446
     -2.317317     27.502106     27.502106     55.004212
     -2.307307     22.079934     22.079934     44.159867
     -2.297297     17.822179     17.822179     35.644358
     -2.287287     15.396557     15.396557     30.793115
     -2.277277     15.094447     15.094447     30.188894
     -2.267267     16.828355     16.828355     33.656711
     -2.257257     20.212828     20.212828     40.425655
     -2.247247     24.681807     24.681807     49.363615
     -2.237237     29.603440     29.603440     59.206879
     -2.227227     34.369026     34.369026     68.738052
     -2.217217     38.447855     38.447855     76.895711
     -2.207207     41.412985     41.412985     82.825969
     -2.197197     42.954205     42.954205     85.908411
     -2.187187     42.898126     42.898126     85.796252
     -2.177177     41.244609     41.244609     82.489218
     -2.167167     38.204803     38.204803     76.409606
     -2.157157     34.203655     34.203655     68.407310
     -2.147147     29.810964     29.810964     59.621927
     -2.137137     25.599440     25.599440     51.198881
     -2.127127     21.978617     21.978617     43.957234
     -2.117117     19.083157     19.083157     38.166314
     -2.107107     16.775372     16.775372     33.550743
     -2.097097     14.761321     14.761321     29.522641
     -2.087087     12.757194     12.757194     25.514388
     -2.077077     10.619752     10.619752     21.239503
     -2.067067      8.384221      8.384221     16.768441
     -2.057057      6.210886      6.210886     12.421772
     -2.047047      4.287948      4.287948      8.575896
     -2.037037      2.747891      2.747891      5.495783
     -2.027027      1.631146      1.631146      3.262293
     -2.017017      0.897263      0.897263      1.794526
     -2.007007      0.462133      0.462133      0.924267
     -1.996997      0.237496      0.237496      0.474991
     -1.986987      0.159466      0.159466      0.318932
     -1.976977      0.205022      0.205022      0.410045
     -1.966967      0.401644      0.401644      0.803287
     -1.956957      0.834100      0.834100      1.668201
     -1.946947      1.646196      1.646196      3.292393
     -1.936937      3.028501      3.028501      6.057001
     -1.926927      5.180827      5.180827     10.361653
     -1.916917      8.244743      8.244743     16.489486
     -1.906907     12.217331     12.217331     24.434661
     -1.896897     16.876670     16.876670     33.753341
     -1.886887     21.760080     21.760080     43.520160
     -1.876877     26.226432     26.226432     52.452863
     -1.866867     29.602404     29.602404     59.204808
     -1.856857     31.371868     31.371868     62.743736
     -1.846847     31.339042     31.339042     62.678084
     -1.836837     29.696931     29.696931     59.393861
     -1.826827     26.965792     26.965792     53.931585
     -1.816817     23.818687     23.818687     47.637373
     -1.806807     20.859712     20.859712     41.719425
     -1.796797     18.442828     18.442828     36.885657
     -1.786787     16.602686     16.602686     33.205373
     -1.776777     15.118563     15.118563     30.237126
     -1.766767     13.671392     13.671392     27.342784
     -1.756757     12.013810     12.013810     24.027619
     -1.746747     10.075947     10.075947     20.151895
     -1.736737      7.972177      7.972177     15.944354
     -1.726727      5.928808      5.928808     11.857615
     -1.716717      4.186951      4.186951      8.373901
     -1.706707      2.932278      2.932278      5.864557
     -1.696697      2.272987      2.272987      4.545974
     -1.686687      2.252780      2.252780      4.505561
     -1.676677      2.868134      2.868134      5.736268
     -1.666667      4.065485      4.065485      8.130970
     -1.656657      5.716805      5.716805     11.433610
     -1.646647      7.595992      7.595992     15.191985
     -1.636637      9.388289      9.388289     18.776577
     -1.626627     10.752475     10.752475     21.504950
