# EIG2DOS: Utility for SIESTA to obtain the electronic density of states
#  E. Artacho, Apr 1999, A. Garcia, Apr 2012
#  Nick R. Papior, Feb 2017
# ------------------------------------------
# Eigenvalues calculated from a non-polarized calculation
# Eigenvalues read from siesta.EIG
# Kpoint weights read from siesta.KP
# Using smearing parameter:   0.0500
# Using 1000 points in the energy range
# Selected bands: 1 to: 2981
# Emin, Emax in file for selected band(s):    -27.0789401    218.3322620
# Nbands, Nspin, Nk   =   2981     1     1
# E_F                 =    -4.2724 eV --> (shifted to ZERO)
# Broadening          =     0.0500 eV
#
#        E            N(up)  (=)   N(down)         Ntot
     -5.000000     45.028604     45.028604     90.057208
     -4.989990     46.289566     46.289566     92.579132
     -4.979980     46.622657     46.622657     93.245313
     -4.969970     46.034802     46.034802     92.069604
     -4.959960     44.555880     44.555880     89.111761
     -4.949950     42.274942     42.274942     84.549885
     -4.939940     39.380726     39.380726     78.761452
     -4.929930     36.189961     36.189961     72.379922
     -4.919920     33.155299     33.155299     66.310598
     -4.909910     30.845253     30.845253     61.690505
     -4.899900     29.880210     29.880210     59.760420
     -4.889890     30.805101     30.805101     61.610202
     -4.879880     33.900362     33.900362     67.800724
     -4.869870     38.982250     38.982250     77.964499
     -4.859860     45.293298     45.293298     90.586596
     -4.849850     51.586087     51.586087    103.172174
     -4.839840     56.430553     56.430553    112.861105
     -4.829830     58.653791     58.653791    117.307582
     -4.819820     57.727087     57.727087    115.454173
     -4.809810     53.919656     53.919656    107.839311
     -4.799800     48.151314     48.151314     96.302628
     -4.789790     41.629090     41.629090     83.258181
     -4.779780     35.448806     35.448806     70.897613
     -4.769770     30.328268     30.328268     60.656535
     -4.759760     26.539606     26.539606     53.079212
     -4.749750     24.000553     24.000553     48.001107
     -4.739740     22.431187     22.431187     44.862374
     -4.729730     21.493981     21.493981     42.987962
     -4.719720     20.878500     20.878500     41.756999
     -4.709710     20.331935     20.331935     40.663871
     -4.699700     19.658776     19.658776     39.317551
     -4.689690     18.719213     18.719213     37.438427
     -4.679680     17.449470     17.449470     34.898941
     -4.669670     15.908400     15.908400     31.816799
     -4.659660     14.329866     14.329866     28.659732
     -4.649650     13.143561     13.143561     26.287121
     -4.639640     12.929635     12.929635     25.859270
     -4.629630     14.294145     14.294145     28.588291
     -4.619620     17.682841     17.682841     35.365682
     -4.609610     23.181049     23.181049     46.362097
     -4.599600     30.370698     30.370698     60.741396
     -4.589590     38.321007     38.321007     76.642014
     -4.579580     45.761146     45.761146     91.522291
     -4.569570     51.415671     51.415671    102.831341
     -4.559560     54.399843     54.399843    108.799686
     -4.549550     54.520015     54.520015    109.040031
     -4.539540     52.345481     52.345481    104.690961
     -4.529530     49.011915     49.011915     98.023831
     -4.519520     45.834946     45.834946     91.669892
     -4.509510     43.890887     43.890887     87.781774
     -4.499499     43.721440     43.721440     87.442881
     -4.489489     45.248299     45.248299     90.496597
     -4.479479     47.886830     47.886830     95.773659
     -4.469469     50.776314     50.776314    101.552629
     -4.459459     53.026434     53.026434    106.052869
     -4.449449     53.910565     53.910565    107.821130
     -4.439439     52.985373     52.985373    105.970747
     -4.429429     50.149715     50.149715    100.299429
     -4.419419     45.658839     45.658839     91.317677
     -4.409409     40.092635     40.092635     80.185270
     -4.399399     34.263213     34.263213     68.526427
     -4.389389     29.056036     29.056036     58.112073
     -4.379379     25.229215     25.229215     50.458431
     -4.369369     23.228146     23.228146     46.456292
     -4.359359     23.083381     23.083381     46.166762
     -4.349349     24.436198     24.436198     48.872396
     -4.339339     26.686562     26.686562     53.373124
     -4.329329     29.206494     29.206494     58.412987
     -4.319319     31.535495     31.535495     63.070990
     -4.309309     33.487428     33.487428     66.974856
     -4.299299     35.141490     35.141490     70.282980
     -4.289289     36.737892     36.737892     73.475783
     -4.279279     38.527003     38.527003     77.054006
     -4.269269     40.623319     40.623319     81.246639
     -4.259259     42.905808     42.905808     85.811615
     -4.249249     44.997929     44.997929     89.995858
     -4.239239     46.350502     46.350502     92.701005
     -4.229229     46.422420     46.422420     92.844840
     -4.219219     44.904509     44.904509     89.809018
     -4.209209     41.887595     41.887595     83.775189
     -4.199199     37.879218     37.879218     75.758435
     -4.189189     33.641000     33.641000     67.282001
     -4.179179     29.916396     29.916396     59.832791
     -4.169169     27.182082     27.182082     54.364165
     -4.159159     25.541737     25.541737     51.083473
     -4.149149     24.799245     24.799245     49.598489
     -4.139139     24.653412     24.653412     49.306824
     -4.129129     24.901354     24.901354     49.802708
     -4.119119     25.543794     25.543794     51.087588
     -4.109109     26.739927     26.739927     53.479853
     -4.099099     28.635444     28.635444     57.270888
     -4.089089     31.155480     31.155480     62.310960
     -4.079079     33.884895     33.884895     67.769790
     -4.069069     36.127522     36.127522     72.255044
     -4.059059     37.145811     37.145811     74.291622
     -4.049049     36.475410     36.475410     72.950819
     -4.039039     34.152757     34.152757     68.305514
     -4.029029     30.732334     30.732334     61.464667
     -4.019019     27.085907     27.085907     54.171813
     -4.009009     24.095161     24.095161     48.190322
     -3.998999     22.394499     22.394499     44.788997
     -3.988989     22.269062     22.269062     44.538124
     -3.978979     23.708318     23.708318     47.416636
     -3.968969     26.532472     26.532472     53.064943
     -3.958959     30.497172     30.497172     60.994345
     -3.948949     35.334215     35.334215     70.668431
     -3.938939     40.751244     40.751244     81.502488
     -3.928929     46.439860     46.439860     92.879720
     -3.918919     52.115380     52.115380    104.230760
     -3.908909     57.563155     57.563155    115.126310
     -3.898899     62.641812     62.641812    125.283624
     -3.888889     67.216339     67.216339    134.432678
     -3.878879     71.048073     71.048073    142.096146
     -3.868869     73.714167     73.714167    147.428334
     -3.858859     74.631254     74.631254    149.262507
     -3.848849     73.210134     73.210134    146.420268
     -3.838839     69.095013     69.095013    138.190026
     -3.828829     62.383505     62.383505    124.767010
     -3.818819     53.717319     53.717319    107.434638
     -3.808809     44.185420     44.185420     88.370840
     -3.798799     35.065144     35.065144     70.130288
     -3.788789     27.496919     27.496919     54.993837
     -3.778779     22.209662     22.209662     44.419323
     -3.768769     19.382331     19.382331     38.764661
     -3.758759     18.667505     18.667505     37.335009
     -3.748749     19.348302     19.348302     38.696604
     -3.738739     20.569862     20.569862     41.139724
     -3.728729     21.581056     21.581056     43.162112
     -3.718719     21.930540     21.930540     43.861080
     -3.708709     21.574759     21.574759     43.149517
     -3.698699     20.871885     20.871885     41.743770
     -3.688689     20.457549     20.457549     40.915097
     -3.678679     21.027335     21.027335     42.054669
     -3.668669     23.083464     23.083464     46.166927
     -3.658659     26.726710     26.726710     53.453419
     -3.648649     31.573002     31.573002     63.146004
     -3.638639     36.836620     36.836620     73.673240
     -3.628629     41.556369     41.556369     83.112737
     -3.618619     44.877667     44.877667     89.755335
     -3.608609     46.279392     46.279392     92.558784
     -3.598599     45.666976     45.666976     91.333952
     -3.588589     43.322692     43.322692     86.645384
     -3.578579     39.765145     39.765145     79.530290
     -3.568569     35.588030     35.588030     71.176060
     -3.558559     31.325449     31.325449     62.650898
     -3.548549     27.359435     27.359435     54.718870
     -3.538539     23.872299     23.872299     47.744598
     -3.528529     20.850618     20.850618     41.701237
     -3.518519     18.146774     18.146774     36.293548
     -3.508509     15.584363     15.584363     31.168725
     -3.498498     13.067380     13.067380     26.134760
     -3.488488     10.644835     10.644835     21.289669
     -3.478478      8.503473      8.503473     17.006945
     -3.468468      6.897450      6.897450     13.794899
     -3.458458      6.050006      6.050006     12.100013
     -3.448448      6.065576      6.065576     12.131153
     -3.438438      6.878512      6.878512     13.757025
     -3.428428      8.251541      8.251541     16.503082
     -3.418418      9.828594      9.828594     19.657189
     -3.408408     11.236263     11.236263     22.472525
     -3.398398     12.209668     12.209668     24.419336
     -3.388388     12.698984     12.698984     25.397967
     -3.378378     12.909002     12.909002     25.818005
     -3.368368     13.246884     13.246884     26.493768
     -3.358358     14.193359     14.193359     28.386718
     -3.348348     16.145580     16.145580     32.291160
     -3.338338     19.284948     19.284948     38.569897
     -3.328328     23.501722     23.501722     47.003443
     -3.318318     28.381706     28.381706     56.763412
     -3.308308     33.250382     33.250382     66.500764
     -3.298298     37.276618     37.276618     74.553237
     -3.288288     39.639658     39.639658     79.279317
     -3.278278     39.738956     39.738956     79.477912
     -3.268268     37.384712     37.384712     74.769424
     -3.258258     32.884181     32.884181     65.768363
     -3.248248     26.967688     26.967688     53.935375
     -3.238238     20.572350     20.572350     41.144700
     -3.228228     14.574019     14.574019     29.148038
     -3.218218      9.579299      9.579299     19.158598
     -3.208208      5.848405      5.848405     11.696811
     -3.198198      3.348850      3.348850      6.697701
     -3.188188      1.886143      1.886143      3.772286
     -3.178178      1.245318      1.245318      2.490635
     -3.168168      1.297581      1.297581      2.595161
     -3.158158      2.054174      2.054174      4.108348
     -3.148148      3.665566      3.665566      7.331132
     -3.138138      6.367023      6.367023     12.734045
     -3.128128     10.373761     10.373761     20.747522
     -3.118118     15.742614     15.742614     31.485228
     -3.108108     22.242297     22.242297     44.484593
     -3.098098     29.294897     29.294897     58.589794
     -3.088088     36.044001     36.044001     72.088002
     -3.078078     41.558384     41.558384     83.116769
     -3.068068     45.109452     45.109452     90.218904
     -3.058058     46.405220     46.405220     92.810440
     -3.048048     45.664748     45.664748     91.329496
     -3.038038     43.486836     43.486836     86.973672
     -3.028028     40.573162     40.573162     81.146323
     -3.018018     37.446935     37.446935     74.893870
     -3.008008     34.310768     34.310768     68.621536
     -2.997998     31.106400     31.106400     62.212799
     -2.987988     27.723183     27.723183     55.446365
     -2.977978     24.223616     24.223616     48.447232
     -2.967968     20.957159     20.957159     41.914319
     -2.957958     18.506610     18.506610     37.013219
     -2.947948     17.501228     17.501228     35.002457
     -2.937938     18.385708     18.385708     36.771416
     -2.927928     21.237174     21.237174     42.474347
     -2.917918     25.691259     25.691259     51.382518
     -2.907908     30.998789     30.998789     61.997578
     -2.897898     36.199136     36.199136     72.398271
     -2.887888     40.364542     40.364542     80.729085
     -2.877878     42.843097     42.843097     85.686193
     -2.867868     43.418436     43.418436     86.836873
     -2.857858     42.325604     42.325604     84.651209
     -2.847848     40.115201     40.115201     80.230403
     -2.837838     37.421789     37.421789     74.843579
     -2.827828     34.735324     34.735324     69.470649
     -2.817818     32.271541     32.271541     64.543082
     -2.807808     29.987382     29.987382     59.974763
     -2.797798     27.715350     27.715350     55.430700
     -2.787788     25.333804     25.333804     50.667609
     -2.777778     22.878848     22.878848     45.757695
     -2.767768     20.543210     20.543210     41.086419
     -2.757758     18.575581     18.575581     37.151163
     -2.747748     17.151250     17.151250     34.302500
     -2.737738     16.298003     16.298003     32.596006
     -2.727728     15.922067     15.922067     31.844135
     -2.717718     15.911205     15.911205     31.822411
     -2.707708     16.239157     16.239157     32.478314
     -2.697698     16.993186     16.993186     33.986371
     -2.687688     18.298589     18.298589     36.597179
     -2.677678     20.187575     20.187575     40.375150
     -2.667668     22.504649     22.504649     45.009299
     -2.657658     24.923107     24.923107     49.846215
     -2.647648     27.075441     27.075441     54.150883
     -2.637638     28.722014     28.722014     57.444028
     -2.627628     29.852779     29.852779     59.705558
     -2.617618     30.659330     30.659330     61.318661
     -2.607608     31.400052     31.400052     62.800104
     -2.597598     32.247500     32.247500     64.495000
     -2.587588     33.206987     33.206987     66.413974
     -2.577578     34.134019     34.134019     68.268038
     -2.567568     34.809164     34.809164     69.618328
     -2.557558     35.007155     35.007155     70.014309
     -2.547548     34.531990     34.531990     69.063979
     -2.537538     33.239983     33.239983     66.479967
     -2.527528     31.086938     31.086938     62.173876
     -2.517518     28.201094     28.201094     56.402188
     -2.507508     24.935539     24.935539     49.871079
     -2.497497     21.840372     21.840372     43.680743
     -2.487487     19.532780     19.532780     39.065560
     -2.477477     18.505840     18.505840     37.011680
     -2.467467     18.959914     18.959914     37.919829
     -2.457457     20.736927     20.736927     41.473854
     -2.447447     23.391482     23.391482     46.782964
     -2.437437     26.369944     26.369944     52.739888
     -2.427427     29.219248     29.219248     58.438496
     -2.417417     31.732881     31.732881     63.465762
     -2.407407     33.968435     33.968435     67.936870
     -2.397397     36.128592     36.128592     72.257184
     -2.387387     38.361202     38.361202     76.722405
     -2.377377     40.575984     40.575984     81.151968
     -2.367367     42.374976     42.374976     84.749951
     -2.357357     43.147162     43.147162     86.294325
     -2.347347     42.301019     42.301019     84.602039
     -2.337337     39.536568     39.536568     79.073136
     -2.327327     35.030533     35.030533     70.061065
     -2.317317     29.445250     29.445250     58.890500
     -2.307307     23.756991     23.756991     47.513983
     -2.297297     18.983109     18.983109     37.966217
     -2.287287     15.921965     15.921965     31.843930
     -2.277277     14.992734     14.992734     29.985468
     -2.267267     16.202115     16.202115     32.404231
     -2.257257     19.212783     19.212783     38.425566
     -2.247247     23.466118     23.466118     46.932237
     -2.237237     28.314617     28.314617     56.629233
     -2.227227     33.131617     33.131617     66.263233
     -2.217217     37.379491     37.379491     74.758982
     -2.207207     40.633790     40.633790     81.267580
     -2.197197     42.580388     42.580388     85.160777
     -2.187187     43.016033     43.016033     86.032065
     -2.177177     41.876039     41.876039     83.752078
     -2.167167     39.283544     39.283544     78.567089
     -2.157157     35.580453     35.580453     71.160906
     -2.147147     31.290409     31.290409     62.580819
     -2.137137     26.995329     26.995329     53.990657
     -2.127127     23.164135     23.164135     46.328270
     -2.117117     20.014768     20.014768     40.029536
     -2.107107     17.482961     17.482961     34.965922
     -2.097097     15.313910     15.313910     30.627820
     -2.087087     13.223643     13.223643     26.447286
     -2.077077     11.042463     11.042463     22.084925
     -2.067067      8.773474      8.773474     17.546948
     -2.057057      6.555563      6.555563     13.111126
     -2.047047      4.571932      4.571932      9.143863
     -2.037037      2.962435      2.962435      5.924869
     -2.027027      1.779082      1.779082      3.558163
     -2.017017      0.990466      0.990466      1.980932
     -2.007007      0.516196      0.516196      1.032392
     -1.996997      0.266911      0.266911      0.533821
     -1.986987      0.174307      0.174307      0.348615
     -1.976977      0.207697      0.207697      0.415394
     -1.966967      0.380543      0.380543      0.761087
     -1.956957      0.750320      0.750320      1.500640
     -1.946947      1.410789      1.410789      2.821579
     -1.936937      2.472385      2.472385      4.944770
     -1.926927      4.027935      4.027935      8.055870
     -1.916917      6.108572      6.108572     12.217145
     -1.906907      8.644571      8.644571     17.289143
     -1.896897     11.450668     11.450668     22.901336
     -1.886887     14.249101     14.249101     28.498201
     -1.876877     16.727640     16.727640     33.455280
     -1.866867     18.613763     18.613763     37.227525
     -1.856857     19.740114     19.740114     39.480227
     -1.846847     20.082170     20.082170     40.164340
     -1.836837     19.759115     19.759115     39.518229
     -1.826827     18.996359     18.996359     37.992717
     -1.816817     18.054693     18.054693     36.109385
     -1.806807     17.143216     17.143216     34.286433
     -1.796797     16.349066     16.349066     32.698133
     -1.786787     15.621900     15.621900     31.243800
     -1.776777     14.830819     14.830819     29.661637
     -1.766767     13.870662     13.870662     27.741323
     -1.756757     12.759440     12.759440     25.518880
     -1.746747     11.666851     11.666851     23.333701
     -1.736737     10.850990     10.850990     21.701980
     -1.726727     10.534241     10.534241     21.068482
     -1.716717     10.786189     10.786189     21.572378
     -1.706707     11.479324     11.479324     22.958648
     -1.696697     12.343861     12.343861     24.687723
     -1.686687     13.093351     13.093351     26.186701
     -1.676677     13.552659     13.552659     27.105318
     -1.666667     13.717512     13.717512     27.435024
     -1.656657     13.713682     13.713682     27.427363
     -1.646647     13.683407     13.683407     27.366814
     -1.636637     13.671089     13.671089     27.342177
     -1.626627     13.580905     13.580905     27.161810
