# EIG2DOS: Utility for SIESTA to obtain the electronic density of states
#  E. Artacho, Apr 1999, A. Garcia, Apr 2012
#  Nick R. Papior, Feb 2017
# ------------------------------------------
# Eigenvalues calculated from a non-polarized calculation
# Eigenvalues read from siesta.EIG
# Kpoint weights read from siesta.KP
# Using smearing parameter:   0.0500
# Using 1000 points in the energy range
# Selected bands: 1 to: 2981
# Emin, Emax in file for selected band(s):    -27.3279467    218.4012170
# Nbands, Nspin, Nk   =   2981     1     1
# E_F                 =    -4.1913 eV --> (shifted to ZERO)
# Broadening          =     0.0500 eV
#
#        E            N(up)  (=)   N(down)         Ntot
     -5.000000     34.461849     34.461849     68.923698
     -4.989990     39.445834     39.445834     78.891667
     -4.979980     43.680905     43.680905     87.361810
     -4.969970     46.393885     46.393885     92.787770
     -4.959960     47.078614     47.078614     94.157228
     -4.949950     45.666724     45.666724     91.333448
     -4.939940     42.552639     42.552639     85.105278
     -4.929930     38.485985     38.485985     76.971970
     -4.919920     34.397374     34.397374     68.794747
     -4.909910     31.222941     31.222941     62.445882
     -4.899900     29.752868     29.752868     59.505737
     -4.889890     30.493208     30.493208     60.986416
     -4.879880     33.534403     33.534403     67.068806
     -4.869870     38.459500     38.459500     76.919001
     -4.859860     44.358693     44.358693     88.717386
     -4.849850     50.001818     50.001818    100.003637
     -4.839840     54.151570     54.151570    108.303141
     -4.829830     55.917750     55.917750    111.835499
     -4.819820     55.013520     55.013520    110.027040
     -4.809810     51.809101     51.809101    103.618202
     -4.799800     47.168964     47.168964     94.337928
     -4.789790     42.152459     42.152459     84.304918
     -4.779780     37.703135     37.703135     75.406270
     -4.769770     34.431812     34.431812     68.863625
     -4.759760     32.536763     32.536763     65.073527
     -4.749750     31.844134     31.844134     63.688268
     -4.739740     31.922120     31.922120     63.844240
     -4.729730     32.223177     32.223177     64.446354
     -4.719720     32.221103     32.221103     64.442206
     -4.709710     31.520159     31.520159     63.040318
     -4.699700     29.921988     29.921988     59.843975
     -4.689690     27.448456     27.448456     54.896911
     -4.679680     24.331966     24.331966     48.663931
     -4.669670     20.989185     20.989185     41.978371
     -4.659660     17.984499     17.984499     35.968997
     -4.649650     15.973244     15.973244     31.946489
     -4.639640     15.606299     15.606299     31.212598
     -4.629630     17.386996     17.386996     34.773992
     -4.619620     21.498864     21.498864     42.997728
     -4.609610     27.657873     27.657873     55.315745
     -4.599600     35.066097     35.066097     70.132193
     -4.589590     42.531509     42.531509     85.063019
     -4.579580     48.759679     48.759679     97.519358
     -4.569570     52.736239     52.736239    105.472478
     -4.559560     54.052637     54.052637    108.105274
     -4.549550     53.030376     53.030376    106.060752
     -4.539540     50.580610     50.580610    101.161221
     -4.529530     47.854750     47.854750     95.709501
     -4.519520     45.832207     45.832207     91.664414
     -4.509510     45.008530     45.008530     90.017061
     -4.499499     45.290989     45.290989     90.581979
     -4.489489     46.115107     46.115107     92.230214
     -4.479479     46.709852     46.709852     93.419704
     -4.469469     46.393696     46.393696     92.787392
     -4.459459     44.790018     44.790018     89.580037
     -4.449449     41.899525     41.899525     83.799051
     -4.439439     38.035113     38.035113     76.070226
     -4.429429     33.679962     33.679962     67.359923
     -4.419419     29.347459     29.347459     58.694917
     -4.409409     25.495860     25.495860     50.991720
     -4.399399     22.500548     22.500548     45.001096
     -4.389389     20.646948     20.646948     41.293896
     -4.379379     20.104939     20.104939     40.209877
     -4.369369     20.879750     20.879750     41.759500
     -4.359359     22.774873     22.774873     45.549746
     -4.349349     25.414112     25.414112     50.828224
     -4.339339     28.340520     28.340520     56.681041
     -4.329329     31.160271     31.160271     62.320541
     -4.319319     33.665610     33.665610     67.331219
     -4.309309     35.876160     35.876160     71.752321
     -4.299299     37.976759     37.976759     75.953518
     -4.289289     40.177533     40.177533     80.355067
     -4.279279     42.554089     42.554089     85.108178
     -4.269269     44.933722     44.933722     89.867443
     -4.259259     46.880711     46.880711     93.761421
     -4.249249     47.803694     47.803694     95.607388
     -4.239239     47.163057     47.163057     94.326114
     -4.229229     44.706359     44.706359     89.412718
     -4.219219     40.629668     40.629668     81.259337
     -4.209209     35.578983     35.578983     71.157965
     -4.199199     30.472665     30.472665     60.945331
     -4.189189     26.212131     26.212131     52.424263
     -4.179179     23.404543     23.404543     46.809085
     -4.169169     22.214820     22.214820     44.429639
     -4.159159     22.399969     22.399969     44.799937
     -4.149149     23.493480     23.493480     46.986960
     -4.139139     25.043667     25.043667     50.087333
     -4.129129     26.792466     26.792466     53.584932
     -4.119119     28.713334     28.713334     57.426668
     -4.109109     30.894915     30.894915     61.789830
     -4.099099     33.336043     33.336043     66.672087
     -4.089089     35.772648     35.772648     71.545296
     -4.079079     37.653777     37.653777     75.307555
     -4.069069     38.310683     38.310683     76.621366
     -4.059059     37.251375     37.251375     74.502750
     -4.049049     34.429737     34.429737     68.859474
     -4.039039     30.341428     30.341428     60.682856
     -4.029029     25.891581     25.891581     51.783161
     -4.019019     22.102733     22.102733     44.205465
     -4.009009     19.807007     19.807007     39.614013
     -3.998999     19.453718     19.453718     38.907435
     -3.988989     21.083409     21.083409     42.166819
     -3.978979     24.430831     24.430831     48.861662
     -3.968969     29.074216     29.074216     58.148431
     -3.958959     34.560140     34.560140     69.120280
     -3.948949     40.477839     40.477839     80.955677
     -3.938939     46.495015     46.495015     92.990031
     -3.928929     52.373997     52.373997    104.747994
     -3.918919     57.968117     57.968117    115.936234
     -3.908909     63.181822     63.181822    126.363643
     -3.898899     67.888605     67.888605    135.777211
     -3.888889     71.835530     71.835530    143.671059
     -3.878879     74.592535     74.592535    149.185071
     -3.868869     75.599233     75.599233    151.198465
     -3.858859     74.317211     74.317211    148.634422
     -3.848849     70.437827     70.437827    140.875653
     -3.838839     64.059298     64.059298    128.118596
     -3.828829     55.753336     55.753336    111.506671
     -3.818819     46.485311     46.485311     92.970623
     -3.808809     37.409381     37.409381     74.818762
     -3.798799     29.604639     29.604639     59.209279
     -3.788789     23.834251     23.834251     47.668503
     -3.778779     20.395545     20.395545     40.791090
     -3.768769     19.095829     19.095829     38.191658
     -3.758759     19.350855     19.350855     38.701709
     -3.748749     20.372192     20.372192     40.744384
     -3.738739     21.392137     21.392137     42.784275
     -3.728729     21.870396     21.870396     43.740792
     -3.718719     21.633235     21.633235     43.266470
     -3.708709     20.910267     20.910267     41.820534
     -3.698699     20.255130     20.255130     40.510260
     -3.688689     20.363410     20.363410     40.726820
     -3.678679     21.831777     21.831777     43.663555
     -3.668669     24.928844     24.928844     49.857689
     -3.658659     29.457321     29.457321     58.914642
     -3.648649     34.766102     34.766102     69.532204
     -3.638639     39.918870     39.918870     79.837739
     -3.628629     43.961443     43.961443     87.922886
     -3.618619     46.186583     46.186583     92.373166
     -3.608609     46.299337     46.299337     92.598675
     -3.598599     44.437474     44.437474     88.874949
     -3.588589     41.068044     41.068044     82.136088
     -3.578579     36.822604     36.822604     73.645207
     -3.568569     32.332960     32.332960     64.665921
     -3.558559     28.102657     28.102657     56.205315
     -3.548549     24.426708     24.426708     48.853416
     -3.538539     21.366892     21.366892     42.733784
     -3.528529     18.790553     18.790553     37.581106
     -3.518519     16.468625     16.468625     32.937249
     -3.508509     14.202609     14.202609     28.405218
     -3.498498     11.930495     11.930495     23.860991
     -3.488488      9.768286      9.768286     19.536573
     -3.478478      7.975721      7.975721     15.951441
     -3.468468      6.869500      6.869500     13.739000
     -3.458458      6.722333      6.722333     13.444665
     -3.448448      7.678133      7.678133     15.356265
     -3.438438      9.697884      9.697884     19.395768
     -3.428428     12.542954     12.542954     25.085907
     -3.418418     15.804341     15.804341     31.608683
     -3.408408     18.985324     18.985324     37.970648
     -3.398398     21.630122     21.630122     43.260244
     -3.388388     23.465626     23.465626     46.931252
     -3.378378     24.503580     24.503580     49.007159
     -3.368368     25.054083     25.054083     50.108165
     -3.358358     25.631294     25.631294     51.262588
     -3.348348     26.774759     26.774759     53.549518
     -3.338338     28.843593     28.843593     57.687187
     -3.328328     31.852104     31.852104     63.704208
     -3.318318     35.404802     35.404802     70.809604
     -3.308308     38.763736     38.763736     77.527472
     -3.298298     41.045574     41.045574     82.091148
     -3.288288     41.500725     41.500725     83.001450
     -3.278278     39.782212     39.782212     79.564423
     -3.268268     36.094013     36.094013     72.188025
     -3.258258     31.142560     31.142560     62.285120
     -3.248248     25.897895     25.897895     51.795791
     -3.238238     21.261554     21.261554     42.523107
     -3.228228     17.783029     17.783029     35.566058
     -3.218218     15.538987     15.538987     31.077973
     -3.208208     14.207791     14.207791     28.415581
     -3.198198     13.283946     13.283946     26.567893
     -3.188188     12.326660     12.326660     24.653320
     -3.178178     11.141179     11.141179     22.282357
     -3.168168      9.838329      9.838329     19.676658
     -3.158158      8.776193      8.776193     17.552387
     -3.148148      8.427986      8.427986     16.855973
     -3.138138      9.228398      9.228398     18.456795
     -3.128128     11.435885     11.435885     22.871771
     -3.118118     15.032044     15.032044     30.064088
     -3.108108     19.675763     19.675763     39.351525
     -3.098098     24.734128     24.734128     49.468257
     -3.088088     29.404766     29.404766     58.809531
     -3.078078     32.913020     32.913020     65.826039
     -3.068068     34.723442     34.723442     69.446883
     -3.058058     34.679928     34.679928     69.359856
     -3.048048     33.010012     33.010012     66.020023
     -3.038038     30.193476     30.193476     60.386951
     -3.028028     26.766410     26.766410     53.532820
     -3.018018     23.162190     23.162190     46.324381
     -3.008008     19.659850     19.659850     39.319700
     -2.997998     16.440282     16.440282     32.880563
     -2.987988     13.689642     13.689642     27.379285
     -2.977978     11.673655     11.673655     23.347309
     -2.967968     10.736448     10.736448     21.472896
     -2.957958     11.224266     11.224266     22.448533
     -2.947948     13.367776     13.367776     26.735551
     -2.937938     17.167129     17.167129     34.334259
     -2.927928     22.319667     22.319667     44.639334
     -2.917918     28.220911     28.220911     56.441821
     -2.907908     34.055272     34.055272     68.110544
     -2.897898     38.968146     38.968146     77.936292
     -2.887888     42.277295     42.277295     84.554590
     -2.877878     43.652998     43.652998     87.305995
     -2.867868     43.193548     43.193548     86.387096
     -2.857858     41.356510     41.356510     82.713019
     -2.847848     38.767248     38.767248     77.534496
     -2.837838     35.985321     35.985321     71.970642
     -2.827828     33.332379     33.332379     66.664759
     -2.817818     30.855035     30.855035     61.710070
     -2.807808     28.425944     28.425944     56.851887
     -2.797798     25.914697     25.914697     51.829394
     -2.787788     23.328088     23.328088     46.656176
     -2.777778     20.844928     20.844928     41.689857
     -2.767768     18.737414     18.737414     37.474827
     -2.757758     17.238412     17.238412     34.476825
     -2.747748     16.441637     16.441637     32.883273
     -2.737738     16.293573     16.293573     32.587147
     -2.727728     16.671060     16.671060     33.342119
     -2.717718     17.479394     17.479394     34.958788
     -2.707708     18.693614     18.693614     37.387228
     -2.697698     20.310467     20.310467     40.620935
     -2.687688     22.250423     22.250423     44.500846
     -2.677678     24.295004     24.295004     48.590007
     -2.667668     26.126987     26.126987     52.253974
     -2.657658     27.467822     27.467822     54.935644
     -2.647648     28.229947     28.229947     56.459894
     -2.637638     28.580279     28.580279     57.160559
     -2.627628     28.864321     28.864321     57.728642
     -2.617618     29.430884     29.430884     58.861768
     -2.607608     30.459394     30.459394     60.918789
     -2.597598     31.881850     31.881850     63.763700
     -2.587588     33.422766     33.422766     66.845531
     -2.577578     34.708921     34.708921     69.417841
     -2.567568     35.378108     35.378108     70.756216
     -2.557558     35.148598     35.148598     70.297197
     -2.547548     33.859616     33.859616     67.719231
     -2.537538     31.511820     31.511820     63.023641
     -2.527528     28.313503     28.313503     56.627005
     -2.517518     24.701210     24.701210     49.402420
     -2.507508     21.291956     21.291956     42.583913
     -2.497497     18.752190     18.752190     37.504381
     -2.487487     17.616723     17.616723     35.233447
     -2.477477     18.125531     18.125531     36.251061
     -2.467467     20.146975     20.146975     40.293950
     -2.457457     23.224048     23.224048     46.448096
     -2.447447     26.731722     26.731722     53.463444
     -2.437437     30.087991     30.087991     60.175982
     -2.427427     32.935767     32.935767     65.871534
     -2.417417     35.219221     35.219221     70.438443
     -2.407407     37.118213     37.118213     74.236425
     -2.397397     38.866095     38.866095     77.732190
     -2.387387     40.534856     40.534856     81.069712
     -2.377377     41.897968     41.897968     83.795936
     -2.367367     42.455041     42.455041     84.910082
     -2.357357     41.626311     41.626311     83.252622
     -2.347347     39.033439     39.033439     78.066879
     -2.337337     34.728886     34.728886     69.457771
     -2.327327     29.257458     29.257458     58.514916
     -2.317317     23.521567     23.521567     47.043133
     -2.307307     18.521227     18.521227     37.042454
     -2.297297     15.089454     15.089454     30.178908
     -2.287287     13.721097     13.721097     27.442195
     -2.277277     14.526945     14.526945     29.053889
     -2.267267     17.284620     17.284620     34.569240
     -2.257257     21.534275     21.534275     43.068550
     -2.247247     26.677601     26.677601     53.355202
     -2.237237     32.061390     32.061390     64.122781
     -2.227227     37.043812     37.043812     74.087624
     -2.217217     41.048556     41.048556     82.097112
     -2.207207     43.613502     43.613502     87.227005
     -2.197197     44.439633     44.439633     88.879266
     -2.187187     43.440458     43.440458     86.880915
     -2.177177     40.779754     40.779754     81.559508
     -2.167167     36.871232     36.871232     73.742464
     -2.157157     32.311982     32.311982     64.623965
     -2.147147     27.744584     27.744584     55.489169
     -2.137137     23.684908     23.684908     47.369815
     -2.127127     20.386912     20.386912     40.773824
     -2.117117     17.811870     17.811870     35.623741
     -2.107107     15.720879     15.720879     31.441759
     -2.097097     13.843855     13.843855     27.687711
     -2.087087     12.037964     12.037964     24.075927
     -2.077077     10.358822     10.358822     20.717644
     -2.067067      9.018723      9.018723     18.037445
     -2.057057      8.263465      8.263465     16.526930
     -2.047047      8.232157      8.232157     16.464314
     -2.037037      8.863120      8.863120     17.726241
     -2.027027      9.883573      9.883573     19.767146
     -2.017017     10.886043     10.886043     21.772086
     -2.007007     11.461670     11.461670     22.923340
     -1.996997     11.338579     11.338579     22.677158
     -1.986987     10.471327     10.471327     20.942654
     -1.976977      9.049088      9.049088     18.098175
     -1.966967      7.427045      7.427045     14.854090
     -1.956957      6.017186      6.017186     12.034373
     -1.946947      5.183369      5.183369     10.366738
     -1.936937      5.169782      5.169782     10.339564
     -1.926927      6.067507      6.067507     12.135014
     -1.916917      7.809418      7.809418     15.618835
     -1.906907     10.185092     10.185092     20.370184
     -1.896897     12.875458     12.875458     25.750916
     -1.886887     15.508739     15.508739     31.017478
     -1.876877     17.731478     17.731478     35.462957
     -1.866867     19.278872     19.278872     38.557744
     -1.856857     20.026240     20.026240     40.052480
     -1.846847     20.008709     20.008709     40.017419
     -1.836837     19.402950     19.402950     38.805900
     -1.826827     18.470389     18.470389     36.940778
     -1.816817     17.470451     17.470451     34.940901
     -1.806807     16.568276     16.568276     33.136552
     -1.796797     15.775512     15.775512     31.551025
     -1.786787     14.958267     14.958267     29.916534
     -1.776777     13.916067     13.916067     27.832134
     -1.766767     12.494983     12.494983     24.989965
     -1.756757     10.676071     10.676071     21.352142
     -1.746747      8.595048      8.595048     17.190096
     -1.736737      6.490982      6.490982     12.981964
     -1.726727      4.621100      4.621100      9.242200
     -1.716717      3.190024      3.190024      6.380049
     -1.706707      2.322023      2.322023      4.644046
     -1.696697      2.072243      2.072243      4.144485
     -1.686687      2.449939      2.449939      4.899877
     -1.676677      3.425537      3.425537      6.851074
     -1.666667      4.911440      4.911440      9.822880
     -1.656657      6.731358      6.731358     13.462715
     -1.646647      8.609427      8.609427     17.218855
     -1.636637     10.207184     10.207184     20.414368
     -1.626627     11.212586     11.212586     22.425172
