# EIG2DOS: Utility for SIESTA to obtain the electronic density of states
#  E. Artacho, Apr 1999, A. Garcia, Apr 2012
#  Nick R. Papior, Feb 2017
# ------------------------------------------
# Eigenvalues calculated from a non-polarized calculation
# Eigenvalues read from siesta.EIG
# Kpoint weights read from siesta.KP
# Using smearing parameter:   0.0500
# Using 1000 points in the energy range
# Selected bands: 1 to: 2981
# Emin, Emax in file for selected band(s):    -27.2621442    218.3651850
# Nbands, Nspin, Nk   =   2981     1     1
# E_F                 =    -4.2405 eV --> (shifted to ZERO)
# Broadening          =     0.0500 eV
#
#        E            N(up)  (=)   N(down)         Ntot
     -5.000000     32.080642     32.080642     64.161284
     -4.989990     36.417719     36.417719     72.835438
     -4.979980     40.433439     40.433439     80.866878
     -4.969970     43.506476     43.506476     87.012951
     -4.959960     45.096418     45.096418     90.192837
     -4.949950     44.919118     44.919118     89.838237
     -4.939940     43.050498     43.050498     86.100997
     -4.929930     39.927136     39.927136     79.854272
     -4.919920     36.260119     36.260119     72.520238
     -4.909910     32.904439     32.904439     65.808879
     -4.899900     30.716554     30.716554     61.433109
     -4.889890     30.405075     30.405075     60.810150
     -4.879880     32.368220     32.368220     64.736440
     -4.869870     36.536693     36.536693     73.073386
     -4.859860     42.284801     42.284801     84.569601
     -4.849850     48.490999     48.490999     96.981999
     -4.839840     53.786751     53.786751    107.573501
     -4.829830     56.939603     56.939603    113.879206
     -4.819820     57.228562     57.228562    114.457123
     -4.809810     54.650513     54.650513    109.301026
     -4.799800     49.868435     49.868435     99.736870
     -4.789790     43.936304     43.936304     87.872608
     -4.779780     37.936704     37.936704     75.873408
     -4.769770     32.686942     32.686942     65.373885
     -4.759760     28.606887     28.606887     57.213775
     -4.749750     25.747547     25.747547     51.495093
     -4.739740     23.913274     23.913274     47.826548
     -4.729730     22.799115     22.799115     45.598231
     -4.719720     22.093877     22.093877     44.187754
     -4.709710     21.537830     21.537830     43.075659
     -4.699700     20.949537     20.949537     41.899074
     -4.689690     20.243083     20.243083     40.486166
     -4.679680     19.448073     19.448073     38.896146
     -4.669670     18.727343     18.727343     37.454686
     -4.659660     18.373065     18.373065     36.746129
     -4.649650     18.762834     18.762834     37.525668
     -4.639640     20.275020     20.275020     40.550040
     -4.629630     23.183795     23.183795     46.367591
     -4.619620     27.562590     27.562590     55.125180
     -4.609610     33.217651     33.217651     66.435303
     -4.599600     39.664628     39.664628     79.329256
     -4.589590     46.162546     46.162546     92.325091
     -4.579580     51.824146     51.824146    103.648292
     -4.569570     55.808261     55.808261    111.616521
     -4.559560     57.559154     57.559154    115.118309
     -4.549550     57.009746     57.009746    114.019492
     -4.539540     54.649237     54.649237    109.298474
     -4.529530     51.396288     51.396288    102.792576
     -4.519520     48.303636     48.303636     96.607271
     -4.509510     46.203633     46.203633     92.407267
     -4.499499     45.438389     45.438389     90.876778
     -4.489489     45.782553     45.782553     91.565105
     -4.479479     46.579896     46.579896     93.159792
     -4.469469     47.021910     47.021910     94.043821
     -4.459459     46.443709     46.443709     92.887418
     -4.449449     44.521892     44.521892     89.043785
     -4.439439     41.319661     41.319661     82.639323
     -4.429429     37.200300     37.200300     74.400599
     -4.419419     32.681097     32.681097     65.362194
     -4.409409     28.302941     28.302941     56.605883
     -4.399399     24.552532     24.552532     49.105065
     -4.389389     21.825382     21.825382     43.650765
     -4.379379     20.393643     20.393643     40.787286
     -4.369369     20.358078     20.358078     40.716156
     -4.359359     21.601423     21.601423     43.202846
     -4.349349     23.786265     23.786265     47.572531
     -4.339339     26.429855     26.429855     52.859711
     -4.329329     29.046204     29.046204     58.092409
     -4.319319     31.302307     31.302307     62.604614
     -4.309309     33.120299     33.120299     66.240598
     -4.299299     34.678835     34.678835     69.357671
     -4.289289     36.309201     36.309201     72.618403
     -4.279279     38.321821     38.321821     76.643641
     -4.269269     40.823928     40.823928     81.647856
     -4.259259     43.597675     43.597675     87.195350
     -4.249249     46.098732     46.098732     92.197464
     -4.239239     47.601845     47.601845     95.203690
     -4.229229     47.460398     47.460398     94.920796
     -4.219219     45.382015     45.382015     90.764029
     -4.209209     41.592104     41.592104     83.184208
     -4.199199     36.794557     36.794557     73.589113
     -4.189189     31.935128     31.935128     63.870255
     -4.179179     27.874938     27.874938     55.749875
     -4.169169     25.125740     25.125740     50.251480
     -4.159159     23.758876     23.758876     47.517753
     -4.149149     23.504842     23.504842     47.009684
     -4.139139     23.968822     23.968822     47.937644
     -4.129129     24.845480     24.845480     49.690959
     -4.119119     26.033039     26.033039     52.066078
     -4.109109     27.602665     27.602665     55.205329
     -4.099099     29.647428     29.647428     59.294857
     -4.089089     32.093086     32.093086     64.186172
     -4.079079     34.579385     34.579385     69.158769
     -4.069069     36.497033     36.497033     72.994067
     -4.059059     37.190351     37.190351     74.380703
     -4.049049     36.240932     36.240932     72.481865
     -4.039039     33.689772     33.689772     67.379544
     -4.029029     30.077588     30.077588     60.155175
     -4.019019     26.278357     26.278357     52.556714
     -4.009009     23.210952     23.210952     46.421905
     -3.998999     21.569238     21.569238     43.138475
     -3.988989     21.682175     21.682175     43.364349
     -3.978979     23.529813     23.529813     47.059627
     -3.968969     26.858903     26.858903     53.717806
     -3.958959     31.312129     31.312129     62.624259
     -3.948949     36.514052     36.514052     73.028105
     -3.938939     42.110316     42.110316     84.220632
     -3.928929     47.789701     47.789701     95.579403
     -3.918919     53.310159     53.310159    106.620319
     -3.908909     58.516980     58.516980    117.033960
     -3.898899     63.320794     63.320794    126.641589
     -3.888889     67.619389     67.619389    135.238778
     -3.878879     71.191311     71.191311    142.382622
     -3.868869     73.626753     73.626753    147.253505
     -3.858859     74.360420     74.360420    148.720841
     -3.848849     72.825894     72.825894    145.651788
     -3.838839     68.684563     68.684563    137.369126
     -3.828829     62.032417     62.032417    124.064834
     -3.818819     53.484625     53.484625    106.969251
     -3.808809     44.085684     44.085684     88.171368
     -3.798799     35.067969     35.067969     70.135938
     -3.788789     27.544816     27.544816     55.089632
     -3.778779     22.245247     22.245247     44.490495
     -3.768769     19.371645     19.371645     38.743289
     -3.758759     18.609489     18.609489     37.218978
     -3.748749     19.268113     19.268113     38.536226
     -3.738739     20.500980     20.500980     41.001960
     -3.728729     21.544931     21.544931     43.089862
     -3.718719     21.922274     21.922274     43.844548
     -3.708709     21.560380     21.560380     43.120761
     -3.698699     20.798759     20.798759     41.597519
     -3.688689     20.275254     20.275254     40.550509
     -3.678679     20.712315     20.712315     41.424629
     -3.668669     22.657721     22.657721     45.315442
     -3.658659     26.260773     26.260773     52.521545
     -3.648649     31.168235     31.168235     62.336469
     -3.638639     36.591290     36.591290     73.182579
     -3.628629     41.529289     41.529289     83.058579
     -3.618619     45.066404     45.066404     90.132808
     -3.608609     46.623511     46.623511     93.247021
     -3.598599     46.073807     46.073807     92.147614
     -3.588589     43.701782     43.701782     87.403564
     -3.578579     40.055242     40.055242     80.110485
     -3.568569     35.767541     35.767541     71.535082
     -3.558559     31.407680     31.407680     62.815361
     -3.548549     27.380131     27.380131     54.760261
     -3.538539     23.876365     23.876365     47.752731
     -3.528529     20.880611     20.880611     41.761221
     -3.518519     18.232807     18.232807     36.465613
     -3.508509     15.735630     15.735630     31.471259
     -3.498498     13.267539     13.267539     26.535079
     -3.488488     10.853944     10.853944     21.707887
     -3.478478      8.667111      8.667111     17.334223
     -3.468468      6.960918      6.960918     13.921835
     -3.458458      5.974078      5.974078     11.948156
     -3.448448      5.840377      5.840377     11.680753
     -3.438438      6.532249      6.532249     13.064499
     -3.428428      7.850496      7.850496     15.700992
     -3.418418      9.465353      9.465353     18.930705
     -3.408408     11.006472     11.006472     22.012944
     -3.398398     12.183272     12.183272     24.366545
     -3.388388     12.896537     12.896537     25.793074
     -3.378378     13.293827     13.293827     26.587654
     -3.368368     13.739165     13.739165     27.478331
     -3.358358     14.706030     14.706030     29.412061
     -3.348348     16.637160     16.637160     33.274320
     -3.338338     19.820610     19.820610     39.641220
     -3.328328     24.307247     24.307247     48.614495
     -3.318318     29.865312     29.865312     59.730624
     -3.308308     35.962483     35.962483     71.924965
     -3.298298     41.789801     41.789801     83.579603
     -3.288288     46.365390     46.365390     92.730779
     -3.278278     48.740736     48.740736     97.481471
     -3.268268     48.271452     48.271452     96.542903
     -3.258258     44.848522     44.848522     89.697044
     -3.248248     38.973692     38.973692     77.947385
     -3.238238     31.627457     31.627457     63.254915
     -3.228228     23.982941     23.982941     47.965882
     -3.218218     17.093545     17.093545     34.187090
     -3.208208     11.679512     11.679512     23.359023
     -3.198198      8.068790      8.068790     16.137580
     -3.188188      6.264086      6.264086     12.528172
     -3.178178      6.062587      6.062587     12.125175
     -3.168168      7.163600      7.163600     14.327200
     -3.158158      9.239867      9.239867     18.479734
     -3.148148     11.983566     11.983566     23.967133
     -3.138138     15.143866     15.143866     30.287732
     -3.128128     18.553226     18.553226     37.106451
     -3.118118     22.119978     22.119978     44.239957
     -3.108108     25.770879     25.770879     51.541758
     -3.098098     29.361891     29.361891     58.723782
     -3.088088     32.612275     32.612275     65.224549
     -3.078078     35.120420     35.120420     70.240839
     -3.068068     36.476283     36.476283     72.952566
     -3.058058     36.419884     36.419884     72.839769
     -3.048048     34.955997     34.955997     69.911993
     -3.038038     32.355281     32.355281     64.710561
     -3.028028     29.041534     29.041534     58.083068
     -3.018018     25.435259     25.435259     50.870519
     -3.008008     21.845680     21.845680     43.691361
     -2.997998     18.463620     18.463620     36.927241
     -2.987988     15.438340     15.438340     30.876681
     -2.977978     12.971948     12.971948     25.943897
     -2.967968     11.363697     11.363697     22.727394
     -2.957958     10.973820     10.973820     21.947640
     -2.947948     12.121054     12.121054     24.242108
     -2.937938     14.954912     14.954912     29.909825
     -2.927928     19.349551     19.349551     38.699102
     -2.917918     24.859613     24.859613     49.719227
     -2.907908     30.765202     30.765202     61.530405
     -2.897898     36.210447     36.210447     72.420894
     -2.887888     40.406640     40.406640     80.813279
     -2.877878     42.837020     42.837020     85.674040
     -2.867868     43.385935     43.385935     86.771870
     -2.857858     42.335809     42.335809     84.671617
     -2.847848     40.228119     40.228119     80.456238
     -2.837838     37.645747     37.645747     75.291495
     -2.827828     35.011477     35.011477     70.022955
     -2.817818     32.489168     32.489168     64.978335
     -2.807808     30.022186     30.022186     60.044372
     -2.797798     27.474333     27.474333     54.948667
     -2.787788     24.788574     24.788574     49.577148
     -2.777778     22.075372     22.075372     44.150744
     -2.767768     19.586960     19.586960     39.173920
     -2.757758     17.601149     17.601149     35.202297
     -2.747748     16.289964     16.289964     32.579928
     -2.737738     15.654445     15.654445     31.308890
     -2.727728     15.563292     15.563292     31.126584
     -2.717718     15.865605     15.865605     31.731211
     -2.707708     16.498760     16.498760     32.997520
     -2.697698     17.514671     17.514671     35.029342
     -2.687688     19.002827     19.002827     38.005653
     -2.677678     20.961993     20.961993     41.923986
     -2.667668     23.214136     23.214136     46.428272
     -2.657658     25.431813     25.431813     50.863627
     -2.647648     27.275241     27.275241     54.550482
     -2.637638     28.557866     28.557866     57.115731
     -2.627628     29.335143     29.335143     58.670286
     -2.617618     29.859630     29.859630     59.719259
     -2.607608     30.432653     30.432653     60.865307
     -2.597598     31.245596     31.245596     62.491191
     -2.587588     32.298544     32.298544     64.597087
     -2.577578     33.420820     33.420820     66.841641
     -2.567568     34.350710     34.350710     68.701420
     -2.557558     34.812097     34.812097     69.624194
     -2.547548     34.559939     34.559939     69.119878
     -2.537538     33.413807     33.413807     66.827614
     -2.527528     31.311587     31.311587     62.623174
     -2.517518     28.383118     28.383118     56.766235
     -2.507508     24.999360     24.999360     49.998720
     -2.497497     21.740987     21.740987     43.481974
     -2.487487     19.266166     19.266166     38.532332
     -2.477477     18.116297     18.116297     36.232593
     -2.467467     18.540044     18.540044     37.080088
     -2.457457     20.414977     20.414977     40.829954
     -2.447447     23.304819     23.304819     46.609638
     -2.437437     26.630556     26.630556     53.261112
     -2.427427     29.882341     29.882341     59.764681
     -2.417417     32.778733     32.778733     65.557465
     -2.407407     35.301502     35.301502     70.603003
     -2.397397     37.591617     37.591617     75.183234
     -2.387387     39.760207     39.760207     79.520413
     -2.377377     41.713738     41.713738     83.427475
     -2.367367     43.090773     43.090773     86.181546
     -2.357357     43.356110     43.356110     86.712220
     -2.347347     42.019872     42.019872     84.039744
     -2.337337     38.882897     38.882897     77.765794
     -2.327327     34.191478     34.191478     68.382955
     -2.317317     28.626495     28.626495     57.252990
     -2.307307     23.131861     23.131861     46.263722
     -2.297297     18.659461     18.659461     37.318922
     -2.287287     15.933510     15.933510     31.867020
     -2.277277     15.310066     15.310066     30.620132
     -2.267267     16.753577     16.753577     33.507153
     -2.257257     19.906401     19.906401     39.812803
     -2.247247     24.207273     24.207273     48.414545
     -2.237237     29.016903     29.016903     58.033805
     -2.227227     33.720757     33.720757     67.441514
     -2.217217     37.793000     37.793000     75.585999
     -2.207207     40.821330     40.821330     81.642661
     -2.197197     42.508964     42.508964     85.017927
     -2.187187     42.679676     42.679676     85.359353
     -2.177177     41.304503     41.304503     82.609007
     -2.167167     38.542783     38.542783     77.085565
     -2.157157     34.761213     34.761213     69.522425
     -2.147147     30.487674     30.487674     60.975348
     -2.137137     26.286379     26.286379     52.572758
     -2.127127     22.593640     22.593640     45.187279
     -2.117117     19.591633     19.591633     39.183265
     -2.107107     17.188196     17.188196     34.376392
     -2.097097     15.114479     15.114479     30.228958
     -2.087087     13.086004     13.086004     26.172007
     -2.077077     10.941242     10.941242     21.882484
     -2.067067      8.693955      8.693955     17.387911
     -2.057057      6.491521      6.491521     12.983042
     -2.047047      4.521635      4.521635      9.043271
     -2.037037      2.925210      2.925210      5.850420
     -2.027027      1.753528      1.753528      3.507056
     -2.017017      0.974201      0.974201      1.948402
     -2.007007      0.506468      0.506468      1.012935
     -1.996997      0.261649      0.261649      0.523298
     -1.986987      0.173986      0.173986      0.347972
     -1.976977      0.219491      0.219491      0.438982
     -1.966967      0.427378      0.427378      0.854756
     -1.956957      0.887747      0.887747      1.775494
     -1.946947      1.752727      1.752727      3.505453
     -1.936937      3.221137      3.221137      6.442275
     -1.926927      5.494868      5.494868     10.989736
     -1.916917      8.703564      8.703564     17.407128
     -1.906907     12.813030     12.813030     25.626060
     -1.896897     17.553655     17.553655     35.107309
     -1.886887     22.413348     22.413348     44.826697
     -1.876877     26.722832     26.722832     53.445664
     -1.866867     29.821797     29.821797     59.643593
     -1.856857     31.251764     31.251764     62.503527
     -1.846847     30.900542     30.900542     61.801083
     -1.836837     29.037664     29.037664     58.075329
     -1.826827     26.223189     26.223189     52.446377
     -1.816817     23.122630     23.122630     46.245260
     -1.806807     20.296998     20.296998     40.593995
     -1.796797     18.045884     18.045884     36.091768
     -1.786787     16.360217     16.360217     32.720434
     -1.776777     14.996188     14.996188     29.992376
     -1.766767     13.630171     13.630171     27.260343
     -1.756757     12.020658     12.020658     24.041316
     -1.746747     10.106371     10.106371     20.212743
     -1.736737      8.008780      8.008780     16.017560
     -1.726727      5.958584      5.958584     11.917169
     -1.716717      4.198735      4.198735      8.397470
     -1.706707      2.914698      2.914698      5.829396
     -1.696697      2.213397      2.213397      4.426793
     -1.686687      2.138182      2.138182      4.276364
     -1.676677      2.689038      2.689038      5.378076
     -1.666667      3.822390      3.822390      7.644779
     -1.656657      5.426813      5.426813     10.853625
     -1.646647      7.295335      7.295335     14.590669
     -1.636637      9.126884      9.126884     18.253769
     -1.626627     10.579861     10.579861     21.159721
