# EIG2DOS: Utility for SIESTA to obtain the electronic density of states
#  E. Artacho, Apr 1999, A. Garcia, Apr 2012
#  Nick R. Papior, Feb 2017
# ------------------------------------------
# Eigenvalues calculated from a non-polarized calculation
# Eigenvalues read from siesta.EIG
# Kpoint weights read from siesta.KP
# Using smearing parameter:   0.0500
# Using 1000 points in the energy range
# Selected bands: 1 to: 2981
# Emin, Emax in file for selected band(s):    -27.2988745    218.4023450
# Nbands, Nspin, Nk   =   2981     1     1
# E_F                 =    -4.1930 eV --> (shifted to ZERO)
# Broadening          =     0.0500 eV
#
#        E            N(up)  (=)   N(down)         Ntot
     -5.000000     31.228910     31.228910     62.457820
     -4.989990     36.437270     36.437270     72.874541
     -4.979980     41.437564     41.437564     82.875128
     -4.969970     45.360371     45.360371     90.720742
     -4.959960     47.452024     47.452024     94.904048
     -4.949950     47.326400     47.326400     94.652799
     -4.939940     45.099571     45.099571     90.199142
     -4.929930     41.366167     41.366167     82.732334
     -4.919920     37.049267     37.049267     74.098535
     -4.909910     33.193939     33.193939     66.387879
     -4.899900     30.762613     30.762613     61.525226
     -4.889890     30.454068     30.454068     60.908137
     -4.879880     32.548982     32.548982     65.097964
     -4.869870     36.802150     36.802150     73.604301
     -4.859860     42.431747     42.431747     84.863493
     -4.849850     48.256555     48.256555     96.513111
     -4.839840     52.981759     52.981759    105.963518
     -4.829830     55.555775     55.555775    111.111551
     -4.819820     55.467096     55.467096    110.934192
     -4.809810     52.862553     52.862553    105.725105
     -4.799800     48.445756     48.445756     96.891512
     -4.789790     43.212946     43.212946     86.425891
     -4.779780     38.146795     38.146795     76.293590
     -4.769770     33.984935     33.984935     67.969869
     -4.759760     31.120319     31.120319     62.240637
     -4.749750     29.617862     29.617862     59.235724
     -4.739740     29.289283     29.289283     58.578565
     -4.729730     29.771847     29.771847     59.543693
     -4.719720     30.590975     30.590975     61.181951
     -4.709710     31.220620     31.220620     62.441241
     -4.699700     31.165478     31.165478     62.330956
     -4.689690     30.071751     30.071751     60.143502
     -4.679680     27.842900     27.842900     55.685800
     -4.669670     24.716079     24.716079     49.432158
     -4.659660     21.259153     21.259153     42.518307
     -4.649650     18.275277     18.275277     36.550554
     -4.639640     16.634057     16.634057     33.268113
     -4.629630     17.067229     17.067229     34.134457
     -4.619620     19.969977     19.969977     39.939954
     -4.609610     25.249031     25.249031     50.498061
     -4.599600     32.264321     32.264321     64.528642
     -4.589590     39.911470     39.911470     79.822940
     -4.579580     46.864644     46.864644     93.729288
     -4.569570     51.935729     51.935729    103.871458
     -4.559560     54.433981     54.433981    108.867962
     -4.549550     54.379999     54.379999    108.759999
     -4.539540     52.471968     52.471968    104.943937
     -4.529530     49.806552     49.806552     99.613104
     -4.519520     47.466624     47.466624     94.933249
     -4.509510     46.144453     46.144453     92.288906
     -4.499499     45.945708     45.945708     91.891416
     -4.489489     46.433751     46.433751     92.867502
     -4.479479     46.870025     46.870025     93.740051
     -4.469469     46.532259     46.532259     93.064519
     -4.459459     44.976410     44.976410     89.952821
     -4.449449     42.151368     42.151368     84.302737
     -4.439439     38.352151     38.352151     76.704302
     -4.429429     34.069139     34.069139     68.138278
     -4.419419     29.823798     29.823798     59.647596
     -4.409409     26.062541     26.062541     52.125082
     -4.399399     23.126064     23.126064     46.252129
     -4.389389     21.258855     21.258855     42.517710
     -4.379379     20.607670     20.607670     41.215340
     -4.369369     21.186617     21.186617     42.373234
     -4.359359     22.833988     22.833988     45.667975
     -4.349349     25.212097     25.212097     50.424194
     -4.339339     27.883657     27.883657     55.767313
     -4.329329     30.449138     30.449138     60.898277
     -4.319319     32.685059     32.685059     65.370118
     -4.309309     34.613528     34.613528     69.227056
     -4.299299     36.462811     36.462811     72.925622
     -4.289289     38.527563     38.527563     77.055125
     -4.279279     40.981185     40.981185     81.962370
     -4.269269     43.716581     43.716581     87.433161
     -4.259259     46.290035     46.290035     92.580069
     -4.249249     48.013297     48.013297     96.026593
     -4.239239     48.182348     48.182348     96.364695
     -4.229229     46.363771     46.363771     92.727542
     -4.219219     42.615149     42.615149     85.230297
     -4.209209     37.528923     37.528923     75.057846
     -4.199199     32.065025     32.065025     64.130050
     -4.189189     27.239404     27.239404     54.478808
     -4.179179     23.805134     23.805134     47.610268
     -4.169169     22.060619     22.060619     44.121237
     -4.159159     21.851034     21.851034     43.702067
     -4.149149     22.736886     22.736886     45.473772
     -4.139139     24.234851     24.234851     48.469702
     -4.129129     26.016749     26.016749     52.033498
     -4.119119     27.981749     27.981749     55.963499
     -4.109109     30.178221     30.178221     60.356442
     -4.099099     32.623026     32.623026     65.246051
     -4.089089     35.121402     35.121402     70.242804
     -4.079079     37.201352     37.201352     74.402704
     -4.069069     38.225790     38.225790     76.451580
     -4.059059     37.649139     37.649139     75.298279
     -4.049049     35.294736     35.294736     70.589473
     -4.039039     31.505012     31.505012     63.010024
     -4.029029     27.079845     27.079845     54.159690
     -4.019019     23.031766     23.031766     46.063531
     -4.009009     20.277892     20.277892     40.555785
     -3.998999     19.404485     19.404485     38.808969
     -3.988989     20.582030     20.582030     41.164060
     -3.978979     23.623557     23.623557     47.247114
     -3.968969     28.120016     28.120016     56.240031
     -3.958959     33.579329     33.579329     67.158657
     -3.948949     39.528055     39.528055     79.056111
     -3.938939     45.572785     45.572785     91.145571
     -3.928929     51.433873     51.433873    102.867746
     -3.918919     56.953231     56.953231    113.906462
     -3.908909     62.061938     62.061938    124.123876
     -3.898899     66.698232     66.698232    133.396464
     -3.888889     70.697349     70.697349    141.394699
     -3.878879     73.709249     73.709249    147.418498
     -3.868869     75.206633     75.206633    150.413265
     -3.858859     74.610088     74.610088    149.220177
     -3.848849     71.496645     71.496645    142.993291
     -3.838839     65.808363     65.808363    131.616726
     -3.828829     57.968214     57.968214    115.936429
     -3.818819     48.846423     48.846423     97.692845
     -3.808809     39.581469     39.581469     79.162938
     -3.798799     31.315647     31.315647     62.631293
     -3.788789     24.931704     24.931704     49.863409
     -3.778779     20.868740     20.868740     41.737481
     -3.768769     19.062412     19.062412     38.124824
     -3.758759     19.014143     19.014143     38.028286
     -3.748749     19.960739     19.960739     39.921478
     -3.738739     21.096079     21.096079     42.192158
     -3.728729     21.790015     21.790015     43.580030
     -3.718719     21.753242     21.753242     43.506485
     -3.708709     21.108188     21.108188     42.216375
     -3.698699     20.343970     20.343970     40.687941
     -3.688689     20.158478     20.158478     40.316957
     -3.678679     21.221571     21.221571     42.443143
     -3.668669     23.924640     23.924640     47.849281
     -3.658659     28.200458     28.200458     56.400917
     -3.648649     33.487387     33.487387     66.974775
     -3.638639     38.865673     38.865673     77.731346
     -3.628629     43.323483     43.323483     86.646966
     -3.618619     46.050870     46.050870     92.101740
     -3.608609     46.647648     46.647648     93.295296
     -3.598599     45.177025     45.177025     90.354050
     -3.588589     42.072711     42.072711     84.145421
     -3.578579     37.965162     37.965162     75.930323
     -3.568569     33.502588     33.502588     67.005177
     -3.558559     29.213497     29.213497     58.426993
     -3.548549     25.424302     25.424302     50.848604
     -3.538539     22.232395     22.232395     44.464790
     -3.528529     19.536910     19.536910     39.073820
     -3.518519     17.124926     17.124926     34.249852
     -3.508509     14.790502     14.790502     29.581005
     -3.498498     12.442379     12.442379     24.884757
     -3.488488     10.155888     10.155888     20.311777
     -3.478478      8.151233      8.151233     16.302467
     -3.468468      6.715921      6.715921     13.431842
     -3.458458      6.109653      6.109653     12.219307
     -3.448448      6.486272      6.486272     12.972544
     -3.438438      7.850229      7.850229     15.700457
     -3.428428     10.050727     10.050727     20.101454
     -3.418418     12.811182     12.811182     25.622364
     -3.408408     15.789126     15.789126     31.578253
     -3.398398     18.655358     18.655358     37.310717
     -3.388388     21.172662     21.172662     42.345324
     -3.378378     23.251565     23.251565     46.503129
     -3.368368     24.967240     24.967240     49.934480
     -3.358358     26.532934     26.532934     53.065869
     -3.348348     28.233462     28.233462     56.466923
     -3.338338     30.326182     30.326182     60.652363
     -3.328328     32.923503     32.923503     65.847006
     -3.318318     35.886569     35.886569     71.773137
     -3.308308     38.778103     38.778103     77.556206
     -3.298298     40.923748     40.923748     81.847497
     -3.288288     41.597367     41.597367     83.194734
     -3.278278     40.281916     40.281916     80.563832
     -3.268268     36.899405     36.899405     73.798810
     -3.258258     31.896331     31.896331     63.792661
     -3.248248     26.131329     26.131329     52.262658
     -3.238238     20.607648     20.607648     41.215295
     -3.228228     16.165129     16.165129     32.330259
     -3.218218     13.254218     13.254218     26.508435
     -3.208208     11.864011     11.864011     23.728021
     -3.198198     11.606816     11.606816     23.213632
     -3.188188     11.909574     11.909574     23.819147
     -3.178178     12.239913     12.239913     24.479826
     -3.168168     12.295132     12.295132     24.590263
     -3.158158     12.098311     12.098311     24.196621
     -3.148148     11.974320     11.974320     23.948640
     -3.138138     12.415483     12.415483     24.830967
     -3.128128     13.881852     13.881852     27.763704
     -3.118118     16.602480     16.602480     33.204960
     -3.108108     20.445377     20.445377     40.890754
     -3.098098     24.905174     24.905174     49.810348
     -3.088088     29.221953     29.221953     58.443907
     -3.078078     32.598304     32.598304     65.196608
     -3.068068     34.438336     34.438336     68.876672
     -3.058058     34.514497     34.514497     69.028994
     -3.048048     32.993597     32.993597     65.987194
     -3.038038     30.318298     30.318298     60.636596
     -3.028028     27.011746     27.011746     54.023492
     -3.018018     23.507724     23.507724     47.015447
     -3.008008     20.083892     20.083892     40.167783
     -2.997998     16.908274     16.908274     33.816548
     -2.987988     14.144126     14.144126     28.288253
     -2.977978     12.034991     12.034991     24.069982
     -2.967968     10.916302     10.916302     21.832604
     -2.957958     11.146877     11.146877     22.293754
     -2.947948     12.991388     12.991388     25.982775
     -2.937938     16.499370     16.499370     32.998740
     -2.927928     21.423291     21.423291     42.846582
     -2.917918     27.208188     27.208188     54.416375
     -2.907908     33.070657     33.070657     66.141314
     -2.897898     38.161079     38.161079     76.322159
     -2.887888     41.770375     41.770375     83.540749
     -2.877878     43.514008     43.514008     87.028015
     -2.867868     43.420649     43.420649     86.841298
     -2.857858     41.882664     41.882664     83.765327
     -2.847848     39.482975     39.482975     78.965949
     -2.837838     36.771029     36.771029     73.542058
     -2.827828     34.087132     34.087132     68.174264
     -2.817818     31.510828     31.510828     63.021657
     -2.807808     28.944880     28.944880     57.889761
     -2.797798     26.276022     26.276022     52.552044
     -2.787788     23.516875     23.516875     47.033751
     -2.777778     20.850902     20.850902     41.701805
     -2.767768     18.563086     18.563086     37.126173
     -2.757758     16.906874     16.906874     33.813748
     -2.747748     15.992798     15.992798     31.985597
     -2.737738     15.765830     15.765830     31.531660
     -2.727728     16.078448     16.078448     32.156897
     -2.717718     16.802556     16.802556     33.605112
     -2.707708     17.897788     17.897788     35.795576
     -2.697698     19.385766     19.385766     38.771532
     -2.687688     21.250039     21.250039     42.500078
     -2.677678     23.341332     23.341332     46.682664
     -2.667668     25.371791     25.371791     50.743581
     -2.657658     27.022380     27.022380     54.044759
     -2.647648     28.104283     28.104283     56.208566
     -2.637638     28.669166     28.669166     57.338332
     -2.627628     28.990833     28.990833     57.981667
     -2.617618     29.424016     29.424016     58.848033
     -2.607608     30.224291     30.224291     60.448582
     -2.597598     31.430504     31.430504     62.861008
     -2.587588     32.859942     32.859942     65.719884
     -2.577578     34.191409     34.191409     68.382819
     -2.567568     35.070252     35.070252     70.140503
     -2.557558     35.185680     35.185680     70.371360
     -2.547548     34.317903     34.317903     68.635806
     -2.537538     32.382338     32.382338     64.764675
     -2.527528     29.485256     29.485256     58.970512
     -2.517518     25.967242     25.967242     51.934484
     -2.507508     22.388045     22.388045     44.776091
     -2.497497     19.423630     19.423630     38.847261
     -2.487487     17.692933     17.692933     35.385865
     -2.477477     17.575252     17.575252     35.150504
     -2.467467     19.092272     19.092272     38.184544
     -2.457457     21.906108     21.906108     43.812216
     -2.447447     25.439380     25.439380     50.878760
     -2.437437     29.074026     29.074026     58.148052
     -2.427427     32.350791     32.350791     64.701582
     -2.417417     35.085884     35.085884     70.171769
     -2.407407     37.352243     37.352243     74.704485
     -2.397397     39.332295     39.332295     78.664591
     -2.387387     41.113138     41.113138     82.226275
     -2.377377     42.531563     42.531563     85.063126
     -2.367367     43.161311     43.161311     86.322623
     -2.357357     42.467569     42.467569     84.935138
     -2.347347     40.064330     40.064330     80.128660
     -2.337337     35.948511     35.948511     71.897022
     -2.327327     30.590933     30.590933     61.181866
     -2.317317     24.838225     24.838225     49.676449
     -2.307307     19.676246     19.676246     39.352491
     -2.297297     15.965279     15.965279     31.930559
     -2.287287     14.250072     14.250072     28.500144
     -2.277277     14.691145     14.691145     29.382290
     -2.267267     17.102036     17.102036     34.204072
     -2.257257     21.044646     21.044646     42.089292
     -2.247247     25.936465     25.936465     51.872930
     -2.237237     31.142543     31.142543     62.285086
     -2.227227     36.043932     36.043932     72.087864
     -2.217217     40.085955     40.085955     80.171909
     -2.207207     42.815520     42.815520     85.631040
     -2.197197     43.918541     43.918541     87.837082
     -2.187187     43.264035     43.264035     86.528070
     -2.177177     40.947943     40.947943     81.895885
     -2.167167     37.311527     37.311527     74.623054
     -2.157157     32.900804     32.900804     65.801608
     -2.147147     28.350224     28.350224     56.700447
     -2.137137     24.215158     24.215158     48.430316
     -2.127127     20.819523     20.819523     41.639046
     -2.117117     18.193487     18.193487     36.386974
     -2.107107     16.136842     16.136842     32.273684
     -2.097097     14.376545     14.376545     28.753091
     -2.087087     12.735131     12.735131     25.470263
     -2.077077     11.223558     11.223558     22.447116
     -2.067067     10.017371     10.017371     20.034742
     -2.057057      9.338346      9.338346     18.676691
     -2.047047      9.308527      9.308527     18.617054
     -2.037037      9.850596      9.850596     19.701192
     -2.027027     10.681159     10.681159     21.362318
     -2.017017     11.398933     11.398933     22.797865
     -2.007007     11.627753     11.627753     23.255505
     -1.996997     11.151662     11.151662     22.303324
     -1.986987      9.985903      9.985903     19.971807
     -1.976977      8.360612      8.360612     16.721224
     -1.966967      6.635923      6.635923     13.271846
     -1.956957      5.194281      5.194281     10.388561
     -1.946947      4.353905      4.353905      8.707811
     -1.936937      4.322485      4.322485      8.644969
     -1.926927      5.182920      5.182920     10.365840
     -1.916917      6.892196      6.892196     13.784392
     -1.906907      9.283296      9.283296     18.566593
     -1.896897     12.076041     12.076041     24.152083
     -1.886887     14.909821     14.909821     29.819643
     -1.876877     17.403523     17.403523     34.807047
     -1.866867     19.232583     19.232583     38.465167
     -1.856857     20.201877     20.201877     40.403754
     -1.846847     20.291740     20.291740     40.583479
     -1.836837     19.660269     19.660269     39.320538
     -1.826827     18.594477     18.594477     37.188954
     -1.816817     17.416794     17.416794     34.833589
     -1.806807     16.372928     16.372928     32.745856
     -1.796797     15.544606     15.544606     31.089212
     -1.786787     14.830452     14.830452     29.660903
     -1.776777     14.010607     14.010607     28.021213
     -1.766767     12.866714     12.866714     25.733428
     -1.756757     11.296820     11.296820     22.593640
     -1.746747      9.368346      9.368346     18.736691
     -1.736737      7.290173      7.290173     14.580345
     -1.726727      5.330713      5.330713     10.661426
     -1.716717      3.732357      3.732357      7.464713
     -1.706707      2.662362      2.662362      5.324723
     -1.696697      2.208579      2.208579      4.417158
     -1.686687      2.399103      2.399103      4.798205
     -1.676677      3.215501      3.215501      6.431003
     -1.666667      4.582189      4.582189      9.164379
     -1.656657      6.339286      6.339286     12.678572
     -1.646647      8.226915      8.226915     16.453830
     -1.636637      9.911534      9.911534     19.823068
     -1.626627     11.065377     11.065377     22.130754
