# EIG2DOS: Utility for SIESTA to obtain the electronic density of states
#  E. Artacho, Apr 1999, A. Garcia, Apr 2012
#  Nick R. Papior, Feb 2017
# ------------------------------------------
# Eigenvalues calculated from a non-polarized calculation
# Eigenvalues read from siesta.EIG
# Kpoint weights read from siesta.KP
# Using smearing parameter:   0.0500
# Using 1000 points in the energy range
# Selected bands: 1 to: 2981
# Emin, Emax in file for selected band(s):    -27.0396973    218.3054350
# Nbands, Nspin, Nk   =   2981     1     1
# E_F                 =    -4.3056 eV --> (shifted to ZERO)
# Broadening          =     0.0500 eV
#
#        E            N(up)  (=)   N(down)         Ntot
     -5.000000     43.919891     43.919891     87.839781
     -4.989990     48.427727     48.427727     96.855455
     -4.979980     51.502515     51.502515    103.005030
     -4.969970     52.730066     52.730066    105.460131
     -4.959960     51.992387     51.992387    103.984774
     -4.949950     49.497625     49.497625     98.995251
     -4.939940     45.723652     45.723652     91.447304
     -4.929930     41.314618     41.314618     82.629237
     -4.919920     36.982769     36.982769     73.965538
     -4.909910     33.443962     33.443962     66.887924
     -4.899900     31.372279     31.372279     62.744558
     -4.889890     31.328219     31.328219     62.656439
     -4.879880     33.624530     33.624530     67.249060
     -4.869870     38.148543     38.148543     76.297086
     -4.859860     44.229367     44.229367     88.458734
     -4.849850     50.667404     50.667404    101.334808
     -4.839840     55.991323     55.991323    111.982647
     -4.829830     58.886896     58.886896    117.773793
     -4.819820     58.625195     58.625195    117.250390
     -4.809810     55.289973     55.289973    110.579947
     -4.799800     49.696870     49.696870     99.393741
     -4.789790     43.056317     43.056317     86.112635
     -4.779780     36.554512     36.554512     73.109023
     -4.769770     31.038482     31.038482     62.076965
     -4.759760     26.900512     26.900512     53.801024
     -4.749750     24.139241     24.139241     48.278482
     -4.739740     22.505912     22.505912     45.011824
     -4.729730     21.647307     21.647307     43.294615
     -4.719720     21.201578     21.201578     42.403156
     -4.709710     20.846282     20.846282     41.692563
     -4.699700     20.318990     20.318990     40.637979
     -4.689690     19.433163     19.433163     38.866327
     -4.679680     18.104632     18.104632     36.209264
     -4.669670     16.390656     16.390656     32.781312
     -4.659660     14.527323     14.527323     29.054647
     -4.649650     12.939704     12.939704     25.879407
     -4.639640     12.200440     12.200440     24.400879
     -4.629630     12.925966     12.925966     25.851932
     -4.619620     15.618847     15.618847     31.237693
     -4.609610     20.485462     20.485462     40.970924
     -4.599600     27.280029     27.280029     54.560058
     -4.589590     35.242841     35.242841     70.485681
     -4.579580     43.195273     43.195273     86.390546
     -4.569570     49.809130     49.809130     99.618259
     -4.559560     53.988839     53.988839    107.977677
     -4.549550     55.230536     55.230536    110.461072
     -4.539540     53.803234     53.803234    107.606468
     -4.529530     50.659131     50.659131    101.318262
     -4.519520     47.097563     47.097563     94.195126
     -4.509510     44.317679     44.317679     88.635357
     -4.499499     43.039265     43.039265     86.078530
     -4.489489     43.329916     43.329916     86.659833
     -4.479479     44.678226     44.678226     89.356452
     -4.469469     46.251008     46.251008     92.502016
     -4.459459     47.214090     47.214090     94.428179
     -4.449449     46.997314     46.997314     93.994628
     -4.439439     45.430138     45.430138     90.860276
     -4.429429     42.734389     42.734389     85.468778
     -4.419419     39.408496     39.408496     78.816993
     -4.409409     36.060096     36.060096     72.120192
     -4.399399     33.242561     33.242561     66.485123
     -4.389389     31.334716     31.334716     62.669433
     -4.379379     30.482083     30.482083     60.964166
     -4.369369     30.599895     30.599895     61.199789
     -4.359359     31.426046     31.426046     62.852092
     -4.349349     32.606106     32.606106     65.212211
     -4.339339     33.790442     33.790442     67.580885
     -4.329329     34.723187     34.723187     69.446374
     -4.319319     35.303788     35.303788     70.607576
     -4.309309     35.606170     35.606170     71.212340
     -4.299299     35.849651     35.849651     71.699302
     -4.289289     36.327479     36.327479     72.654958
     -4.279279     37.308011     37.308011     74.616022
     -4.269269     38.928171     38.928171     77.856342
     -4.259259     41.103290     41.103290     82.206581
     -4.249249     43.485589     43.485589     86.971179
     -4.239239     45.507563     45.507563     91.015126
     -4.229229     46.528642     46.528642     93.057285
     -4.219219     46.055503     46.055503     92.111006
     -4.209209     43.949799     43.949799     87.899597
     -4.199199     40.516317     40.516317     81.032634
     -4.189189     36.410333     36.410333     72.820665
     -4.179179     32.397852     32.397852     64.795703
     -4.169169     29.085916     29.085916     58.171832
     -4.159159     26.754686     26.754686     53.509372
     -4.149149     25.360342     25.360342     50.720683
     -4.139139     24.682377     24.682377     49.364754
     -4.129129     24.519228     24.519228     49.038455
     -4.119119     24.823845     24.823845     49.647690
     -4.109109     25.710260     25.710260     51.420520
     -4.099099     27.328842     27.328842     54.657684
     -4.089089     29.675634     29.675634     59.351268
     -4.079079     32.444196     32.444196     64.888393
     -4.069069     35.021794     35.021794     70.043587
     -4.059059     36.665401     36.665401     73.330803
     -4.049049     36.792023     36.792023     73.584046
     -4.039039     35.240790     35.240790     70.481579
     -4.029029     32.367059     32.367059     64.734119
     -4.019019     28.918248     28.918248     57.836495
     -4.009009     25.762424     25.762424     51.524847
     -3.998999     23.614158     23.614158     47.228317
     -3.988989     22.882436     22.882436     45.764872
     -3.978979     23.674436     23.674436     47.348873
     -3.968969     25.895538     25.895538     51.791075
     -3.958959     29.352026     29.352026     58.704051
     -3.948949     33.799911     33.799911     67.599822
     -3.938939     38.949332     38.949332     77.898664
     -3.928929     44.472732     44.472732     88.945464
     -3.918919     50.049694     50.049694    100.099388
     -3.908909     55.432141     55.432141    110.864282
     -3.898899     60.476540     60.476540    120.953080
     -3.888889     65.098310     65.098310    130.196620
     -3.878879     69.154802     69.154802    138.309604
     -3.868869     72.322237     72.322237    144.644475
     -3.858859     74.057327     74.057327    148.114655
     -3.848849     73.703805     73.703805    147.407609
     -3.838839     70.728609     70.728609    141.457219
     -3.828829     64.992314     64.992314    129.984627
     -3.818819     56.922103     56.922103    113.844206
     -3.808809     47.490102     47.490102     94.980203
     -3.798799     37.989279     37.989279     75.978557
     -3.788789     29.692737     29.692737     59.385474
     -3.778779     23.527935     23.527935     47.055870
     -3.768769     19.876867     19.876867     39.753733
     -3.758759     18.549358     18.549358     37.098715
     -3.748749     18.910487     18.910487     37.820975
     -3.738739     20.103675     20.103675     40.207349
     -3.728729     21.301788     21.301788     42.603576
     -3.718719     21.926981     21.926981     43.853961
     -3.708709     21.793169     21.793169     43.586338
     -3.698699     21.139406     21.139406     42.278813
     -3.688689     20.541322     20.541322     41.082643
     -3.678679     20.715002     20.715002     41.430005
     -3.668669     22.261343     22.261343     44.522685
     -3.658659     25.428653     25.428653     50.857307
     -3.648649     29.980232     29.980232     59.960464
     -3.638639     35.226753     35.226753     70.453505
     -3.628629     40.221508     40.221508     80.443016
     -3.618619     44.044856     44.044856     88.089712
     -3.608609     46.062993     46.062993     92.125985
     -3.598599     46.063648     46.063648     92.127297
     -3.588589     44.238298     44.238298     88.476596
     -3.578579     41.053028     41.053028     82.106056
     -3.568569     37.083303     37.083303     74.166605
     -3.558559     32.871599     32.871599     65.743198
     -3.548549     28.829906     28.829906     57.659812
     -3.538539     25.186965     25.186965     50.373931
     -3.528529     21.981547     21.981547     43.963094
     -3.518519     19.107930     19.107930     38.215860
     -3.508509     16.407530     16.407530     32.815061
     -3.498498     13.775172     13.775172     27.550345
     -3.488488     11.233642     11.233642     22.467285
     -3.478478      8.943211      8.943211     17.886422
     -3.468468      7.146109      7.146109     14.292217
     -3.458458      6.075349      6.075349     12.150698
     -3.448448      5.865632      5.865632     11.731265
     -3.438438      6.494230      6.494230     12.988460
     -3.428428      7.766565      7.766565     15.533130
     -3.418418      9.353061      9.353061     18.706122
     -3.408408     10.875954     10.875954     21.751908
     -3.398398     12.028785     12.028785     24.057569
     -3.388388     12.690228     12.690228     25.380455
     -3.378378     12.983805     12.983805     25.967611
     -3.368368     13.250746     13.250746     26.501493
     -3.358358     13.941448     13.941448     27.882896
     -3.348348     15.468611     15.468611     30.937222
     -3.338338     18.076768     18.076768     36.153536
     -3.328328     21.762983     21.762983     43.525965
     -3.318318     26.251934     26.251934     52.503867
     -3.308308     31.013563     31.013563     62.027126
     -3.298298     35.322380     35.322380     70.644760
     -3.288288     38.373961     38.373961     76.747923
     -3.278278     39.464912     39.464912     78.929823
     -3.268268     38.199675     38.199675     76.399349
     -3.258258     34.642208     34.642208     69.284416
     -3.248248     29.328755     29.328755     58.657511
     -3.238238     23.116426     23.116426     46.232853
     -3.228228     16.927119     16.927119     33.854238
     -3.218218     11.498944     11.498944     22.997888
     -3.208208      7.243360      7.243360     14.486720
     -3.198198      4.241501      4.241501      8.483002
     -3.188188      2.345154      2.345154      4.690308
     -3.178178      1.315620      1.315620      2.631241
     -3.168168      0.943199      0.943199      1.886397
     -3.158158      1.119974      1.119974      2.239947
     -3.148148      1.863924      1.863924      3.727848
     -3.138138      3.301804      3.301804      6.603608
     -3.128128      5.616804      5.616804     11.233608
     -3.118118      8.966657      8.966657     17.933314
     -3.108108     13.386699     13.386699     26.773398
     -3.098098     18.707641     18.707641     37.415281
     -3.088088     24.526970     24.526970     49.053940
     -3.078078     30.261972     30.261972     60.523945
     -3.068068     35.278341     35.278341     70.556682
     -3.058058     39.046744     39.046744     78.093488
     -3.048048     41.258572     41.258572     82.517145
     -3.038038     41.851918     41.851918     83.703835
     -3.028028     40.952559     40.952559     81.905119
     -3.018018     38.786573     38.786573     77.573146
     -3.008008     35.631677     35.631677     71.263354
     -2.997998     31.833837     31.833837     63.667673
     -2.987988     27.855054     27.855054     55.710107
     -2.977978     24.285500     24.285500     48.571000
     -2.967968     21.773198     21.773198     43.546395
     -2.957958     20.880065     20.880065     41.760130
     -2.947948     21.922223     21.922223     43.844445
     -2.937938     24.863053     24.863053     49.726106
     -2.927928     29.299625     29.299625     58.599250
     -2.917918     34.541636     34.541636     69.083271
     -2.907908     39.752985     39.752985     79.505971
     -2.897898     44.118460     44.118460     88.236920
     -2.887888     47.002858     47.002858     94.005716
     -2.877878     48.074033     48.074033     96.148067
     -2.867868     47.361226     47.361226     94.722451
     -2.857858     45.224661     45.224661     90.449322
     -2.847848     42.232737     42.232737     84.465475
     -2.837838     38.978261     38.978261     77.956522
     -2.827828     35.898139     35.898139     71.796278
     -2.817818     33.168639     33.168639     66.337279
     -2.807808     30.719303     30.719303     61.438606
     -2.797798     28.353377     28.353377     56.706753
     -2.787788     25.909904     25.909904     51.819807
     -2.777778     23.382404     23.382404     46.764809
     -2.767768     20.934636     20.934636     41.869271
     -2.757758     18.812609     18.812609     37.625218
     -2.747748     17.211308     17.211308     34.422617
     -2.737738     16.179738     16.179738     32.359477
     -2.727728     15.622782     15.622782     31.245563
     -2.717718     15.396471     15.396471     30.792942
     -2.707708     15.432118     15.432118     30.864235
     -2.697698     15.803600     15.803600     31.607200
     -2.687688     16.686694     16.686694     33.373387
     -2.677678     18.229631     18.229631     36.459262
     -2.667668     20.415510     20.415510     40.831019
     -2.657658     23.008405     23.008405     46.016810
     -2.647648     25.625821     25.625821     51.251643
     -2.637638     27.900102     27.900102     55.800204
     -2.627628     29.633161     29.633161     59.266321
     -2.617618     30.853160     30.853160     61.706321
     -2.607608     31.746909     31.746909     63.493818
     -2.597598     32.521754     32.521754     65.043509
     -2.587588     33.287712     33.287712     66.575424
     -2.577578     34.020323     34.020323     68.040647
     -2.567568     34.597257     34.597257     69.194515
     -2.557558     34.855277     34.855277     69.710554
     -2.547548     34.624127     34.624127     69.248254
     -2.537538     33.741775     33.741775     67.483549
     -2.527528     32.088794     32.088794     64.177588
     -2.517518     29.663204     29.663204     59.326408
     -2.507508     26.665791     26.665791     53.331581
     -2.497497     23.529579     23.529579     47.059159
     -2.487487     20.843103     20.843103     41.686206
     -2.477477     19.177698     19.177698     38.355396
     -2.467467     18.891242     18.891242     37.782484
     -2.457457     20.002387     20.002387     40.004774
     -2.447447     22.198405     22.198405     44.396809
     -2.437437     24.975547     24.975547     49.951093
     -2.427427     27.847270     27.847270     55.694541
     -2.417417     30.522834     30.522834     61.045667
     -2.407407     32.971841     32.971841     65.943682
     -2.397397     35.344355     35.344355     70.688710
     -2.387387     37.787013     37.787013     75.574026
     -2.377377     40.249582     40.249582     80.499164
     -2.367367     42.386188     42.386188     84.772375
     -2.357357     43.614209     43.614209     87.228418
     -2.347347     43.319026     43.319026     86.638053
     -2.337337     41.119469     41.119469     82.238937
     -2.327327     37.074098     37.074098     74.148196
     -2.317317     31.732534     31.732534     63.465067
     -2.307307     26.007968     26.007968     52.015935
     -2.297297     20.927713     20.927713     41.855427
     -2.287287     17.364388     17.364388     34.728776
     -2.277277     15.841773     15.841773     31.683546
     -2.267267     16.462103     16.462103     32.924206
     -2.257257     18.949109     18.949109     37.898219
     -2.247247     22.768335     22.768335     45.536670
     -2.237237     27.276074     27.276074     54.552147
     -2.227227     31.851901     31.851901     63.703801
     -2.217217     35.981397     35.981397     71.962793
     -2.207207     39.276930     39.276930     78.553860
     -2.197197     41.453649     41.453649     82.907298
     -2.187187     42.301948     42.301948     84.603895
     -2.177177     41.697268     41.697268     83.394536
     -2.167167     39.655912     39.655912     79.311823
     -2.157157     36.399147     36.399147     72.798293
     -2.147147     32.362443     32.362443     64.724887
     -2.137137     28.108019     28.108019     56.216038
     -2.127127     24.159173     24.159173     48.318346
     -2.117117     20.833228     20.833228     41.666456
     -2.107107     18.161934     18.161934     36.323867
     -2.097097     15.941544     15.941544     31.883087
     -2.087087     13.880251     13.880251     27.760501
     -2.077077     11.758773     11.758773     23.517546
     -2.067067      9.522815      9.522815     19.045630
     -2.057057      7.275785      7.275785     14.551570
     -2.047047      5.198753      5.198753     10.397507
     -2.037037      3.455189      3.455189      6.910379
     -2.027027      2.129413      2.129413      4.258826
     -2.017017      1.215827      1.215827      2.431653
     -2.007007      0.646202      0.646202      1.292405
     -1.996997      0.330283      0.330283      0.660566
     -1.986987      0.190191      0.190191      0.380381
     -1.976977      0.181386      0.181386      0.362773
     -1.966967      0.302192      0.302192      0.604383
     -1.956957      0.595991      0.595991      1.191982
     -1.946947      1.146865      1.146865      2.293731
     -1.936937      2.065015      2.065015      4.130029
     -1.926927      3.457669      3.457669      6.915339
     -1.916917      5.386660      5.386660     10.773321
     -1.906907      7.823668      7.823668     15.647336
     -1.896897     10.622110     10.622110     21.244219
     -1.886887     13.523464     13.523464     27.046929
     -1.876877     16.203465     16.203465     32.406931
     -1.866867     18.346261     18.346261     36.692523
     -1.856857     19.722763     19.722763     39.445526
     -1.846847     20.248667     20.248667     40.497334
     -1.836837     20.004967     20.004967     40.009934
     -1.826827     19.212703     19.212703     38.425406
     -1.816817     18.163223     18.163223     36.326445
     -1.806807     17.119437     17.119437     34.238874
     -1.796797     16.221611     16.221611     32.443222
     -1.786787     15.440727     15.440727     30.881455
     -1.776777     14.608420     14.608420     29.216839
     -1.766767     13.514865     13.514865     27.029729
     -1.756757     12.026889     12.026889     24.053777
     -1.746747     10.166332     10.166332     20.332664
     -1.736737      8.113956      8.113956     16.227912
     -1.726727      6.149106      6.149106     12.298212
     -1.716717      4.568152      4.568152      9.136304
     -1.706707      3.624854      3.624854      7.249708
     -1.696697      3.508012      3.508012      7.016024
     -1.686687      4.339326      4.339326      8.678651
     -1.676677      6.160782      6.160782     12.321565
     -1.666667      8.894558      8.894558     17.789116
     -1.656657     12.289713     12.289713     24.579425
     -1.646647     15.897324     15.897324     31.794648
     -1.636637     19.117985     19.117985     38.235971
     -1.626627     21.335286     21.335286     42.670572
