# EIG2DOS: Utility for SIESTA to obtain the electronic density of states
#  E. Artacho, Apr 1999, A. Garcia, Apr 2012
#  Nick R. Papior, Feb 2017
# ------------------------------------------
# Eigenvalues calculated from a non-polarized calculation
# Eigenvalues read from siesta.EIG
# Kpoint weights read from siesta.KP
# Using smearing parameter:   0.0500
# Using 1000 points in the energy range
# Selected bands: 1 to: 2981
# Emin, Emax in file for selected band(s):    -27.0405155    218.3111910
# Nbands, Nspin, Nk   =   2981     1     1
# E_F                 =    -4.2960 eV --> (shifted to ZERO)
# Broadening          =     0.0500 eV
#
#        E            N(up)  (=)   N(down)         Ntot
     -5.000000     42.697891     42.697891     85.395783
     -4.989990     47.641596     47.641596     95.283193
     -4.979980     51.355642     51.355642    102.711284
     -4.969970     53.286175     53.286175    106.572350
     -4.959960     53.147446     53.147446    106.294891
     -4.949950     51.014517     51.014517    102.029033
     -4.939940     47.314391     47.314391     94.628783
     -4.929930     42.732637     42.732637     85.465273
     -4.919920     38.086938     38.086938     76.173876
     -4.909910     34.214408     34.214408     68.428816
     -4.899900     31.881859     31.881859     63.763718
     -4.889890     31.689404     31.689404     63.378808
     -4.879880     33.935017     33.935017     67.870035
     -4.869870     38.453990     38.453990     76.907980
     -4.859860     44.513268     44.513268     89.026536
     -4.849850     50.868612     50.868612    101.737224
     -4.839840     56.039960     56.039960    112.079921
     -4.829830     58.742194     58.742194    117.484387
     -4.819820     58.298343     58.298343    116.596686
     -4.809810     54.842866     54.842866    109.685732
     -4.799800     49.219881     49.219881     98.439762
     -4.789790     42.637631     42.637631     85.275261
     -4.779780     36.254941     36.254941     72.509882
     -4.769770     30.879803     30.879803     61.759607
     -4.759760     26.867446     26.867446     53.734892
     -4.749750     24.190376     24.190376     48.380753
     -4.739740     22.588257     22.588257     45.176513
     -4.729730     21.710641     21.710641     43.421283
     -4.719720     21.209918     21.209918     42.419836
     -4.709710     20.784264     20.784264     41.568529
     -4.699700     20.192045     20.192045     40.384091
     -4.689690     19.262540     19.262540     38.525080
     -4.679680     17.920537     17.920537     35.841074
     -4.669670     16.227225     16.227225     32.454450
     -4.659660     14.421222     14.421222     28.842443
     -4.649650     12.931059     12.931059     25.862119
     -4.639640     12.332349     12.332349     24.664698
     -4.629630     13.238468     13.238468     26.476936
     -4.619620     16.135545     16.135545     32.271089
     -4.609610     21.195510     21.195510     42.391020
     -4.599600     28.123358     28.123358     56.246716
     -4.589590     36.109158     36.109158     72.218317
     -4.579580     43.944327     43.944327     87.888655
     -4.569570     50.310290     50.310290    100.620580
     -4.559560     54.166369     54.166369    108.332737
     -4.549550     55.094309     55.094309    110.188619
     -4.539540     53.448692     53.448692    106.897385
     -4.529530     50.234065     50.234065    100.468130
     -4.519520     46.749209     46.749209     93.498419
     -4.509510     44.142487     44.142487     88.284974
     -4.499499     43.055048     43.055048     86.110096
     -4.489489     43.478518     43.478518     86.957036
     -4.479479     44.853467     44.853467     89.706933
     -4.469469     46.337971     46.337971     92.675941
     -4.459459     47.124562     47.124562     94.249125
     -4.449449     46.690971     46.690971     93.381942
     -4.439439     44.918460     44.918460     89.836921
     -4.429429     42.070914     42.070914     84.141829
     -4.419419     38.672427     38.672427     77.344853
     -4.409409     35.339851     35.339851     70.679703
     -4.399399     32.622535     32.622535     65.245071
     -4.389389     30.884822     30.884822     61.769644
     -4.379379     30.248378     30.248378     60.496756
     -4.369369     30.596460     30.596460     61.192921
     -4.359359     31.631443     31.631443     63.262887
     -4.349349     32.968685     32.968685     65.937370
     -4.339339     34.243685     34.243685     68.487370
     -4.329329     35.206716     35.206716     70.413433
     -4.319319     35.781624     35.781624     71.563249
     -4.309309     36.074335     36.074335     72.148671
     -4.299299     36.330052     36.330052     72.660104
     -4.289289     36.850917     36.850917     73.701834
     -4.279279     37.892875     37.892875     75.785749
     -4.269269     39.561937     39.561937     79.123874
     -4.259259     41.732805     41.732805     83.465611
     -4.249249     44.020549     44.020549     88.041098
     -4.239239     45.839228     45.839228     91.678456
     -4.229229     46.561099     46.561099     93.122197
     -4.219219     45.740128     45.740128     91.480257
     -4.209209     43.308878     43.308878     86.617756
     -4.199199     39.643702     39.643702     79.287404
     -4.189189     35.446691     35.446691     70.893381
     -4.179179     31.490357     31.490357     62.980714
     -4.169169     28.349581     28.349581     56.699162
     -4.159159     26.250527     26.250527     52.501053
     -4.149149     25.096183     25.096183     50.192366
     -4.139139     24.631332     24.631332     49.262665
     -4.129129     24.644063     24.644063     49.288126
     -4.119119     25.094586     25.094586     50.189172
     -4.109109     26.106942     26.106942     52.213884
     -4.099099     27.829293     27.829293     55.658585
     -4.089089     30.236794     30.236794     60.473588
     -4.079079     32.990574     32.990574     65.981147
     -4.069069     35.452414     35.452414     70.904828
     -4.059059     36.880715     36.880715     73.761430
     -4.049049     36.729746     36.729746     73.459493
     -4.039039     34.902678     34.902678     69.805357
     -4.029029     31.822473     31.822473     63.644947
     -4.019019     28.282883     28.282883     56.565765
     -4.009009     25.163458     25.163458     50.326916
     -3.998999     23.158021     23.158021     46.316041
     -3.988989     22.636498     22.636498     45.272995
     -3.978979     23.664227     23.664227     47.328453
     -3.968969     26.111789     26.111789     52.223579
     -3.958959     29.760817     29.760817     59.521633
     -3.948949     34.352666     34.352666     68.705332
     -3.938939     39.592921     39.592921     79.185841
     -3.928929     45.160020     45.160020     90.320039
     -3.918919     50.748086     50.748086    101.496171
     -3.908909     56.125272     56.125272    112.250545
     -3.898899     61.155625     61.155625    122.311250
     -3.888889     65.745199     65.745199    131.490399
     -3.878879     69.725388     69.725388    139.450776
     -3.868869     72.741631     72.741631    145.483262
     -3.858859     74.234108     74.234108    148.468216
     -3.848849     73.560782     73.560782    147.121563
     -3.838839     70.237418     70.237418    140.474836
     -3.828829     64.195170     64.195170    128.390340
     -3.818819     55.929233     55.929233    111.858466
     -3.808809     46.452860     46.452860     92.905721
     -3.798799     37.059994     37.059994     74.119987
     -3.788789     28.986791     28.986791     57.973582
     -3.778779     23.100266     23.100266     46.200531
     -3.768769     19.717450     19.717450     39.434901
     -3.758759     18.595242     18.595242     37.190483
     -3.748749     19.068340     19.068340     38.136681
     -3.738739     20.276319     20.276319     40.552639
     -3.728729     21.412976     21.412976     42.825951
     -3.718719     21.939543     21.939543     43.879087
     -3.708709     21.716641     21.716641     43.433282
     -3.698699     21.024881     21.024881     42.049763
     -3.688689     20.464093     20.464093     40.928185
     -3.678679     20.749067     20.749067     41.498135
     -3.668669     22.453162     22.453162     44.906324
     -3.658659     25.778987     25.778987     51.557975
     -3.648649     30.441063     30.441063     60.882126
     -3.638639     35.714946     35.714946     71.429892
     -3.628629     40.643910     40.643910     81.287821
     -3.618619     44.324609     44.324609     88.649217
     -3.608609     46.157056     46.157056     92.314112
     -3.598599     45.966898     45.966898     91.933795
     -3.588589     43.976449     43.976449     87.952899
     -3.578579     40.670598     40.670598     81.341196
     -3.568569     36.631971     36.631971     73.263942
     -3.558559     32.400932     32.400932     64.801864
     -3.548549     28.380063     28.380063     56.760126
     -3.538539     24.783394     24.783394     49.566787
     -3.528529     21.633167     21.633167     43.266333
     -3.518519     18.810321     18.810321     37.620641
     -3.508509     16.150426     16.150426     32.300851
     -3.498498     13.550930     13.550930     27.101861
     -3.488488     11.042692     11.042692     22.085385
     -3.478478      8.794293      8.794293     17.588586
     -3.468468      7.051938      7.051938     14.103876
     -3.458458      6.046164      6.046164     12.092328
     -3.448448      5.903231      5.903231     11.806461
     -3.438438      6.588410      6.588410     13.176820
     -3.428428      7.895211      7.895211     15.790422
     -3.418418      9.486599      9.486599     18.973198
     -3.408408     10.985803     10.985803     21.971607
     -3.398398     12.097627     12.097627     24.195254
     -3.388388     12.720324     12.720324     25.440648
     -3.378378     12.999679     12.999679     25.999358
     -3.368368     13.294696     13.294696     26.589393
     -3.358358     14.063324     14.063324     28.126648
     -3.348348     15.712990     15.712990     31.425980
     -3.338338     18.470241     18.470241     36.940482
     -3.328328     22.302934     22.302934     44.605869
     -3.318318     26.898170     26.898170     53.796340
     -3.308308     31.686129     31.686129     63.372257
     -3.298298     35.910644     35.910644     71.821288
     -3.288288     38.759923     38.759923     77.519846
     -3.278278     39.556636     39.556636     79.113273
     -3.268268     37.962600     37.962600     75.925200
     -3.258258     34.113432     34.113432     68.226865
     -3.248248     28.606004     28.606004     57.212007
     -3.238238     22.326006     22.326006     44.652011
     -3.228228     16.185619     16.185619     32.371239
     -3.218218     10.885007     10.885007     21.770013
     -3.208208      6.788466      6.788466     13.576932
     -3.198198      3.938288      3.938288      7.876575
     -3.188188      2.164877      2.164877      4.329755
     -3.178178      1.225736      1.225736      2.451472
     -3.168168      0.919765      0.919765      1.839529
     -3.158158      1.154018      1.154018      2.308036
     -3.148148      1.963495      1.963495      3.926990
     -3.138138      3.491771      3.491771      6.983541
     -3.128128      5.937581      5.937581     11.875163
     -3.118118      9.471972      9.471972     18.943945
     -3.108108     14.139490     14.139490     28.278981
     -3.098098     19.772030     19.772030     39.544060
     -3.088088     25.953175     25.953175     51.906349
     -3.078078     32.061703     32.061703     64.123406
     -3.068068     37.392975     37.392975     74.785949
     -3.058058     41.319688     41.319688     82.639376
     -3.048048     43.431938     43.431938     86.863876
     -3.038038     43.607044     43.607044     87.214088
     -3.028028     41.997519     41.997519     83.995038
     -3.018018     38.965755     38.965755     77.931509
     -3.008008     35.009265     35.009265     70.018530
     -2.997998     30.702997     30.702997     61.405995
     -2.987988     26.653782     26.653782     53.307564
     -2.977978     23.444863     23.444863     46.889726
     -2.967968     21.559368     21.559368     43.118736
     -2.957958     21.298096     21.298096     42.596192
     -2.947948     22.723272     22.723272     45.446544
     -2.937938     25.650616     25.650616     51.301232
     -2.927928     29.686427     29.686427     59.372855
     -2.917918     34.288297     34.288297     68.576593
     -2.907908     38.832673     38.832673     77.665346
     -2.897898     42.691255     42.691255     85.382509
     -2.887888     45.327055     45.327055     90.654109
     -2.877878     46.405006     46.405006     92.810011
     -2.867868     45.881675     45.881675     91.763350
     -2.857858     44.022857     44.022857     88.045713
     -2.847848     41.318092     41.318092     82.636184
     -2.837838     38.311622     38.311622     76.623243
     -2.827828     35.418862     35.418862     70.837724
     -2.817818     32.812463     32.812463     65.624926
     -2.807808     30.429660     30.429660     60.859320
     -2.797798     28.089911     28.089911     56.179822
     -2.787788     25.654291     25.654291     51.308582
     -2.777778     23.138566     23.138566     46.277132
     -2.767768     20.721453     20.721453     41.442906
     -2.757758     18.651567     18.651567     37.303134
     -2.747748     17.115515     17.115515     34.231031
     -2.737738     16.150885     16.150885     32.301770
     -2.727728     15.657951     15.657951     31.315901
     -2.717718     15.499850     15.499850     30.999700
     -2.707708     15.622194     15.622194     31.244388
     -2.697698     16.107921     16.107921     32.215842
     -2.687688     17.123784     17.123784     34.247568
     -2.677678     18.787059     18.787059     37.574119
     -2.667668     21.038171     21.038171     42.076342
     -2.657658     23.607515     23.607515     47.215030
     -2.647648     26.107800     26.107800     52.215599
     -2.637638     28.201978     28.201978     56.403955
     -2.627628     29.745911     29.745911     59.491821
     -2.617618     30.820744     30.820744     61.641488
     -2.607608     31.642933     31.642933     63.285865
     -2.597598     32.417873     32.417873     64.835745
     -2.587588     33.229793     33.229793     66.459585
     -2.577578     34.020000     34.020000     68.040001
     -2.567568     34.635789     34.635789     69.271577
     -2.557558     34.892238     34.892238     69.784477
     -2.547548     34.607114     34.607114     69.214227
     -2.537538     33.618847     33.618847     67.237694
     -2.527528     31.825785     31.825785     63.651570
     -2.517518     29.262256     29.262256     58.524511
     -2.507508     26.175563     26.175563     52.351126
     -2.497497     23.038252     23.038252     46.076504
     -2.487487     20.453442     20.453442     40.906883
     -2.477477     18.973660     18.973660     37.947320
     -2.467467     18.910753     18.910753     37.821506
     -2.457457     20.228034     20.228034     40.456068
     -2.447447     22.569032     22.569032     45.138064
     -2.437437     25.412176     25.412176     50.824352
     -2.427427     28.281003     28.281003     56.562007
     -2.417417     30.912692     30.912692     61.825384
     -2.407407     33.306228     33.306228     66.612455
     -2.397397     35.627927     35.627927     71.255854
     -2.387387     38.021286     38.021286     76.042573
     -2.377377     40.417665     40.417665     80.835330
     -2.367367     42.449414     42.449414     84.898827
     -2.357357     43.522812     43.522812     87.045624
     -2.347347     43.032770     43.032770     86.065539
     -2.337337     40.629433     40.629433     81.258867
     -2.327327     36.415545     36.415545     72.831090
     -2.317317     30.982058     30.982058     61.964115
     -2.307307     25.265186     25.265186     50.530371
     -2.297297     20.289054     20.289054     40.578107
     -2.287287     16.899968     16.899968     33.799937
     -2.277277     15.583982     15.583982     31.167965
     -2.267267     16.408115     16.408115     32.816230
     -2.257257     19.073055     19.073055     38.146110
     -2.247247     23.035405     23.035405     46.070810
     -2.237237     27.651476     27.651476     55.302951
     -2.227227     32.301422     32.301422     64.602843
     -2.217217     36.465487     36.465487     72.930974
     -2.207207     39.744393     39.744393     79.488787
     -2.197197     41.841974     41.841974     83.683948
     -2.187187     42.548031     42.548031     85.096061
     -2.177177     41.755971     41.755971     83.511943
     -2.167167     39.517985     39.517985     79.035969
     -2.157157     36.098352     36.098352     72.196703
     -2.147147     31.966027     31.966027     63.932053
     -2.137137     27.693149     27.693149     55.386297
     -2.127127     23.785827     23.785827     47.571654
     -2.117117     20.526361     20.526361     41.052723
     -2.107107     17.910811     17.910811     35.821622
     -2.097097     15.714788     15.714788     31.429575
     -2.087087     13.647141     13.647141     27.294282
     -2.077077     11.505388     11.505388     23.010776
     -2.067067      9.256228      9.256228     18.512456
     -2.057057      7.017093      7.017093     14.034186
     -2.047047      4.971193      4.971193      9.942387
     -2.037037      3.274367      3.274367      6.548734
     -2.027027      1.999478      1.999478      3.998956
     -2.017017      1.131297      1.131297      2.262595
     -2.007007      0.596672      0.596672      1.193344
     -1.996997      0.305129      0.305129      0.610259
     -1.986987      0.181755      0.181755      0.363511
     -1.976977      0.186508      0.186508      0.373016
     -1.966967      0.322628      0.322628      0.645256
     -1.956957      0.638122      0.638122      1.276245
     -1.946947      1.220525      1.220525      2.441051
     -1.936937      2.180978      2.180978      4.361956
     -1.926927      3.623604      3.623604      7.247208
     -1.916917      5.602309      5.602309     11.204617
     -1.906907      8.077113      8.077113     16.154227
     -1.896897     10.889366     10.889366     21.778731
     -1.886887     13.772635     13.772635     27.545271
     -1.876877     16.402675     16.402675     32.805350
     -1.866867     18.472602     18.472602     36.945205
     -1.856857     19.768917     19.768917     39.537833
     -1.846847     20.224820     20.224820     40.449641
     -1.836837     19.935402     19.935402     39.870804
     -1.826827     19.127974     19.127974     38.255947
     -1.816817     18.090006     18.090006     36.180012
     -1.806807     17.071153     17.071153     34.142305
     -1.796797     16.193488     16.193488     32.386976
     -1.786787     15.412138     15.412138     30.824277
     -1.776777     14.552402     14.552402     29.104805
     -1.766767     13.411024     13.411024     26.822048
     -1.756757     11.871801     11.871801     23.743602
     -1.746747      9.976976      9.976976     19.953952
     -1.736737      7.923827      7.923827     15.847654
     -1.726727      6.000586      6.000586     12.001173
     -1.716717      4.505564      4.505564      9.011127
     -1.706707      3.690001      3.690001      7.380002
     -1.696697      3.736139      3.736139      7.472277
     -1.686687      4.751633      4.751633      9.503267
     -1.676677      6.751920      6.751920     13.503841
     -1.666667      9.618987      9.618987     19.237975
     -1.656657     13.055835     13.055835     26.111670
     -1.646647     16.578345     16.578345     33.156689
     -1.636637     19.581682     19.581682     39.163365
     -1.626627     21.484093     21.484093     42.968185
