# EIG2DOS: Utility for SIESTA to obtain the electronic density of states
#  E. Artacho, Apr 1999, A. Garcia, Apr 2012
#  Nick R. Papior, Feb 2017
# ------------------------------------------
# Eigenvalues calculated from a non-polarized calculation
# Eigenvalues read from siesta.EIG
# Kpoint weights read from siesta.KP
# Using smearing parameter:   0.0500
# Using 1000 points in the energy range
# Selected bands: 1 to: 2981
# Emin, Emax in file for selected band(s):    -27.3085051    218.4158890
# Nbands, Nspin, Nk   =   2981     1     1
# E_F                 =    -4.1815 eV --> (shifted to ZERO)
# Broadening          =     0.0500 eV
#
#        E            N(up)  (=)   N(down)         Ntot
     -5.000000     34.298240     34.298240     68.596479
     -4.989990     39.477030     39.477030     78.954059
     -4.979980     43.914764     43.914764     87.829529
     -4.969970     46.786098     46.786098     93.572197
     -4.959960     47.547136     47.547136     95.094272
     -4.949950     46.119278     46.119278     92.238555
     -4.939940     42.915319     42.915319     85.830638
     -4.929930     38.721796     38.721796     77.443592
     -4.919920     34.509347     34.509347     69.018694
     -4.909910     31.243203     31.243203     62.486406
     -4.899900     29.723414     29.723414     59.446828
     -4.889890     30.445790     30.445790     60.891580
     -4.879880     33.476828     33.476828     66.953656
     -4.869870     38.373957     38.373957     76.747915
     -4.859860     44.213667     44.213667     88.427334
     -4.849850     49.772875     49.772875     99.545750
     -4.839840     53.840800     53.840800    107.681600
     -4.829830     55.561119     55.561119    111.122237
     -4.819820     54.671463     54.671463    109.342926
     -4.809810     51.545034     51.545034    103.090067
     -4.799800     47.026842     47.026842     94.053684
     -4.789790     42.143812     42.143812     84.287623
     -4.779780     37.807562     37.807562     75.615123
     -4.769770     34.607829     34.607829     69.215657
     -4.759760     32.736592     32.736592     65.473183
     -4.749750     32.026886     32.026886     64.053772
     -4.739740     32.062300     32.062300     64.124599
     -4.729730     32.313308     32.313308     64.626615
     -4.719720     32.268546     32.268546     64.537091
     -4.709710     31.539762     31.539762     63.079524
     -4.699700     29.928030     29.928030     59.856059
     -4.689690     27.449921     27.449921     54.899841
     -4.679680     24.333417     24.333417     48.666835
     -4.669670     20.996144     20.996144     41.992288
     -4.659660     18.009434     18.009434     36.018869
     -4.649650     16.037813     16.037813     32.075626
     -4.639640     15.737303     15.737303     31.474606
     -4.629630     17.606511     17.606511     35.213022
     -4.619620     21.811830     21.811830     43.623659
     -4.609610     28.042459     28.042459     56.084918
     -4.599600     35.472563     35.472563     70.945125
     -4.589590     42.893106     42.893106     85.786212
     -4.579580     49.014149     49.014149     98.028299
     -4.569570     52.850383     52.850383    105.700765
     -4.559560     54.038819     54.038819    108.077639
     -4.549550     52.945837     52.945837    105.891674
     -4.539540     50.507786     50.507786    101.015572
     -4.529530     47.869814     47.869814     95.739627
     -4.519520     45.974675     45.974675     91.949349
     -4.509510     45.264220     45.264220     90.528440
     -4.499499     45.594718     45.594718     91.189435
     -4.489489     46.371544     46.371544     92.743089
     -4.479479     46.824457     46.824457     93.648914
     -4.469469     46.302742     46.302742     92.605485
     -4.459459     44.479835     44.479835     88.959669
     -4.449449     41.409369     41.409369     82.818738
     -4.439439     37.444018     37.444018     74.888036
     -4.429429     33.083308     33.083308     66.166617
     -4.419419     28.831936     28.831936     57.663871
     -4.409409     25.120855     25.120855     50.241709
     -4.399399     22.290374     22.290374     44.580748
     -4.389389     20.593700     20.593700     41.187399
     -4.379379     20.178422     20.178422     40.356844
     -4.369369     21.039956     21.039956     42.079912
     -4.359359     22.983427     22.983427     45.966853
     -4.349349     25.642702     25.642702     51.285405
     -4.339339     28.575501     28.575501     57.151002
     -4.329329     31.403264     31.403264     62.806529
     -4.319319     33.930349     33.930349     67.860698
     -4.309309     36.182071     36.182071     72.364143
     -4.299299     38.339930     38.339930     76.679860
     -4.289289     40.600079     40.600079     81.200158
     -4.279279     43.014113     43.014113     86.028226
     -4.269269     45.379955     45.379955     90.759910
     -4.259259     47.236762     47.236762     94.473525
     -4.249249     47.984454     47.984454     95.968907
     -4.239239     47.099908     47.099908     94.199815
     -4.229229     44.371693     44.371693     88.743385
     -4.219219     40.049541     40.049541     80.099082
     -4.209209     34.827823     34.827823     69.655646
     -4.199199     29.652943     29.652943     59.305886
     -4.189189     25.428735     25.428735     50.857470
     -4.179179     22.744163     22.744163     45.488327
     -4.169169     21.735614     21.735614     43.471229
     -4.159159     22.130709     22.130709     44.261418
     -4.149149     23.438166     23.438166     46.876332
     -4.139139     25.187637     25.187637     50.375273
     -4.129129     27.107385     27.107385     54.214769
     -4.119119     29.159581     29.159581     58.319163
     -4.109109     31.421190     31.421190     62.842379
     -4.099099     33.878216     33.878216     67.756431
     -4.089089     36.256051     36.256051     72.512102
     -4.079079     38.002749     38.002749     76.005498
     -4.069069     38.465023     38.465023     76.930045
     -4.059059     37.183700     37.183700     74.367400
     -4.049049     34.155072     34.155072     68.310145
     -4.039039     29.913567     29.913567     59.827133
     -4.029029     25.387966     25.387966     50.775932
     -4.019019     21.605534     21.605534     43.211069
     -4.009009     19.388463     19.388463     38.776926
     -3.998999     19.169073     19.169073     38.338145
     -3.988989     20.969262     20.969262     41.938524
     -3.978979     24.504728     24.504728     49.009456
     -3.968969     29.333634     29.333634     58.667267
     -3.958959     34.982662     34.982662     69.965324
     -3.948949     41.025559     41.025559     82.051118
     -3.938939     47.123672     47.123672     94.247343
     -3.928929     53.043095     53.043095    106.086190
     -3.918919     58.646075     58.646075    117.292150
     -3.908909     63.842309     63.842309    127.684618
     -3.898899     68.499975     68.499975    136.999950
     -3.888889     72.350829     72.350829    144.701657
     -3.878879     74.948939     74.948939    149.897878
     -3.868869     75.731246     75.731246    151.462492
     -3.858859     74.179852     74.179852    148.359704
     -3.848849     70.029140     70.029140    140.058280
     -3.838839     63.430454     63.430454    126.860908
     -3.828829     55.000186     55.000186    110.000371
     -3.818819     45.724274     45.724274     91.448547
     -3.808809     36.747570     36.747570     73.495140
     -3.798799     29.115482     29.115482     58.230964
     -3.788789     23.545709     23.545709     47.091418
     -3.778779     20.291831     20.291831     40.583662
     -3.768769     19.128931     19.128931     38.257861
     -3.758759     19.456732     19.456732     38.913465
     -3.748749     20.487407     20.487407     40.974814
     -3.738739     21.468060     21.468060     42.936120
     -3.728729     21.883016     21.883016     43.766032
     -3.718719     21.586968     21.586968     43.173936
     -3.708709     20.834749     20.834749     41.669498
     -3.698699     20.195253     20.195253     40.390506
     -3.688689     20.364744     20.364744     40.729488
     -3.678679     21.925396     21.925396     43.850792
     -3.668669     25.120374     25.120374     50.240747
     -3.658659     29.724050     29.724050     59.448101
     -3.648649     35.063163     35.063163     70.126326
     -3.638639     40.191972     40.191972     80.383943
     -3.628629     44.161213     44.161213     88.322426
     -3.618619     46.279532     46.279532     92.559063
     -3.608609     46.272765     46.272765     92.545531
     -3.598599     44.298622     44.298622     88.597244
     -3.588589     40.839614     40.839614     81.679227
     -3.578579     36.536740     36.536740     73.073481
     -3.568569     32.024749     32.024749     64.049497
     -3.558559     27.803628     27.803628     55.607255
     -3.548549     24.159304     24.159304     48.318608
     -3.538539     21.141585     21.141585     42.283171
     -3.528529     18.607110     18.607110     37.214220
     -3.518519     16.321634     16.321634     32.643268
     -3.508509     14.089750     14.089750     28.179499
     -3.498498     11.861327     11.861327     23.722654
     -3.488488      9.771871      9.771871     19.543743
     -3.478478      8.105837      8.105837     16.211674
     -3.468468      7.205209      7.205209     14.410419
     -3.458458      7.359338      7.359338     14.718676
     -3.448448      8.705342      8.705342     17.410684
     -3.438438     11.157675     11.157675     22.315351
     -3.428428     14.384183     14.384183     28.768366
     -3.418418     17.849713     17.849713     35.699427
     -3.408408     20.939466     20.939466     41.878932
     -3.398398     23.142688     23.142688     46.285375
     -3.388388     24.236247     24.236247     48.472495
     -3.378378     24.387284     24.387284     48.774568
     -3.368368     24.117186     24.117186     48.234372
     -3.358358     24.128437     24.128437     48.256874
     -3.348348     25.057078     25.057078     50.114157
     -3.338338     27.241497     27.241497     54.482994
     -3.328328     30.583876     30.583876     61.167753
     -3.318318     34.543091     34.543091     69.086182
     -3.308308     38.261337     38.261337     76.522674
     -3.298298     40.797955     40.797955     81.595910
     -3.288288     41.413924     41.413924     82.827848
     -3.278278     39.819024     39.819024     79.638049
     -3.268268     36.282728     36.282728     72.565456
     -3.258258     31.546782     31.546782     63.093563
     -3.248248     26.560881     26.560881     53.121761
     -3.238238     22.150579     22.150579     44.301157
     -3.228228     18.762739     18.762739     37.525479
     -3.218218     16.392734     16.392734     32.785469
     -3.208208     14.703922     14.703922     29.407844
     -3.198198     13.259928     13.259928     26.519857
     -3.188188     11.752138     11.752138     23.504276
     -3.178178     10.130381     10.130381     20.260762
     -3.168168      8.608145      8.608145     17.216290
     -3.158158      7.572758      7.572758     15.145516
     -3.148148      7.455701      7.455701     14.911402
     -3.138138      8.606687      8.606687     17.213375
     -3.128128     11.189941     11.189941     22.379881
     -3.118118     15.108284     15.108284     30.216568
     -3.108108     19.968515     19.968515     39.937029
     -3.098098     25.114558     25.114558     50.229116
     -3.088088     29.748691     29.748691     59.497382
     -3.078078     33.125526     33.125526     66.251052
     -3.068068     34.755976     34.755976     69.511952
     -3.058058     34.534416     34.534416     69.068833
     -3.048048     32.727929     32.727929     65.455857
     -3.038038     29.834442     29.834442     59.668885
     -3.028028     26.386131     26.386131     52.772262
     -3.018018     22.799238     22.799238     45.598476
     -3.008008     19.335024     19.335024     38.670048
     -2.997998     16.165040     16.165040     32.330079
     -2.987988     13.476083     13.476083     26.952166
     -2.977978     11.539548     11.539548     23.079096
     -2.967968     10.703065     10.703065     21.406130
     -2.957958     11.308933     11.308933     22.617865
     -2.947948     13.575112     13.575112     27.150224
     -2.937938     17.482783     17.482783     34.965565
     -2.927928     22.709067     22.709067     45.418134
     -2.917918     28.634012     28.634012     57.268023
     -2.907908     34.436537     34.436537     68.873074
     -2.897898     39.269273     39.269273     78.538546
     -2.887888     42.468814     42.468814     84.937627
     -2.877878     43.730585     43.730585     87.461169
     -2.867868     43.176250     43.176250     86.352500
     -2.857858     41.276974     41.276974     82.553948
     -2.847848     38.657567     38.657567     77.315133
     -2.837838     35.864569     35.864569     71.729138
     -2.827828     33.201678     33.201678     66.403357
     -2.817818     30.702509     30.702509     61.405018
     -2.807808     28.238759     28.238759     56.477517
     -2.797798     25.691433     25.691433     51.382866
     -2.787788     23.084544     23.084544     46.169088
     -2.777778     20.610391     20.610391     41.220781
     -2.767768     18.544128     18.544128     37.088256
     -2.757758     17.110866     17.110866     34.221731
     -2.747748     16.391815     16.391815     32.783630
     -2.737738     16.323852     16.323852     32.647703
     -2.727728     16.780758     16.780758     33.561516
     -2.717718     17.668271     17.668271     35.336543
     -2.707708     18.957930     18.957930     37.915859
     -2.697698     20.633515     20.633515     41.267030
     -2.687688     22.595238     22.595238     45.190477
     -2.677678     24.607502     24.607502     49.215004
     -2.667668     26.351788     26.351788     52.703575
     -2.657658     27.570042     27.570042     55.140083
     -2.647648     28.210853     28.210853     56.421706
     -2.637638     28.477285     28.477285     56.954570
     -2.627628     28.734964     28.734964     57.469929
     -2.617618     29.329704     29.329704     58.659408
     -2.607608     30.419477     30.419477     60.838954
     -2.597598     31.908009     31.908009     63.816018
     -2.587588     33.495414     33.495414     66.990828
     -2.577578     34.792917     34.792917     69.585835
     -2.567568     35.431802     35.431802     70.863604
     -2.557558     35.132254     35.132254     70.264508
     -2.547548     33.744636     33.744636     67.489273
     -2.537538     31.290581     31.290581     62.581162
     -2.527528     28.006267     28.006267     56.012534
     -2.517518     24.355440     24.355440     48.710881
     -2.507508     20.972068     20.972068     41.944136
     -2.497497     18.522635     18.522635     37.045270
     -2.487487     17.524755     17.524755     35.049510
     -2.477477     18.189968     18.189968     36.379936
     -2.467467     20.356311     20.356311     40.712623
     -2.457457     23.543427     23.543427     47.086854
     -2.447447     27.115408     27.115408     54.230817
     -2.437437     30.492657     30.492657     60.985315
     -2.427427     33.330043     33.330043     66.660086
     -2.417417     35.586212     35.586212     71.172424
     -2.407407     37.450060     37.450060     74.900120
     -2.397397     39.152967     39.152967     78.305934
     -2.387387     40.754121     40.754121     81.508243
     -2.377377     42.010788     42.010788     84.021576
     -2.367367     42.415128     42.415128     84.830255
     -2.357357     41.399129     41.399129     82.798258
     -2.347347     38.616987     38.616987     77.233974
     -2.337337     34.164531     34.164531     68.329062
     -2.327327     28.623831     28.623831     57.247661
     -2.317317     22.913722     22.913722     45.827444
     -2.307307     18.025009     18.025009     36.050017
     -2.297297     14.762250     14.762250     29.524501
     -2.287287     13.585112     13.585112     27.170224
     -2.277277     14.573990     14.573990     29.147981
     -2.267267     17.486804     17.486804     34.973608
     -2.257257     21.854439     21.854439     43.708879
     -2.247247     27.075734     27.075734     54.151468
     -2.237237     32.496338     32.496338     64.992677
     -2.227227     37.472130     37.472130     74.944261
     -2.217217     41.423748     41.423748     82.847495
     -2.207207     43.888973     43.888973     87.777947
     -2.197197     44.577284     44.577284     89.154569
     -2.187187     43.424216     43.424216     86.848433
     -2.177177     40.630799     40.630799     81.261598
     -2.167167     36.660882     36.660882     73.321764
     -2.157157     32.170067     32.170067     64.340134
     -2.147147     27.864041     27.864041     55.728082
     -2.137137     24.323612     24.323612     48.647224
     -2.127127     21.862369     21.862369     43.724738
     -2.117117     20.475369     20.475369     40.950738
     -2.107107     19.893298     19.893298     39.786595
     -2.097097     19.705352     19.705352     39.410704
     -2.087087     19.490663     19.490663     38.981325
     -2.077077     18.913675     18.913675     37.827350
     -2.067067     17.773260     17.773260     35.546520
     -2.057057     16.018166     16.018166     32.036333
     -2.047047     13.740525     13.740525     27.481051
     -2.037037     11.147368     11.147368     22.294736
     -2.027027      8.507483      8.507483     17.014965
     -2.017017      6.082736      6.082736     12.165473
     -2.007007      4.066716      4.066716      8.133431
     -1.996997      2.554275      2.554275      5.108550
     -1.986987      1.551100      1.551100      3.102200
     -1.976977      1.013371      1.013371      2.026741
     -1.966967      0.896228      0.896228      1.792457
     -1.956957      1.189831      1.189831      2.379661
     -1.946947      1.929408      1.929408      3.858817
     -1.936937      3.175611      3.175611      6.351223
     -1.926927      4.971385      4.971385      9.942769
     -1.916917      7.291069      7.291069     14.582137
     -1.906907     10.003569     10.003569     20.007139
     -1.896897     12.869326     12.869326     25.738653
     -1.886887     15.578228     15.578228     31.156455
     -1.876877     17.817831     17.817831     35.635662
     -1.866867     19.348593     19.348593     38.697186
     -1.856857     20.061877     20.061877     40.123753
     -1.846847     20.004520     20.004520     40.009041
     -1.836837     19.362655     19.362655     38.725309
     -1.826827     18.404542     18.404542     36.809084
     -1.816817     17.392358     17.392358     34.784716
     -1.806807     16.489215     16.489215     32.978429
     -1.796797     15.701228     15.701228     31.402457
     -1.786787     14.888475     14.888475     29.776950
     -1.776777     13.847021     13.847021     27.694041
     -1.766767     12.423403     12.423403     24.846806
     -1.756757     10.602122     10.602122     21.204243
     -1.746747      8.522988      8.522988     17.045976
     -1.736737      6.427807      6.427807     12.855614
     -1.726727      4.574608      4.574608      9.149216
     -1.716717      3.167644      3.167644      6.335288
     -1.706707      2.330690      2.330690      4.661380
     -1.696697      2.118433      2.118433      4.236867
     -1.686687      2.538551      2.538551      5.077102
     -1.676677      3.556956      3.556956      7.113911
     -1.666667      5.077615      5.077615     10.155230
     -1.656657      6.913215      6.913215     13.826430
     -1.646647      8.778328      8.778328     17.556655
     -1.636637     10.331735     10.331735     20.663470
     -1.626627     11.269339     11.269339     22.538677
