# EIG2DOS: Utility for SIESTA to obtain the electronic density of states
#  E. Artacho, Apr 1999, A. Garcia, Apr 2012
#  Nick R. Papior, Feb 2017
# ------------------------------------------
# Eigenvalues calculated from a non-polarized calculation
# Eigenvalues read from siesta.EIG
# Kpoint weights read from siesta.KP
# Using smearing parameter:   0.0500
# Using 1000 points in the energy range
# Selected bands: 1 to: 2981
# Emin, Emax in file for selected band(s):    -27.3444975    218.4042420
# Nbands, Nspin, Nk   =   2981     1     1
# E_F                 =    -4.1896 eV --> (shifted to ZERO)
# Broadening          =     0.0500 eV
#
#        E            N(up)  (=)   N(down)         Ntot
     -5.000000     34.179136     34.179136     68.358273
     -4.989990     39.259732     39.259732     78.519465
     -4.979980     43.630585     43.630585     87.261170
     -4.969970     46.489945     46.489945     92.979890
     -4.959960     47.299226     47.299226     94.598452
     -4.949950     45.964892     45.964892     91.929784
     -4.939940     42.870986     42.870986     85.741971
     -4.929930     38.772360     38.772360     77.544720
     -4.919920     34.615269     34.615269     69.230539
     -4.909910     31.354269     31.354269     62.708538
     -4.899900     29.794645     29.794645     59.589289
     -4.889890     30.451992     30.451992     60.903984
     -4.879880     33.422201     33.422201     66.844402
     -4.869870     38.293006     38.293006     76.586012
     -4.859860     44.161493     44.161493     88.322986
     -4.849850     49.807784     49.807784     99.615567
     -4.839840     54.007805     54.007805    108.015610
     -4.829830     55.886845     55.886845    111.773690
     -4.819820     55.175951     55.175951    110.351901
     -4.809810     52.265315     52.265315    104.530630
     -4.799800     48.036401     48.036401     96.072803
     -4.789790     43.548094     43.548094     87.096188
     -4.779780     39.703122     39.703122     79.406245
     -4.769770     37.011151     37.011151     74.022302
     -4.759760     35.511210     35.511210     71.022420
     -4.749750     34.851602     34.851602     69.703203
     -4.739740     34.475717     34.475717     68.951434
     -4.729730     33.836896     33.836896     67.673793
     -4.719720     32.565813     32.565813     65.131626
     -4.709710     30.540400     30.540400     61.080800
     -4.699700     27.855814     27.855814     55.711629
     -4.689690     24.740018     24.740018     49.480035
     -4.679680     21.480401     21.480401     42.960802
     -4.669670     18.403767     18.403767     36.807534
     -4.659660     15.901715     15.901715     31.803430
     -4.649650     14.451601     14.451601     28.903202
     -4.639640     14.577164     14.577164     29.154329
     -4.629630     16.724126     16.724126     33.448252
     -4.619620     21.075991     21.075991     42.151983
     -4.609610     27.380781     27.380781     54.761563
     -4.599600     34.880441     34.880441     69.760881
     -4.589590     42.414881     42.414881     84.829761
     -4.579580     48.707320     48.707320     97.414641
     -4.569570     52.747616     52.747616    105.495232
     -4.559560     54.123038     54.123038    108.246075
     -4.549550     53.148612     53.148612    106.297223
     -4.539540     50.731194     50.731194    101.462389
     -4.529530     48.021474     48.021474     96.042949
     -4.519520     46.000329     46.000329     92.000658
     -4.509510     45.164581     45.164581     90.329162
     -4.499499     45.421295     45.421295     90.842591
     -4.489489     46.205186     46.205186     92.410371
     -4.479479     46.746256     46.746256     93.492513
     -4.469469     46.368160     46.368160     92.736320
     -4.459459     44.704000     44.704000     89.408000
     -4.449449     41.766562     41.766562     83.533124
     -4.439439     37.879183     37.879183     75.758367
     -4.429429     33.529861     33.529861     67.059722
     -4.419419     29.229083     29.229083     58.458165
     -4.409409     25.425334     25.425334     50.850668
     -4.399399     22.480820     22.480820     44.961639
     -4.389389     20.668929     20.668929     41.337857
     -4.379379     20.152329     20.152329     40.304658
     -4.369369     20.935222     20.935222     41.870443
     -4.359359     22.825035     22.825035     45.650071
     -4.349349     25.451673     25.451673     50.903345
     -4.339339     28.363648     28.363648     56.727297
     -4.329329     31.170517     31.170517     62.341033
     -4.319319     33.666145     33.666145     67.332289
     -4.309309     35.871386     35.871386     71.742772
     -4.299299     37.972957     37.972957     75.945913
     -4.289289     40.183065     40.183065     80.366129
     -4.279279     42.577657     42.577657     85.155313
     -4.269269     44.980529     44.980529     89.961058
     -4.259259     46.948220     46.948220     93.896439
     -4.249249     47.879640     47.879640     95.759280
     -4.239239     47.227531     47.227531     94.455062
     -4.229229     44.737538     44.737538     89.475077
     -4.219219     40.610726     40.610726     81.221451
     -4.209209     35.503217     35.503217     71.006435
     -4.199199     30.345191     30.345191     60.690383
     -4.189189     26.048306     26.048306     52.096612
     -4.179179     23.226467     23.226467     46.452935
     -4.169169     22.047188     22.047188     44.094376
     -4.159159     22.265896     22.265896     44.531793
     -4.149149     23.410599     23.410599     46.821198
     -4.139139     25.020944     25.020944     50.041888
     -4.129129     26.828535     26.828535     53.657069
     -4.119119     28.797053     28.797053     57.594106
     -4.109109     31.008247     31.008247     62.016494
     -4.099099     33.458468     33.458468     66.916935
     -4.089089     35.885697     35.885697     71.771393
     -4.079079     37.744225     37.744225     75.488450
     -4.069069     38.371506     38.371506     76.743012
     -4.059059     37.280595     37.280595     74.561190
     -4.049049     34.428219     34.428219     68.856439
     -4.039039     30.311135     30.311135     60.622270
     -4.029029     25.835396     25.835396     51.670793
     -4.019019     22.025902     22.025902     44.051805
     -4.009009     19.719032     19.719032     39.438063
     -3.998999     19.368939     19.368939     38.737879
     -3.988989     21.019035     21.019035     42.038070
     -3.978979     24.402596     24.402596     48.805192
     -3.968969     29.091432     29.091432     58.182865
     -3.958959     34.622509     34.622509     69.245018
     -3.948949     40.575617     40.575617     81.151235
     -3.938939     46.612394     46.612394     93.224787
     -3.928929     52.493969     52.493969    104.987938
     -3.918919     58.076633     58.076633    116.153266
     -3.908909     63.269754     63.269754    126.539507
     -3.898899     67.951414     67.951414    135.902828
     -3.888889     71.871669     71.871669    143.743337
     -3.878879     74.602026     74.602026    149.204052
     -3.868869     75.583378     75.583378    151.166756
     -3.858859     74.279439     74.279439    148.558879
     -3.848849     70.384704     70.384704    140.769408
     -3.838839     64.000461     64.000461    128.000921
     -3.828829     55.699713     55.699713    111.399425
     -3.818819     46.446180     46.446180     92.892359
     -3.808809     37.389702     37.389702     74.779403
     -3.798799     29.604069     29.604069     59.208138
     -3.788789     23.848229     23.848229     47.696458
     -3.778779     20.417670     20.417670     40.835340
     -3.768769     19.120187     19.120187     38.240375
     -3.758759     19.373269     19.373269     38.746538
     -3.748749     20.390223     20.390223     40.780445
     -3.738739     21.404352     21.404352     42.808705
     -3.728729     21.875640     21.875640     43.751280
     -3.718719     21.630363     21.630363     43.260726
     -3.708709     20.898431     20.898431     41.796863
     -3.698699     20.234398     20.234398     40.468796
     -3.688689     20.335374     20.335374     40.670748
     -3.678679     21.799820     21.799820     43.599639
     -3.668669     24.897773     24.897773     49.795545
     -3.658659     29.432300     29.432300     58.864600
     -3.648649     34.751129     34.751129     69.502258
     -3.638639     39.915393     39.915393     79.830785
     -3.628629     43.967836     43.967836     87.935672
     -3.618619     46.198849     46.198849     92.397698
     -3.608609     46.312781     46.312781     92.625562
     -3.598599     44.448517     44.448517     88.897035
     -3.588589     41.075298     41.075298     82.150597
     -3.578579     36.826788     36.826788     73.653577
     -3.568569     32.335950     32.335950     64.671901
     -3.558559     28.106410     28.106410     56.212819
     -3.548549     24.432785     24.432785     48.865569
     -3.538539     21.377019     21.377019     42.754039
     -3.528529     18.808484     18.808484     37.616968
     -3.518519     16.503819     16.503819     33.007638
     -3.508509     14.276682     14.276682     28.553365
     -3.498498     12.087265     12.087265     24.174531
     -3.488488     10.086513     10.086513     20.173027
     -3.478478      8.579660      8.579660     17.159321
     -3.468468      7.927053      7.927053     15.854106
     -3.458458      8.417480      8.417480     16.834959
     -3.448448     10.149008     10.149008     20.298016
     -3.438438     12.948087     12.948087     25.896173
     -3.428428     16.357730     16.357730     32.715460
     -3.418418     19.720858     19.720858     39.441716
     -3.408408     22.359027     22.359027     44.718055
     -3.398398     23.799620     23.799620     47.599241
     -3.388388     23.962661     23.962661     47.925323
     -3.378378     23.217442     23.217442     46.434885
     -3.368368     22.271384     22.271384     44.542767
     -3.358358     21.931434     21.931434     43.862867
     -3.348348     22.833399     22.833399     45.666799
     -3.338338     25.236069     25.236069     50.472137
     -3.328328     28.935060     28.935060     57.870121
     -3.318318     33.303264     33.303264     66.606527
     -3.308308     37.438404     37.438404     74.876809
     -3.298298     40.389484     40.389484     80.778967
     -3.288288     41.419185     41.419185     82.838369
     -3.278278     40.230729     40.230729     80.461458
     -3.268268     37.069495     37.069495     74.138989
     -3.258258     32.637436     32.637436     65.274871
     -3.248248     27.837424     27.837424     55.674848
     -3.238238     23.453457     23.453457     46.906914
     -3.228228     19.910739     19.910739     39.821477
     -3.218218     17.216909     17.216909     34.433819
     -3.208208     15.088092     15.088092     30.176184
     -3.198198     13.172763     13.172763     26.345526
     -3.188188     11.254886     11.254886     22.509772
     -3.178178      9.353645      9.353645     18.707290
     -3.168168      7.706403      7.706403     15.412806
     -3.158158      6.676626      6.676626     13.353251
     -3.148148      6.641863      6.641863     13.283727
     -3.138138      7.894874      7.894874     15.789748
     -3.128128     10.562652     10.562652     21.125304
     -3.118118     14.539975     14.539975     29.079949
     -3.108108     19.449686     19.449686     38.899373
     -3.098098     24.661259     24.661259     49.322519
     -3.088088     29.395709     29.395709     58.791418
     -3.078078     32.908840     32.908840     65.817681
     -3.068068     34.694263     34.694263     69.388527
     -3.058058     34.618958     34.618958     69.237916
     -3.048048     32.925274     32.925274     65.850548
     -3.038038     30.099149     30.099149     60.198298
     -3.028028     26.675797     26.675797     53.351594
     -3.018018     23.083880     23.083880     46.167761
     -3.008008     19.597352     19.597352     39.194704
     -2.997998     16.394001     16.394001     32.788003
     -2.987988     13.659399     13.659399     27.318798
     -2.977978     11.660248     11.660248     23.320497
     -2.967968     10.741690     10.741690     21.483380
     -2.957958     11.249750     11.249750     22.499500
     -2.947948     13.413171     13.413171     26.826342
     -2.937938     17.228855     17.228855     34.457710
     -2.927928     22.390632     22.390632     44.781265
     -2.917918     28.291645     28.291645     56.583290
     -2.907908     34.116243     34.116243     68.232486
     -2.897898     39.012523     39.012523     78.025046
     -2.887888     42.303060     42.303060     84.606120
     -2.877878     43.663394     43.663394     87.326788
     -2.867868     43.195458     43.195458     86.390916
     -2.857858     41.357265     41.357265     82.714529
     -2.847848     38.771165     38.771165     77.542330
     -2.837838     35.991529     35.991529     71.983058
     -2.827828     33.335003     33.335003     66.670006
     -2.817818     30.845737     30.845737     61.691474
     -2.807808     28.397677     28.397677     56.795354
     -2.797798     25.864935     25.864935     51.729871
     -2.787788     23.260099     23.260099     46.520198
     -2.777778     20.766653     20.766653     41.533306
     -2.767768     18.658678     18.658678     37.317355
     -2.757758     17.167851     17.167851     34.335702
     -2.747748     16.384605     16.384605     32.769210
     -2.737738     16.251626     16.251626     32.503251
     -2.727728     16.642767     16.642767     33.285534
     -2.717718     17.461777     17.461777     34.923554
     -2.707708     18.683456     18.683456     37.366911
     -2.697698     20.305086     20.305086     40.610172
     -2.687688     22.247870     22.247870     44.495740
     -2.677678     24.293877     24.293877     48.587754
     -2.667668     26.126106     26.126106     52.252213
     -2.657658     27.465949     27.465949     54.931898
     -2.647648     28.225666     28.225666     56.451331
     -2.637638     28.572128     28.572128     57.144257
     -2.627628     28.851204     28.851204     57.702407
     -2.617618     29.412659     29.412659     58.825318
     -2.607608     30.437375     30.437375     60.874749
     -2.597598     31.858857     31.858857     63.717715
     -2.587588     33.402537     33.402537     66.805074
     -2.577578     34.694997     34.694997     69.389993
     -2.567568     35.372662     35.372662     70.745324
     -2.557558     35.151726     35.151726     70.303452
     -2.547548     33.869351     33.869351     67.738701
     -2.537538     31.524760     31.524760     63.049521
     -2.527528     28.325691     28.325691     56.651382
     -2.517518     24.708974     24.708974     49.417948
     -2.507508     21.292604     21.292604     42.585209
     -2.497497     18.744634     18.744634     37.489267
     -2.487487     17.602046     17.602046     35.204092
     -2.477477     18.107344     18.107344     36.214689
     -2.467467     20.131267     20.131267     40.262534
     -2.457457     23.218320     23.218320     46.436639
     -2.447447     26.743510     26.743510     53.487020
     -2.437437     30.123158     30.123158     60.246317
     -2.427427     32.997037     32.997037     65.994075
     -2.417417     35.305225     35.305225     70.610449
     -2.407407     37.223052     37.223052     74.446105
     -2.397397     38.979441     38.979441     77.958883
     -2.387387     40.642810     40.642810     81.285620
     -2.377377     41.985127     41.985127     83.970253
     -2.367367     42.507855     42.507855     85.015711
     -2.357357     41.636988     41.636988     83.273976
     -2.347347     39.002849     39.002849     78.005698
     -2.337337     34.666979     34.666979     69.333958
     -2.327327     29.180734     29.180734     58.361468
     -2.317317     23.448534     23.448534     46.897067
     -2.307307     18.467675     18.467675     36.935350
     -2.297297     15.065168     15.065168     30.130337
     -2.287287     13.728737     13.728737     27.457474
     -2.277277     14.562869     14.562869     29.125737
     -2.267267     17.340934     17.340934     34.681868
     -2.257257     21.601305     21.601305     43.202610
     -2.247247     26.746076     26.746076     53.492152
     -2.237237     32.123795     32.123795     64.247590
     -2.227227     37.094670     37.094670     74.189339
     -2.217217     41.083882     41.083882     82.167764
     -2.207207     43.630099     43.630099     87.260197
     -2.197197     44.434981     44.434981     88.869962
     -2.187187     43.413537     43.413537     86.827075
     -2.177177     40.732488     40.732488     81.464975
     -2.167167     36.809898     36.809898     73.619795
     -2.157157     32.248321     32.248321     64.496641
     -2.147147     27.697412     27.697412     55.394824
     -2.137137     23.684212     23.684212     47.368424
     -2.127127     20.482514     20.482514     40.965028
     -2.117117     18.086597     18.086597     36.173195
     -2.107107     16.303341     16.303341     32.606682
     -2.097097     14.909556     14.909556     29.819113
     -2.087087     13.783645     13.783645     27.567290
     -2.077077     12.939403     12.939403     25.878805
     -2.067067     12.453200     12.453200     24.906399
     -2.057057     12.341980     12.341980     24.683959
     -2.047047     12.476608     12.476608     24.953215
     -2.037037     12.588537     12.588537     25.177073
     -2.027027     12.367627     12.367627     24.735255
     -2.017017     11.594467     11.594467     23.188935
     -2.007007     10.234227     10.234227     20.468454
     -1.996997      8.447147      8.447147     16.894294
     -1.986987      6.521267      6.521267     13.042534
     -1.976977      4.772604      4.772604      9.545209
     -1.966967      3.464646      3.464646      6.929291
     -1.956957      2.774779      2.774779      5.549559
     -1.946947      2.801032      2.801032      5.602065
     -1.936937      3.581115      3.581115      7.162230
     -1.926927      5.097767      5.097767     10.195533
     -1.916917      7.263884      7.263884     14.527767
     -1.906907      9.902419      9.902419     19.804837
     -1.896897     12.744913     12.744913     25.489827
     -1.886887     15.463766     15.463766     30.927532
     -1.876877     17.734178     17.734178     35.468357
     -1.866867     19.305688     19.305688     38.611376
     -1.856857     20.059394     20.059394     40.118789
     -1.846847     20.033548     20.033548     40.067095
     -1.836837     19.408997     19.408997     38.817993
     -1.826827     18.453385     18.453385     36.906769
     -1.816817     17.433280     17.433280     34.866561
     -1.806807     16.519871     16.519871     33.039742
     -1.796797     15.727940     15.727940     31.455881
     -1.786787     14.922995     14.922995     29.845989
     -1.776777     13.900656     13.900656     27.801311
     -1.766767     12.501310     12.501310     25.002620
     -1.756757     10.700575     10.700575     21.401151
     -1.746747      8.630708      8.630708     17.261415
     -1.736737      6.530088      6.530088     13.060175
     -1.726727      4.657700      4.657700      9.315399
     -1.716717      3.221251      3.221251      6.442503
     -1.706707      2.348132      2.348132      4.696263
     -1.696697      2.095665      2.095665      4.191329
     -1.686687      2.473851      2.473851      4.947703
     -1.676677      3.452388      3.452388      6.904777
     -1.666667      4.941764      4.941764      9.883528
     -1.656657      6.763205      6.763205     13.526410
     -1.646647      8.638696      8.638696     17.277392
     -1.636637     10.228925     10.228925     20.457850
     -1.626627     11.222975     11.222975     22.445950
