# EIG2DOS: Utility for SIESTA to obtain the electronic density of states
#  E. Artacho, Apr 1999, A. Garcia, Apr 2012
#  Nick R. Papior, Feb 2017
# ------------------------------------------
# Eigenvalues calculated from a non-polarized calculation
# Eigenvalues read from siesta.EIG
# Kpoint weights read from siesta.KP
# Using smearing parameter:   0.0500
# Using 1000 points in the energy range
# Selected bands: 1 to: 2981
# Emin, Emax in file for selected band(s):    -27.0527593    218.3139340
# Nbands, Nspin, Nk   =   2981     1     1
# E_F                 =    -4.2947 eV --> (shifted to ZERO)
# Broadening          =     0.0500 eV
#
#        E            N(up)  (=)   N(down)         Ntot
     -5.000000     46.257312     46.257312     92.514625
     -4.989990     49.242655     49.242655     98.485310
     -4.979980     50.651033     50.651033    101.302067
     -4.969970     50.427205     50.427205    100.854411
     -4.959960     48.730671     48.730671     97.461342
     -4.949950     45.878505     45.878505     91.757011
     -4.939940     42.280884     42.280884     84.561767
     -4.929930     38.400240     38.400240     76.800480
     -4.919920     34.743011     34.743011     69.486022
     -4.909910     31.865414     31.865414     63.730828
     -4.899900     30.354364     30.354364     60.708728
     -4.889890     30.742775     30.742775     61.485550
     -4.879880     33.345534     33.345534     66.691068
     -4.869870     38.057775     38.057775     76.115550
     -4.859860     44.215047     44.215047     88.430094
     -4.849850     50.629969     50.629969    101.259939
     -4.839840     55.858856     55.858856    111.717711
     -4.829830     58.631531     58.631531    117.263062
     -4.819820     58.268675     58.268675    116.537349
     -4.809810     54.892557     54.892557    109.785114
     -4.799800     49.333774     49.333774     98.667549
     -4.789790     42.792293     42.792293     85.584587
     -4.779780     36.426308     36.426308     72.852617
     -4.769770     31.049019     31.049019     62.098039
     -4.759760     27.022836     27.022836     54.045673
     -4.749750     24.326177     24.326177     48.652354
     -4.739740     22.702187     22.702187     45.404373
     -4.729730     21.802103     21.802103     43.604207
     -4.719720     21.279339     21.279339     42.558678
     -4.709710     20.833108     20.833108     41.666216
     -4.699700     20.222873     20.222873     40.445747
     -4.689690     19.278913     19.278913     38.557826
     -4.679680     17.926920     17.926920     35.853839
     -4.669670     16.229015     16.229015     32.458030
     -4.659660     14.424678     14.424678     28.849355
     -4.649650     12.942624     12.942624     25.885248
     -4.639640     12.356918     12.356918     24.713837
     -4.629630     13.276709     13.276709     26.553418
     -4.619620     16.181223     16.181223     32.362445
     -4.609610     21.234559     21.234559     42.469117
     -4.599600     28.136392     28.136392     56.272784
     -4.589590     36.077839     36.077839     72.155678
     -4.579580     43.859673     43.859673     87.719347
     -4.569570     50.179048     50.179048    100.358095
     -4.559560     54.011564     54.011564    108.023128
     -4.549550     54.948711     54.948711    109.897423
     -4.539540     53.343819     53.343819    106.687638
     -4.529530     50.190097     50.190097    100.380194
     -4.519520     46.770948     46.770948     93.541895
     -4.509510     44.223749     44.223749     88.447497
     -4.499499     43.190671     43.190671     86.381342
     -4.489489     43.681274     43.681274     87.362548
     -4.479479     45.172423     45.172423     90.344846
     -4.469469     46.873369     46.873369     93.746738
     -4.459459     48.030801     48.030801     96.061602
     -4.449449     48.155706     48.155706     96.311412
     -4.439439     47.107695     47.107695     94.215391
     -4.429429     45.042803     45.042803     90.085606
     -4.419419     42.285510     42.285510     84.571020
     -4.409409     39.202707     39.202707     78.405413
     -4.399399     36.132324     36.132324     72.264648
     -4.389389     33.369964     33.369964     66.739929
     -4.379379     31.175444     31.175444     62.350888
     -4.369369     29.755701     29.755701     59.511403
     -4.359359     29.213390     29.213390     58.426780
     -4.349349     29.494104     29.494104     58.988208
     -4.339339     30.382404     30.382404     60.764809
     -4.329329     31.571564     31.571564     63.143127
     -4.319319     32.783080     32.783080     65.566160
     -4.309309     33.876930     33.876930     67.753859
     -4.299299     34.896844     34.896844     69.793688
     -4.289289     36.029894     36.029894     72.059788
     -4.279279     37.499007     37.499007     74.998013
     -4.269269     39.429458     39.429458     78.858916
     -4.259259     41.735432     41.735432     83.470864
     -4.249249     44.070750     44.070750     88.141501
     -4.239239     45.879681     45.879681     91.759362
     -4.229229     46.556866     46.556866     93.113732
     -4.219219     45.674260     45.674260     91.348521
     -4.209209     43.180285     43.180285     86.360570
     -4.199199     39.464990     39.464990     78.929980
     -4.189189     35.240438     35.240438     70.480876
     -4.179179     31.283821     31.283821     62.567643
     -4.169169     28.168954     28.168954     56.337909
     -4.159159     26.116174     26.116174     52.232349
     -4.149149     25.019889     25.019889     50.039778
     -4.139139     24.615800     24.615800     49.231599
     -4.129129     24.684167     24.684167     49.368333
     -4.119119     25.179476     25.179476     50.358952
     -4.109109     26.222122     26.222122     52.444243
     -4.099099     27.958292     27.958292     55.916584
     -4.089089     30.362602     30.362602     60.725205
     -4.079079     33.097252     33.097252     66.194504
     -4.069069     35.527071     35.527071     71.054142
     -4.059059     36.915508     36.915508     73.831016
     -4.049049     36.723185     36.723185     73.446371
     -4.039039     34.859656     34.859656     69.719311
     -4.029029     31.752957     31.752957     63.505914
     -4.019019     28.199759     28.199759     56.399518
     -4.009009     25.080164     25.080164     50.160327
     -3.998999     23.086372     23.086372     46.172743
     -3.988989     22.584878     22.584878     45.169756
     -3.978979     23.636294     23.636294     47.272589
     -3.968969     26.106085     26.106085     52.212171
     -3.958959     29.771700     29.771700     59.543400
     -3.948949     34.372580     34.372580     68.745161
     -3.938939     39.615271     39.615271     79.230542
     -3.928929     45.181421     45.181421     90.362842
     -3.918919     50.768869     50.768869    101.537738
     -3.908909     56.147967     56.147967    112.295935
     -3.898899     61.182252     61.182252    122.364504
     -3.888889     65.774949     65.774949    131.549898
     -3.878879     69.754130     69.754130    139.508260
     -3.868869     72.763638     72.763638    145.527277
     -3.858859     74.245026     74.245026    148.490051
     -3.848849     73.560061     73.560061    147.120121
     -3.838839     70.228791     70.228791    140.457582
     -3.828829     64.185014     64.185014    128.370027
     -3.818819     55.923939     55.923939    111.847877
     -3.808809     46.456725     46.456725     92.913449
     -3.798799     37.074489     37.074489     74.148978
     -3.788789     29.011043     29.011043     58.022086
     -3.778779     23.131933     23.131933     46.263867
     -3.768769     19.753335     19.753335     39.506670
     -3.758759     18.631506     18.631506     37.263012
     -3.748749     19.100692     19.100692     38.201384
     -3.738739     20.300526     20.300526     40.601053
     -3.728729     21.425766     21.425766     42.851532
     -3.718719     21.939557     21.939557     43.879115
     -3.708709     21.704951     21.704951     43.409902
     -3.698699     21.004757     21.004757     42.009514
     -3.688689     20.440034     20.440034     40.880067
     -3.678679     20.725505     20.725505     41.451009
     -3.668669     22.433387     22.433387     44.866775
     -3.658659     25.764746     25.764746     51.529492
     -3.648649     30.432843     30.432843     60.865686
     -3.638639     35.712571     35.712571     71.425142
     -3.628629     40.646876     40.646876     81.293752
     -3.618619     44.331859     44.331859     88.663717
     -3.608609     46.166413     46.166413     92.332827
     -3.598599     45.974755     45.974755     91.949511
     -3.588589     43.978272     43.978272     87.956543
     -3.578579     40.662259     40.662259     81.324519
     -3.568569     36.611384     36.611384     73.222767
     -3.558559     32.369160     32.369160     64.738321
     -3.548549     28.341358     28.341358     56.682716
     -3.538539     24.744091     24.744091     49.488181
     -3.528529     21.599855     21.599855     43.199710
     -3.518519     18.787952     18.787952     37.575904
     -3.508509     16.140981     16.140981     32.281962
     -3.498498     13.553043     13.553043     27.106086
     -3.488488     11.052254     11.052254     22.104509
     -3.478478      8.805762      8.805762     17.611524
     -3.468468      7.059865      7.059865     14.119730
     -3.458458      6.046529      6.046529     12.093057
     -3.448448      5.894350      5.894350     11.788700
     -3.438438      6.571322      6.571322     13.142644
     -3.428428      7.873486      7.873486     15.746971
     -3.418418      9.465522      9.465522     18.931043
     -3.408408     10.971012     10.971012     21.942024
     -3.398398     12.093567     12.093567     24.187135
     -3.388388     12.729126     12.729126     25.458252
     -3.378378     13.021003     13.021003     26.042007
     -3.368368     13.326662     13.326662     26.653324
     -3.358358     14.103998     14.103998     28.207996
     -3.348348     15.761528     15.761528     31.523056
     -3.338338     18.526881     18.526881     37.053762
     -3.328328     22.367666     22.367666     44.735332
     -3.318318     26.968739     26.968739     53.937477
     -3.308308     31.756602     31.756602     63.513204
     -3.298298     35.971690     35.971690     71.943380
     -3.288288     38.801136     38.801136     77.602272
     -3.278278     39.570080     39.570080     79.140160
     -3.268268     37.945908     37.945908     75.891816
     -3.258258     34.070897     34.070897     68.141795
     -3.248248     28.547102     28.547102     57.094204
     -3.238238     22.262147     22.262147     44.524294
     -3.228228     16.126703     16.126703     32.253406
     -3.218218     10.837214     10.837214     21.674428
     -3.208208      6.753853      6.753853     13.507706
     -3.198198      3.915831      3.915831      7.831663
     -3.188188      2.152189      2.152189      4.304379
     -3.178178      1.220844      1.220844      2.441687
     -3.168168      0.922905      0.922905      1.845809
     -3.158158      1.169989      1.169989      2.339978
     -3.148148      2.005439      2.005439      4.010878
     -3.138138      3.587004      3.587004      7.174009
     -3.128128      6.134842      6.134842     12.269683
     -3.118118      9.846935      9.846935     19.693870
     -3.108108     14.792295     14.792295     29.584589
     -3.098098     20.808985     20.808985     41.617971
     -3.088088     27.448268     27.448268     54.896535
     -3.078078     34.004049     34.004049     68.008097
     -3.068068     39.641146     39.641146     79.282291
     -3.058058     43.593521     43.593521     87.187041
     -3.048048     45.365650     45.365650     90.731300
     -3.038038     44.860590     44.860590     89.721179
     -3.028028     42.387404     42.387404     84.774807
     -3.018018     38.554479     38.554479     77.108958
     -3.008008     34.102365     34.102365     68.204731
     -2.997998     29.743255     29.743255     59.486511
     -2.987988     26.052167     26.052167     52.104335
     -2.977978     23.419705     23.419705     46.839410
     -2.967968     22.052982     22.052982     44.105964
     -2.957958     22.006095     22.006095     44.012189
     -2.947948     23.222550     23.222550     46.445099
     -2.937938     25.569442     25.569442     51.138884
     -2.927928     28.843325     28.843325     57.686651
     -2.917918     32.743928     32.743928     65.487855
     -2.907908     36.842517     36.842517     73.685035
     -2.897898     40.593185     40.593185     81.186369
     -2.887888     43.421859     43.421859     86.843719
     -2.877878     44.879181     44.879181     89.758362
     -2.867868     44.790799     44.790799     89.581598
     -2.857858     43.322372     43.322372     86.644743
     -2.847848     40.913009     40.913009     81.826019
     -2.837838     38.100059     38.100059     76.200118
     -2.827828     35.317583     35.317583     70.635166
     -2.817818     32.765023     32.765023     65.530046
     -2.807808     30.403783     30.403783     60.807565
     -2.797798     28.070779     28.070779     56.141558
     -2.787788     25.637756     25.637756     51.275512
     -2.777778     23.125762     23.125762     46.251524
     -2.767768     20.715003     20.715003     41.430007
     -2.757758     18.653326     18.653326     37.306652
     -2.747748     17.125856     17.125856     34.251711
     -2.737738     16.169426     16.169426     32.338853
     -2.727728     15.685201     15.685201     31.370402
     -2.717718     15.538695     15.538695     31.077390
     -2.707708     15.677973     15.677973     31.355947
     -2.697698     16.186302     16.186302     32.372604
     -2.687688     17.226822     17.226822     34.453644
     -2.677678     18.909184     18.909184     37.818369
     -2.667668     21.164537     21.164537     42.329073
     -2.657658     23.716468     23.716468     47.432935
     -2.647648     26.177224     26.177224     52.354448
     -2.637638     28.217028     28.217028     56.434056
     -2.627628     29.704544     29.704544     59.409088
     -2.617618     30.734441     30.734441     61.468881
     -2.607608     31.532453     31.532453     63.064907
     -2.597598     32.306316     32.306316     64.612632
     -2.587588     33.136056     33.136056     66.272112
     -2.577578     33.954831     33.954831     67.909663
     -2.567568     34.600893     34.600893     69.201787
     -2.557558     34.881727     34.881727     69.763453
     -2.547548     34.610322     34.610322     69.220644
     -2.537538     33.623868     33.623868     67.247736
     -2.527528     31.823126     31.823126     63.646252
     -2.517518     29.247780     29.247780     58.495560
     -2.507508     26.151710     26.151710     52.303419
     -2.497497     23.012908     23.012908     46.025816
     -2.487487     20.436767     20.436767     40.873534
     -2.477477     18.974096     18.974096     37.948191
     -2.467467     18.931821     18.931821     37.863642
     -2.457457     20.267154     20.267154     40.534308
     -2.447447     22.618648     22.618648     45.237296
     -2.437437     25.462504     25.462504     50.925007
     -2.427427     28.323071     28.323071     56.646141
     -2.417417     30.940380     30.940380     61.880760
     -2.407407     33.316682     33.316682     66.633365
     -2.397397     35.620655     35.620655     71.241310
     -2.387387     37.996905     37.996905     75.993810
     -2.377377     40.377272     40.377272     80.754545
     -2.367367     42.394881     42.394881     84.789763
     -2.357357     43.457505     43.457505     86.915010
     -2.347347     42.961842     42.961842     85.923684
     -2.337337     40.559144     40.559144     81.118287
     -2.327327     36.351731     36.351731     72.703463
     -2.317317     30.928506     30.928506     61.857012
     -2.307307     25.222734     25.222734     50.445469
     -2.297297     20.255890     20.255890     40.511780
     -2.287287     16.872999     16.872999     33.745998
     -2.277277     15.560693     15.560693     31.121387
     -2.267267     16.388165     16.388165     32.776331
     -2.257257     19.058918     19.058918     38.117835
     -2.247247     23.031665     23.031665     46.063330
     -2.237237     27.662865     27.662865     55.325731
     -2.227227     32.330255     32.330255     64.660510
     -2.217217     36.509633     36.509633     73.019266
     -2.207207     39.796914     39.796914     79.593828
     -2.197197     41.892906     41.892906     83.785811
     -2.187187     42.587695     42.587695     85.175390
     -2.177177     41.778337     41.778337     83.556674
     -2.167167     39.522500     39.522500     79.045000
     -2.157157     36.089458     36.089458     72.178915
     -2.147147     31.950749     31.950749     63.901498
     -2.137137     27.678047     27.678047     55.356094
     -2.127127     23.774708     23.774708     47.549416
     -2.117117     20.519587     20.519587     41.039174
     -2.107107     17.906171     17.906171     35.812342
     -2.097097     15.709233     15.709233     31.418466
     -2.087087     13.638444     13.638444     27.276887
     -2.077077     11.493031     11.493031     22.986062
     -2.067067      9.241336      9.241336     18.482672
     -2.057057      7.001675      7.001675     14.003351
     -2.047047      4.957221      4.957221      9.914443
     -2.037037      3.263122      3.263122      6.526245
     -2.027027      1.991357      1.991357      3.982715
     -2.017017      1.125988      1.125988      2.251976
     -2.007007      0.593484      0.593484      1.186969
     -1.996997      0.303287      0.303287      0.606575
     -1.986987      0.180546      0.180546      0.361091
     -1.976977      0.185288      0.185288      0.370576
     -1.966967      0.320748      0.320748      0.641496
     -1.956957      0.634842      0.634842      1.269685
     -1.946947      1.215009      1.215009      2.430018
     -1.936937      2.172416      2.172416      4.344832
     -1.926927      3.611481      3.611481      7.222963
     -1.916917      5.586738      5.586738     11.173476
     -1.906907      8.059085      8.059085     16.118170
     -1.896897     10.870736     10.870736     21.741471
     -1.886887     13.755770     13.755770     27.511540
     -1.876877     16.389825     16.389825     32.779651
     -1.866867     18.465238     18.465238     36.930475
     -1.856857     19.767274     19.767274     39.534547
     -1.846847     20.227847     20.227847     40.455693
     -1.836837     19.941106     19.941106     39.882213
     -1.826827     19.134079     19.134079     38.268158
     -1.816817     18.094718     18.094718     36.189435
     -1.806807     17.073837     17.073837     34.147675
     -1.796797     16.195086     16.195086     32.390171
     -1.786787     15.415322     15.415322     30.830644
     -1.776777     14.561887     14.561887     29.123774
     -1.766767     13.434933     13.434933     26.869865
     -1.756757     11.925316     11.925316     23.850631
     -1.746747     10.089144     10.089144     20.178288
     -1.736737      8.146814      8.146814     16.293629
     -1.726727      6.417616      6.417616     12.835231
     -1.716717      5.230016      5.230016     10.460033
     -1.706707      4.846171      4.846171      9.692342
     -1.696697      5.415758      5.415758     10.831516
     -1.686687      6.952095      6.952095     13.904190
     -1.676677      9.319120      9.319120     18.638240
     -1.666667     12.229572     12.229572     24.459143
     -1.656657     15.267330     15.267330     30.534659
     -1.646647     17.946564     17.946564     35.893128
     -1.636637     19.805509     19.805509     39.611019
     -1.626627     20.513526     20.513526     41.027053
