# EIG2DOS: Utility for SIESTA to obtain the electronic density of states
#  E. Artacho, Apr 1999, A. Garcia, Apr 2012
#  Nick R. Papior, Feb 2017
# ------------------------------------------
# Eigenvalues calculated from a non-polarized calculation
# Eigenvalues read from siesta.EIG
# Kpoint weights read from siesta.KP
# Using smearing parameter:   0.0500
# Using 1000 points in the energy range
# Selected bands: 1 to: 2981
# Emin, Emax in file for selected band(s):    -27.3618132    218.3921310
# Nbands, Nspin, Nk   =   2981     1     1
# E_F                 =    -4.2036 eV --> (shifted to ZERO)
# Broadening          =     0.0500 eV
#
#        E            N(up)  (=)   N(down)         Ntot
     -5.000000     30.361017     30.361017     60.722034
     -4.989990     35.379360     35.379360     70.758719
     -4.979980     40.344306     40.344306     80.688612
     -4.969970     44.434548     44.434548     88.869096
     -4.959960     46.879823     46.879823     93.759646
     -4.949950     47.213537     47.213537     94.427073
     -4.939940     45.436006     45.436006     90.872013
     -4.929930     42.031799     42.031799     84.063599
     -4.919920     37.852927     37.852927     75.705854
     -4.909910     33.926379     33.926379     67.852757
     -4.899900     31.245974     31.245974     62.491947
     -4.889890     30.579454     30.579454     61.158908
     -4.879880     32.300121     32.300121     64.600241
     -4.869870     36.262580     36.262580     72.525160
     -4.859860     41.770398     41.770398     83.540796
     -4.849850     47.689925     47.689925     95.379851
     -4.839840     52.722022     52.722022    105.444043
     -4.829830     55.766006     55.766006    111.532012
     -4.819820     56.246534     56.246534    112.493067
     -4.809810     54.270972     54.270972    108.541945
     -4.799800     50.551770     50.551770    101.103541
     -4.789790     46.130027     46.130027     92.260054
     -4.779780     42.017522     42.017522     84.035045
     -4.769770     38.895469     38.895469     77.790938
     -4.759760     36.967600     36.967600     73.935201
     -4.749750     35.992707     35.992707     71.985414
     -4.739740     35.453990     35.453990     70.907980
     -4.729730     34.782793     34.782793     69.565585
     -4.719720     33.549354     33.549354     67.098709
     -4.709710     31.560469     31.560469     63.120937
     -4.699700     28.852897     28.852897     57.705795
     -4.689690     25.620904     25.620904     51.241807
     -4.679680     22.139816     22.139816     44.279632
     -4.669670     18.731406     18.731406     37.462812
     -4.659660     15.773701     15.773701     31.547401
     -4.649650     13.718696     13.718696     27.437392
     -4.639640     13.070821     13.070821     26.141642
     -4.629630     14.298922     14.298922     28.597843
     -4.619620     17.690094     17.690094     35.380188
     -4.609610     23.188865     23.188865     46.377730
     -4.599600     30.289325     30.289325     60.578650
     -4.589590     38.049940     38.049940     76.099881
     -4.579580     45.269524     45.269524     90.539047
     -4.569570     50.798223     50.798223    101.596446
     -4.559560     53.884093     53.884093    107.768187
     -4.549550     54.416090     54.416090    108.832179
     -4.539540     52.950487     52.950487    105.900974
     -4.529530     50.495338     50.495338    100.990677
     -4.519520     48.134317     48.134317     96.268635
     -4.509510     46.642346     46.642346     93.284692
     -4.499499     46.245775     46.245775     92.491549
     -4.489489     46.611817     46.611817     93.223635
     -4.479479     47.050394     47.050394     94.100789
     -4.469469     46.824887     46.824887     93.649774
     -4.459459     45.434729     45.434729     90.869458
     -4.449449     42.763229     42.763229     85.526459
     -4.439439     39.058505     39.058505     78.117009
     -4.429429     34.794040     34.794040     69.588081
     -4.419419     30.498943     30.498943     60.997886
     -4.409409     26.637689     26.637689     53.275377
     -4.399399     23.567385     23.567385     47.134770
     -4.389389     21.543838     21.543838     43.087675
     -4.379379     20.724274     20.724274     41.448548
     -4.369369     21.137610     21.137610     42.275220
     -4.359359     22.640589     22.640589     45.281177
     -4.349349     24.909632     24.909632     49.819264
     -4.339339     27.507125     27.507125     55.014249
     -4.329329     30.014628     30.014628     60.029256
     -4.319319     32.178154     32.178154     64.356309
     -4.309309     33.994469     33.994469     67.988938
     -4.299299     35.690674     35.690674     71.381348
     -4.289289     37.595748     37.595748     75.191495
     -4.279279     39.948758     39.948758     79.897516
     -4.269269     42.718407     42.718407     85.436813
     -4.259259     45.515004     45.515004     91.030009
     -4.249249     47.653025     47.653025     95.306051
     -4.239239     48.367457     48.367457     96.734913
     -4.229229     47.113608     47.113608     94.227217
     -4.219219     43.823434     43.823434     87.646869
     -4.209209     38.992458     38.992458     77.984917
     -4.199199     33.543086     33.543086     67.086171
     -4.189189     28.518713     28.518713     57.037427
     -4.179179     24.746018     24.746018     49.492035
     -4.169169     22.611883     22.611883     45.223766
     -4.159159     22.035822     22.035822     44.071644
     -4.149149     22.621359     22.621359     45.242718
     -4.139139     23.893879     23.893879     47.787758
     -4.129129     25.508684     25.508684     51.017368
     -4.119119     27.340664     27.340664     54.681327
     -4.109109     29.426511     29.426511     58.853021
     -4.099099     31.798657     31.798657     63.597313
     -4.089089     34.304280     34.304280     68.608560
     -4.079079     36.519139     36.519139     73.038279
     -4.069069     37.827363     37.827363     75.654726
     -4.059059     37.652451     37.652451     75.304901
     -4.049049     35.733886     35.733886     71.467771
     -4.039039     32.305407     32.305407     64.610814
     -4.029029     28.076014     28.076014     56.152027
     -4.019019     24.018880     24.018880     48.037759
     -4.009009     21.071285     21.071285     42.142570
     -3.998999     19.881475     19.881475     39.762951
     -3.988989     20.694509     20.694509     41.389018
     -3.978979     23.386384     23.386384     46.772767
     -3.968969     27.588661     27.588661     55.177322
     -3.958959     32.827948     32.827948     65.655895
     -3.948949     38.631839     38.631839     77.263677
     -3.938939     44.593688     44.593688     89.187375
     -3.928929     50.410097     50.410097    100.820194
     -3.918919     55.897235     55.897235    111.794470
     -3.908909     60.972945     60.972945    121.945891
     -3.898899     65.589231     65.589231    131.178462
     -3.888889     69.625858     69.625858    139.251717
     -3.878879     72.793414     72.793414    145.586829
     -3.868869     74.610988     74.610988    149.221976
     -3.858859     74.499379     74.499379    148.998757
     -3.848849     71.974172     71.974172    143.948344
     -3.838839     66.866194     66.866194    133.732389
     -3.828829     59.473074     59.473074    118.946148
     -3.818819     50.568835     50.568835    101.137670
     -3.808809     41.256368     41.256368     82.512736
     -3.798799     32.710740     32.710740     65.421481
     -3.788789     25.900260     25.900260     51.800519
     -3.778779     21.373208     21.373208     42.746416
     -3.768769     19.167353     19.167353     38.334705
     -3.758759     18.855523     18.855523     37.711046
     -3.748749     19.702328     19.702328     39.404656
     -3.738739     20.883913     20.883913     41.767826
     -3.728729     21.714715     21.714715     43.429430
     -3.718719     21.828164     21.828164     43.656328
     -3.708709     21.268677     21.268677     42.537354
     -3.698699     20.469010     20.469010     40.938020
     -3.688689     20.110677     20.110677     40.221354
     -3.678679     20.895499     20.895499     41.790998
     -3.668669     23.288740     23.288740     46.577480
     -3.658659     27.317079     27.317079     54.634158
     -3.648649     32.501326     32.501326     65.002652
     -3.638639     37.963464     37.963464     75.926927
     -3.628629     42.678559     42.678559     85.357117
     -3.618619     45.776250     45.776250     91.552500
     -3.608609     46.773327     46.773327     93.546653
     -3.598599     45.656253     45.656253     91.312506
     -3.588589     42.808176     42.808176     85.616351
     -3.578579     38.840636     38.840636     77.681272
     -3.568569     34.409212     34.409212     68.818424
     -3.558559     30.067215     30.067215     60.134429
     -3.548549     26.175643     26.175643     52.351287
     -3.538539     22.870031     22.870031     45.740061
     -3.528529     20.085512     20.085512     40.171024
     -3.518519     17.639389     17.639389     35.278778
     -3.508509     15.352162     15.352162     30.704324
     -3.498498     13.164174     13.164174     26.328349
     -3.488488     11.198274     11.198274     22.396547
     -3.478478      9.739456      9.739456     19.478912
     -3.468468      9.137797      9.137797     18.275595
     -3.458458      9.669854      9.669854     19.339709
     -3.448448     11.405423     11.405423     22.810845
     -3.438438     14.125044     14.125044     28.250087
     -3.428428     17.324913     17.324913     34.649825
     -3.418418     20.326759     20.326759     40.653518
     -3.408408     22.474952     22.474952     44.949905
     -3.398398     23.358878     23.358878     46.717756
     -3.388388     22.971145     22.971145     45.942291
     -3.378378     21.727684     21.727684     43.455368
     -3.368368     20.335121     20.335121     40.670243
     -3.358358     19.561651     19.561651     39.123301
     -3.348348     20.005687     20.005687     40.011374
     -3.338338     21.940435     21.940435     43.880871
     -3.328328     25.260464     25.260464     50.520929
     -3.318318     29.510861     29.510861     59.021722
     -3.308308     33.970953     33.970953     67.941906
     -3.298298     37.785145     37.785145     75.570290
     -3.288288     40.145884     40.145884     80.291767
     -3.278278     40.509084     40.509084     81.018168
     -3.268268     38.773284     38.773284     77.546567
     -3.258258     35.329305     35.329305     70.658611
     -3.248248     30.927582     30.927582     61.855164
     -3.238238     26.403733     26.403733     52.807465
     -3.228228     22.387538     22.387538     44.775076
     -3.218218     19.133434     19.133434     38.266869
     -3.208208     16.540489     16.540489     33.080977
     -3.198198     14.324753     14.324753     28.649506
     -3.188188     12.235508     12.235508     24.471015
     -3.178178     10.207142     10.207142     20.414284
     -3.168168      8.396081      8.396081     16.792162
     -3.158158      7.119689      7.119689     14.239377
     -3.148148      6.749188      6.749188     13.498376
     -3.138138      7.601712      7.601712     15.203424
     -3.128128      9.849547      9.849547     19.699094
     -3.118118     13.447706     13.447706     26.895413
     -3.108108     18.087351     18.087351     36.174703
     -3.098098     23.200025     23.200025     46.400050
     -3.088088     28.040916     28.040916     56.081832
     -3.078078     31.852868     31.852868     63.705735
     -3.068068     34.066292     34.066292     68.132584
     -3.058058     34.454792     34.454792     68.909584
     -3.048048     33.172953     33.172953     66.345905
     -3.038038     30.656655     30.656655     61.313309
     -3.028028     27.438196     27.438196     54.876393
     -3.018018     23.972548     23.972548     47.945095
     -3.008008     20.557397     20.557397     41.114794
     -2.997998     17.367918     17.367918     34.735836
     -2.987988     14.559552     14.559552     29.119105
     -2.977978     12.361094     12.361094     24.722188
     -2.967968     11.098462     11.098462     22.196924
     -2.957958     11.135323     11.135323     22.270646
     -2.947948     12.757846     12.757846     25.515693
     -2.937938     16.049532     16.049532     32.099064
     -2.927928     20.801203     20.801203     41.602405
     -2.917918     26.491315     26.491315     52.982630
     -2.907908     32.356435     32.356435     64.712870
     -2.897898     37.547627     37.547627     75.095253
     -2.887888     41.335866     41.335866     82.671732
     -2.877878     43.300376     43.300376     86.600753
     -2.867868     43.426905     43.426905     86.853811
     -2.857858     42.070593     42.070593     84.141186
     -2.847848     39.793546     39.793546     79.587092
     -2.837838     37.145125     37.145125     74.290249
     -2.827828     34.481683     34.481683     68.963366
     -2.817818     31.903366     31.903366     63.806731
     -2.807808     29.325655     29.325655     58.651311
     -2.797798     26.634069     26.634069     53.268138
     -2.787788     23.829997     23.829997     47.659994
     -2.777778     21.086830     21.086830     42.173660
     -2.767768     18.691267     18.691267     37.382533
     -2.757758     16.912488     16.912488     33.824976
     -2.747748     15.882243     15.882243     31.764486
     -2.737738     15.558313     15.558313     31.116626
     -2.727728     15.788644     15.788644     31.577289
     -2.717718     16.427449     16.427449     32.854898
     -2.707708     17.420208     17.420208     34.840415
     -2.697698     18.796339     18.796339     37.592678
     -2.687688     20.574664     20.574664     41.149328
     -2.677678     22.653466     22.653466     45.306932
     -2.667668     24.775324     24.775324     49.550647
     -2.657658     26.609272     26.609272     53.218545
     -2.647648     27.909457     27.909457     55.818914
     -2.637638     28.649738     28.649738     57.299476
     -2.627628     29.043251     29.043251     58.086502
     -2.617618     29.429920     29.429920     58.859840
     -2.607608     30.099945     30.099945     60.199890
     -2.597598     31.155970     31.155970     62.311940
     -2.587588     32.479789     32.479789     64.959579
     -2.577578     33.795365     33.795365     67.590730
     -2.567568     34.767921     34.767921     69.535843
     -2.557558     35.083308     35.083308     70.166617
     -2.547548     34.496383     34.496383     68.992765
     -2.537538     32.874048     32.874048     65.748095
     -2.527528     30.253859     30.253859     60.507719
     -2.517518     26.901435     26.901435     53.802871
     -2.507508     23.319014     23.319014     46.638029
     -2.497497     20.165653     20.165653     40.331307
     -2.487487     18.094194     18.094194     36.188388
     -2.477477     17.559867     17.559867     35.119734
     -2.467467     18.678014     18.678014     37.356028
     -2.457457     21.192533     21.192533     42.385067
     -2.447447     24.572373     24.572373     49.144746
     -2.437437     28.200758     28.200758     56.401515
     -2.427427     31.581308     31.581308     63.162615
     -2.417417     34.473984     34.473984     68.947968
     -2.407407     36.900593     36.900593     73.801187
     -2.397397     39.017674     39.017674     78.035348
     -2.387387     40.919957     40.919957     81.839914
     -2.377377     42.477822     42.477822     84.955644
     -2.367367     43.302934     43.302934     86.605869
     -2.357357     42.876046     42.876046     85.752092
     -2.347347     40.786419     40.786419     81.572839
     -2.337337     36.968373     36.968373     73.936747
     -2.327327     31.815987     31.815987     63.631975
     -2.317317     26.117845     26.117845     52.235689
     -2.307307     20.844232     20.844232     41.688464
     -2.297297     16.884962     16.884962     33.769924
     -2.287287     14.842205     14.842205     29.684410
     -2.277277     14.936896     14.936896     29.873791
     -2.267267     17.027084     17.027084     34.054167
     -2.257257     20.697624     20.697624     41.395247
     -2.247247     25.373638     25.373638     50.747275
     -2.237237     30.423896     30.423896     60.847792
     -2.227227     35.238311     35.238311     70.476623
     -2.217217     39.277830     39.277830     78.555659
     -2.207207     42.104818     42.104818     84.209637
     -2.197197     43.408124     43.408124     86.816249
     -2.187187     43.035909     43.035909     86.071817
     -2.177177     41.036899     41.036899     82.073798
     -2.167167     37.689736     37.689736     75.379472
     -2.157157     33.485144     33.485144     66.970289
     -2.147147     29.035051     29.035051     58.070102
     -2.137137     24.920790     24.920790     49.841580
     -2.127127     21.538089     21.538089     43.076179
     -2.117117     19.014016     19.014016     38.028032
     -2.107107     17.239307     17.239307     34.478613
     -2.097097     15.993718     15.993718     31.987437
     -2.087087     15.086540     15.086540     30.173079
     -2.077077     14.429444     14.429444     28.858888
     -2.067067     14.008905     14.008905     28.017810
     -2.057057     13.794956     13.794956     27.589912
     -2.047047     13.663493     13.663493     27.326986
     -2.037037     13.394306     13.394306     26.788613
     -2.027027     12.750564     12.750564     25.501128
     -2.017017     11.589293     11.589293     23.178585
     -2.007007      9.934489      9.934489     19.868979
     -1.996997      7.972784      7.972784     15.945568
     -1.986987      5.981679      5.981679     11.963357
     -1.976977      4.236804      4.236804      8.473608
     -1.966967      2.946783      2.946783      5.893567
     -1.956957      2.237587      2.237587      4.475173
     -1.946947      2.174892      2.174892      4.349783
     -1.936937      2.793848      2.793848      5.587696
     -1.926927      4.108387      4.108387      8.216774
     -1.916917      6.090989      6.090989     12.181979
     -1.906907      8.635969      8.635969     17.271937
     -1.896897     11.532546     11.532546     23.065092
     -1.886887     14.471693     14.471693     28.943385
     -1.876877     17.094748     17.094748     34.189496
     -1.866867     19.071739     19.071739     38.143478
     -1.856857     20.183911     20.183911     40.367821
     -1.846847     20.382959     20.382959     40.765918
     -1.836837     19.805920     19.805920     39.611840
     -1.826827     18.735300     18.735300     37.470600
     -1.816817     17.508869     17.508869     35.017738
     -1.806807     16.403660     16.403660     32.807320
     -1.796797     15.537813     15.537813     31.075626
     -1.786787     14.836792     14.836792     29.673585
     -1.776777     14.086031     14.086031     28.172062
     -1.766767     13.048155     13.048155     26.096310
     -1.756757     11.586457     11.586457     23.172914
     -1.746747      9.733332      9.733332     19.466665
     -1.736737      7.676284      7.676284     15.352567
     -1.726727      5.681421      5.681421     11.362841
     -1.716717      4.003680      4.003680      8.007361
     -1.706707      2.828351      2.828351      5.656703
     -1.696697      2.258790      2.258790      4.517579
     -1.686687      2.333624      2.333624      4.667249
     -1.676677      3.042951      3.042951      6.085902
     -1.666667      4.322366      4.322366      8.644732
     -1.656657      6.027536      6.027536     12.055072
     -1.646647      7.914570      7.914570     15.829139
     -1.636637      9.657913      9.657913     19.315826
     -1.626627     10.921511     10.921511     21.843023
