# EIG2DOS: Utility for SIESTA to obtain the electronic density of states
#  E. Artacho, Apr 1999, A. Garcia, Apr 2012
#  Nick R. Papior, Feb 2017
# ------------------------------------------
# Eigenvalues calculated from a non-polarized calculation
# Eigenvalues read from siesta.EIG
# Kpoint weights read from siesta.KP
# Using smearing parameter:   0.0500
# Using 1000 points in the energy range
# Selected bands: 1 to: 2981
# Emin, Emax in file for selected band(s):    -27.0372994    218.3124110
# Nbands, Nspin, Nk   =   2981     1     1
# E_F                 =    -4.2984 eV --> (shifted to ZERO)
# Broadening          =     0.0500 eV
#
#        E            N(up)  (=)   N(down)         Ntot
     -5.000000     45.789218     45.789218     91.578436
     -4.989990     48.875093     48.875093     97.750186
     -4.979980     50.439772     50.439772    100.879544
     -4.969970     50.405089     50.405089    100.810179
     -4.959960     48.898293     48.898293     97.796585
     -4.949950     46.204179     46.204179     92.408357
     -4.939940     42.709281     42.709281     85.418562
     -4.929930     38.865256     38.865256     77.730512
     -4.919920     35.179565     35.179565     70.359129
     -4.909910     32.217210     32.217210     64.434419
     -4.899900     30.578269     30.578269     61.156538
     -4.889890     30.812784     30.812784     61.625568
     -4.879880     33.258486     33.258486     66.516971
     -4.869870     37.839436     37.839436     75.678871
     -4.859860     43.921571     43.921571     87.843142
     -4.849850     50.339423     50.339423    100.678847
     -4.839840     55.651864     55.651864    111.303727
     -4.829830     58.566963     58.566963    117.133927
     -4.819820     58.364910     58.364910    116.729820
     -4.809810     55.123371     55.123371    110.246743
     -4.799800     49.640768     49.640768     99.281536
     -4.789790     43.107481     43.107481     86.214962
     -4.779780     36.694448     36.694448     73.388897
     -4.769770     31.241322     31.241322     62.482643
     -4.759760     27.139378     27.139378     54.278756
     -4.749750     24.389406     24.389406     48.778813
     -4.739740     22.745842     22.745842     45.491684
     -4.729730     21.859353     21.859353     43.718706
     -4.719720     21.372931     21.372931     42.745862
     -4.709710     20.969650     20.969650     41.939300
     -4.699700     20.392463     20.392463     40.784925
     -4.689690     19.459568     19.459568     38.919136
     -4.679680     18.091164     18.091164     36.182328
     -4.669670     16.349092     16.349092     32.698184
     -4.659660     14.474137     14.474137     28.948273
     -4.649650     12.894830     12.894830     25.789659
     -4.639640     12.183800     12.183800     24.367601
     -4.629630     12.951967     12.951967     25.903933
     -4.619620     15.690368     15.690368     31.380737
     -4.609610     20.589897     20.589897     41.179794
     -4.599600     27.390109     27.390109     54.780218
     -4.589590     35.323855     35.323855     70.647710
     -4.579580     43.217606     43.217606     86.435211
     -4.569570     49.761818     49.761818     99.523637
     -4.559560     53.888101     53.888101    107.776202
     -4.549550     55.118525     55.118525    110.237051
     -4.539540     53.736518     53.736518    107.473037
     -4.529530     50.691165     50.691165    101.382331
     -4.519520     47.262115     47.262115     94.524231
     -4.509510     44.619740     44.619740     89.239479
     -4.499499     43.457581     43.457581     86.915163
     -4.489489     43.832459     43.832459     87.664918
     -4.479479     45.248811     45.248811     90.497623
     -4.469469     46.920617     46.920617     93.841233
     -4.459459     48.083764     48.083764     96.167529
     -4.449449     48.233965     48.233965     96.467930
     -4.439439     47.218975     47.218975     94.437950
     -4.429429     45.188002     45.188002     90.376003
     -4.419419     42.460623     42.460623     84.921247
     -4.409409     39.397243     39.397243     78.794487
     -4.399399     36.327479     36.327479     72.654958
     -4.389389     33.540377     33.540377     67.080754
     -4.379379     31.295673     31.295673     62.591346
     -4.369369     29.808755     29.808755     59.617511
     -4.359359     29.196534     29.196534     58.393069
     -4.349349     29.418161     29.418161     58.836322
     -4.339339     30.264288     30.264288     60.528576
     -4.329329     31.423700     31.423700     62.847401
     -4.319319     32.605395     32.605395     65.210790
     -4.309309     33.656100     33.656100     67.312200
     -4.299299     34.614010     34.614010     69.228019
     -4.289289     35.673749     35.673749     71.347497
     -4.279279     37.078440     37.078440     74.156881
     -4.269269     38.979985     38.979985     77.959969
     -4.259259     41.316209     41.316209     82.632419
     -4.249249     43.752526     43.752526     87.505053
     -4.239239     45.726939     45.726939     91.453879
     -4.229229     46.609201     46.609201     93.218403
     -4.219219     45.932731     45.932731     91.865463
     -4.209209     43.603852     43.603852     87.207704
     -4.199199     39.979510     39.979510     79.959019
     -4.189189     35.758154     35.758154     71.516309
     -4.179179     31.726710     31.726710     63.453420
     -4.169169     28.487336     28.487336     56.974672
     -4.159159     26.296075     26.296075     52.592150
     -4.149149     25.077547     25.077547     50.155093
     -4.139139     24.582927     24.582927     49.165854
     -4.129129     24.590905     24.590905     49.181810
     -4.119119     25.042564     25.042564     50.085128
     -4.109109     26.043587     26.043587     52.087174
     -4.099099     27.735227     27.735227     55.470454
     -4.089089     30.102665     30.102665     60.205331
     -4.079079     32.830302     32.830302     65.660604
     -4.069069     35.304105     35.304105     70.608210
     -4.059059     36.792737     36.792737     73.585474
     -4.049049     36.738372     36.738372     73.476744
     -4.039039     35.013615     35.013615     70.027230
     -4.029029     32.006954     32.006954     64.013909
     -4.019019     28.490390     28.490390     56.980780
     -4.009009     25.343260     25.343260     50.686520
     -3.998999     23.277276     23.277276     46.554551
     -3.988989     22.686281     22.686281     45.372561
     -3.978979     23.653244     23.653244     47.306487
     -3.968969     26.054562     26.054562     52.109123
     -3.958959     29.668293     29.668293     59.336586
     -3.948949     34.229017     34.229017     68.458034
     -3.938939     39.436924     39.436924     78.873848
     -3.928929     44.967236     44.967236     89.934473
     -3.918919     50.511998     50.511998    101.023997
     -3.908909     55.839055     55.839055    111.678110
     -3.898899     60.817514     60.817514    121.635027
     -3.888889     65.367858     65.367858    130.735716
     -3.878879     69.344970     69.344970    138.689940
     -3.868869     72.419324     72.419324    144.838649
     -3.858859     74.044893     74.044893    148.089785
     -3.848849     73.570716     73.570716    147.141431
     -3.838839     70.478170     70.478170    140.956341
     -3.828829     64.647757     64.647757    129.295513
     -3.818819     56.525344     56.525344    113.050689
     -3.808809     47.093755     47.093755     94.187509
     -3.798799     37.644780     37.644780     75.289560
     -3.788789     29.438740     29.438740     58.877479
     -3.778779     23.382481     23.382481     46.764961
     -3.768769     19.835088     19.835088     39.670175
     -3.758759     18.586614     18.586614     37.173227
     -3.748749     18.989630     18.989630     37.979261
     -3.738739     20.184552     20.184552     40.369105
     -3.728729     21.350877     21.350877     42.701754
     -3.718719     21.925032     21.925032     43.850064
     -3.708709     21.739062     21.739062     43.478124
     -3.698699     21.049215     21.049215     42.098431
     -3.688689     20.442833     20.442833     40.885665
     -3.678679     20.639233     20.639233     41.278466
     -3.668669     22.233567     22.233567     44.467134
     -3.658659     25.461563     25.461563     50.923126
     -3.648649     30.071107     30.071107     60.142214
     -3.638639     35.359070     35.359070     70.718140
     -3.628629     40.369903     40.369903     80.739805
     -3.618619     44.181444     44.181444     88.362888
     -3.608609     46.163143     46.163143     92.326285
     -3.598599     46.110122     46.110122     92.220243
     -3.588589     44.223570     44.223570     88.447140
     -3.578579     40.979911     40.979911     81.959823
     -3.568569     36.963791     36.963791     73.927581
     -3.558559     32.723749     32.723749     65.447498
     -3.548549     28.673160     28.673160     57.346319
     -3.538539     25.037285     25.037285     50.074570
     -3.528529     21.848247     21.848247     43.696493
     -3.518519     18.993453     18.993453     37.986906
     -3.508509     16.309910     16.309910     32.619820
     -3.498498     13.691544     13.691544     27.383087
     -3.488488     11.162898     11.162898     22.325796
     -3.478478      8.886728      8.886728     17.773456
     -3.468468      7.106704      7.106704     14.213408
     -3.458458      6.055421      6.055421     12.110841
     -3.448448      5.865483      5.865483     11.730965
     -3.438438      6.511224      6.511224     13.022448
     -3.428428      7.795390      7.795390     15.590780
     -3.418418      9.387131      9.387131     18.774261
     -3.408408     10.909700     10.909700     21.819400
     -3.398398     12.060154     12.060154     24.120307
     -3.388388     12.722307     12.722307     25.444613
     -3.378378     13.024589     13.024589     26.049179
     -3.368368     13.310789     13.310789     26.621578
     -3.358358     14.030200     14.030200     28.060400
     -3.348348     15.590910     15.590910     31.181819
     -3.338338     18.230710     18.230710     36.461420
     -3.328328     21.939440     21.939440     43.878881
     -3.318318     26.435140     26.435140     52.870281
     -3.308308     31.182264     31.182264     62.364528
     -3.298298     35.451916     35.451916     70.903833
     -3.288288     38.440229     38.440229     76.880458
     -3.278278     39.450366     39.450366     78.900732
     -3.268268     38.099651     38.099651     76.199301
     -3.258258     34.468377     34.468377     68.936754
     -3.248248     29.107180     29.107180     58.214361
     -3.238238     22.880355     22.880355     45.760711
     -3.228228     16.707586     16.707586     33.415173
     -3.218218     11.317310     11.317310     22.634621
     -3.208208      7.108534      7.108534     14.217068
     -3.198198      4.151957      4.151957      8.303913
     -3.188188      2.293803      2.293803      4.587605
     -3.178178      1.295121      1.295121      2.590242
     -3.168168      0.950003      0.950003      1.900005
     -3.158158      1.156343      1.156343      2.312685
     -3.148148      1.937515      1.937515      3.875031
     -3.138138      3.422179      3.422179      6.844359
     -3.128128      5.787973      5.787973     11.575946
     -3.118118      9.175422      9.175422     18.350845
     -3.108108     13.588683     13.588683     27.177367
     -3.098098     18.816253     18.816253     37.632506
     -3.088088     24.413755     24.413755     48.827510
     -3.078078     29.777152     29.777152     59.554304
     -3.068068     34.295114     34.295114     68.590229
     -3.058058     37.521319     37.521319     75.042638
     -3.048048     39.283731     39.283731     78.567463
     -3.038038     39.673790     39.673790     79.347581
     -3.028028     38.927540     38.927540     77.855079
     -3.018018     37.280349     37.280349     74.560698
     -3.008008     34.894873     34.894873     69.789746
     -2.997998     31.909187     31.909187     63.818373
     -2.987988     28.563168     28.563168     57.126336
     -2.977978     25.300705     25.300705     50.601410
     -2.967968     22.756696     22.756696     45.513392
     -2.957958     21.609999     21.609999     43.219998
     -2.947948     22.363748     22.363748     44.727497
     -2.937938     25.152449     25.152449     50.304897
     -2.927928     29.657279     29.657279     59.314558
     -2.917918     35.159310     35.159310     70.318620
     -2.907908     40.707813     40.707813     81.415625
     -2.897898     45.348185     45.348185     90.696371
     -2.887888     48.344338     48.344338     96.688676
     -2.877878     49.337389     49.337389     98.674778
     -2.867868     48.400260     48.400260     96.800521
     -2.857858     45.973920     45.973920     91.947840
     -2.847848     42.703908     42.703908     85.407816
     -2.837838     39.229139     39.229139     78.458278
     -2.827828     35.995942     35.995942     71.991885
     -2.817818     33.165162     33.165162     66.330324
     -2.807808     30.644266     30.644266     61.288532
     -2.797798     28.221857     28.221857     56.443713
     -2.787788     25.734473     25.734473     51.468946
     -2.777778     23.181370     23.181370     46.362741
     -2.767768     20.732465     20.732465     41.464930
     -2.757758     18.634132     18.634132     37.268264
     -2.747748     17.074798     17.074798     34.149596
     -2.737738     16.093939     16.093939     32.187878
     -2.727728     15.589807     15.589807     31.179613
     -2.717718     15.418215     15.418215     30.836430
     -2.707708     15.515065     15.515065     31.030129
     -2.697698     15.957508     15.957508     31.915015
     -2.687688     16.916471     16.916471     33.832941
     -2.677678     18.524656     18.524656     37.049312
     -2.667668     20.743488     20.743488     41.486976
     -2.657658     23.319394     23.319394     46.638787
     -2.647648     25.866553     25.866553     51.733106
     -2.637638     28.032375     28.032375     56.064751
     -2.627628     29.647053     29.647053     59.294106
     -2.617618     30.768484     30.768484     61.536968
     -2.607608     31.603070     31.603070     63.206139
     -2.597598     32.362276     32.362276     64.724553
     -2.587588     33.147121     33.147121     66.294242
     -2.577578     33.917564     33.917564     67.835128
     -2.567568     34.534976     34.534976     69.069953
     -2.557558     34.822109     34.822109     69.644218
     -2.547548     34.598424     34.598424     69.196848
     -2.537538     33.697434     33.697434     67.394868
     -2.527528     32.003885     32.003885     64.007770
     -2.517518     29.529585     29.529585     59.059170
     -2.507508     26.495366     26.495366     52.990732
     -2.497497     23.353131     23.353131     46.706262
     -2.487487     20.701023     20.701023     41.402046
     -2.477477     19.106291     19.106291     38.212582
     -2.467467     18.910591     18.910591     37.821182
     -2.457457     20.110932     20.110932     40.221865
     -2.447447     22.376085     22.376085     44.752171
     -2.437437     25.193476     25.193476     50.386953
     -2.427427     28.079126     28.079126     56.158253
     -2.417417     30.752522     30.752522     61.505044
     -2.407407     33.193874     33.193874     66.387748
     -2.397397     35.557069     35.557069     71.114138
     -2.387387     37.982673     37.982673     75.965346
     -2.377377     40.407454     40.407454     80.814907
     -2.367367     42.473521     42.473521     84.947042
     -2.357357     43.596053     43.596053     87.192106
     -2.347347     43.172925     43.172925     86.345849
     -2.337337     40.848066     40.848066     81.696132
     -2.327327     36.709309     36.709309     73.418617
     -2.317317     31.328984     31.328984     62.657968
     -2.307307     25.628572     25.628572     51.257144
     -2.297297     20.627599     20.627599     41.255198
     -2.287287     17.179282     17.179282     34.358564
     -2.277277     15.784028     15.784028     31.568057
     -2.267267     16.523844     16.523844     33.047688
     -2.257257     19.109477     19.109477     38.218953
     -2.247247     23.001078     23.001078     46.002155
     -2.237237     27.554548     27.554548     55.109097
     -2.227227     32.150207     32.150207     64.300415
     -2.217217     36.272514     36.272514     72.545027
     -2.207207     39.530542     39.530542     79.061083
     -2.197197     41.636937     41.636937     83.273873
     -2.187187     42.385161     42.385161     84.770321
     -2.177177     41.662836     41.662836     83.325672
     -2.167167     39.506827     39.506827     79.013655
     -2.157157     36.161470     36.161470     72.322941
     -2.147147     32.079037     32.079037     64.158073
     -2.137137     27.825112     27.825112     55.650224
     -2.127127     23.911497     23.911497     47.822994
     -2.117117     20.634583     20.634583     41.269166
     -2.107107     18.005298     18.005298     36.010597
     -2.097097     15.807774     15.807774     31.615547
     -2.087087     13.750131     13.750131     27.500262
     -2.077077     11.622197     11.622197     23.244394
     -2.067067      9.381398      9.381398     18.762796
     -2.057057      7.139306      7.139306     14.278613
     -2.047047      5.078786      5.078786     10.157573
     -2.037037      3.359735      3.359735      6.719470
     -2.027027      2.060655      2.060655      4.121310
     -2.017017      1.170911      1.170911      2.341822
     -2.007007      0.619591      0.619591      1.239182
     -1.996997      0.316123      0.316123      0.632245
     -1.986987      0.183842      0.183842      0.367684
     -1.976977      0.180023      0.180023      0.360047
     -1.966967      0.304795      0.304795      0.609590
     -1.956957      0.603091      0.603091      1.206183
     -1.946947      1.160206      1.160206      2.320411
     -1.936937      2.087117      2.087117      4.174234
     -1.926927      3.491227      3.491227      6.982454
     -1.916917      5.433730      5.433730     10.867459
     -1.906907      7.884767      7.884767     15.769533
     -1.896897     10.695418     10.695418     21.390836
     -1.886887     13.604358     13.604358     27.208716
     -1.876877     16.284587     16.284587     32.569175
     -1.866867     18.418331     18.418331     36.836663
     -1.856857     19.776224     19.776224     39.552447
     -1.846847     20.275995     20.275995     40.551990
     -1.836837     20.002992     20.002992     40.005984
     -1.826827     19.183883     19.183883     38.367766
     -1.816817     18.114993     18.114993     36.229986
     -1.806807     17.061623     17.061623     34.123245
     -1.796797     16.163023     16.163023     32.326046
     -1.786787     15.386671     15.386671     30.773341
     -1.776777     14.560364     14.560364     29.120728
     -1.766767     13.472366     13.472366     26.944731
     -1.756757     11.990820     11.990820     23.981640
     -1.746747     10.142310     10.142310     20.284619
     -1.736737      8.115394      8.115394     16.230787
     -1.726727      6.199775      6.199775     12.399549
     -1.716717      4.703596      4.703596      9.407191
     -1.706707      3.890562      3.890562      7.781124
     -1.696697      3.951103      3.951103      7.902206
     -1.686687      4.991621      4.991621      9.983241
     -1.676677      7.015645      7.015645     14.031289
     -1.666667      9.886422      9.886422     19.772843
     -1.656657     13.289457     13.289457     26.578913
     -1.646647     16.733637     16.733637     33.467274
     -1.636637     19.623388     19.623388     39.246776
     -1.626627     21.400847     21.400847     42.801695
