# EIG2DOS: Utility for SIESTA to obtain the electronic density of states
#  E. Artacho, Apr 1999, A. Garcia, Apr 2012
#  Nick R. Papior, Feb 2017
# ------------------------------------------
# Eigenvalues calculated from a non-polarized calculation
# Eigenvalues read from siesta.EIG
# Kpoint weights read from siesta.KP
# Using smearing parameter:   0.0500
# Using 1000 points in the energy range
# Selected bands: 1 to: 2981
# Emin, Emax in file for selected band(s):    -27.2267394    218.3970390
# Nbands, Nspin, Nk   =   2981     1     1
# E_F                 =    -4.1951 eV --> (shifted to ZERO)
# Broadening          =     0.0500 eV
#
#        E            N(up)  (=)   N(down)         Ntot
     -5.000000     32.101471     32.101471     64.202942
     -4.989990     37.358371     37.358371     74.716741
     -4.979980     42.251815     42.251815     84.503629
     -4.969970     45.907203     45.907203     91.814405
     -4.959960     47.619345     47.619345     95.238689
     -4.949950     47.090402     47.090402     94.180804
     -4.939940     44.533016     44.533016     89.066032
     -4.929930     40.613807     40.613807     81.227613
     -4.919920     36.284506     36.284506     72.569012
     -4.909910     32.575743     32.575743     65.151486
     -4.899900     30.405091     30.405091     60.810183
     -4.889890     30.410618     30.410618     60.821236
     -4.879880     32.807073     32.807073     65.614146
     -4.869870     37.286391     37.286391     74.572783
     -4.859860     43.017163     43.017163     86.034326
     -4.849850     48.794547     48.794547     97.589095
     -4.839840     53.335790     53.335790    106.671580
     -4.829830     55.636151     55.636151    111.272301
     -4.819820     55.250510     55.250510    110.501020
     -4.809810     52.385784     52.385784    104.771568
     -4.799800     47.772222     47.772222     95.544444
     -4.789790     42.380645     42.380645     84.761291
     -4.779780     37.112394     37.112394     74.224788
     -4.769770     32.580963     32.580963     65.161926
     -4.759760     29.042639     29.042639     58.085278
     -4.749750     26.459184     26.459184     52.918368
     -4.739740     24.628085     24.628085     49.256169
     -4.729730     23.310167     23.310167     46.620333
     -4.719720     22.310283     22.310283     44.620567
     -4.709710     21.503169     21.503169     43.006339
     -4.699700     20.824938     20.824938     41.649875
     -4.689690     20.260434     20.260434     40.520869
     -4.679680     19.846220     19.846220     39.692440
     -4.669670     19.687344     19.687344     39.374688
     -4.659660     19.969321     19.969321     39.938641
     -4.649650     20.946010     20.946010     41.892019
     -4.639640     22.895689     22.895689     45.791379
     -4.629630     26.048144     26.048144     52.096287
     -4.619620     30.489613     30.489613     60.979226
     -4.609610     36.060184     36.060184     72.120368
     -4.599600     42.279486     42.279486     84.558973
     -4.589590     48.358894     48.358894     96.717787
     -4.579580     53.349254     53.349254    106.698508
     -4.569570     56.413725     56.413725    112.827451
     -4.559560     57.131094     57.131094    114.262187
     -4.549550     55.686158     55.686158    111.372316
     -4.539540     52.836398     52.836398    105.672796
     -4.529530     49.648276     49.648276     99.296552
     -4.519520     47.110979     47.110979     94.221959
     -4.509510     45.793327     45.793327     91.586653
     -4.499499     45.683011     45.683011     91.366021
     -4.489489     46.258161     46.258161     92.516323
     -4.479479     46.739163     46.739163     93.478327
     -4.469469     46.401101     46.401101     92.802202
     -4.459459     44.818757     44.818757     89.637514
     -4.449449     41.962851     41.962851     83.925702
     -4.439439     38.141449     38.141449     76.282898
     -4.429429     33.847280     33.847280     67.694559
     -4.419419     29.598985     29.598985     59.197970
     -4.409409     25.842153     25.842153     51.684306
     -4.399399     22.921886     22.921886     45.843772
     -4.389389     21.089566     21.089566     42.179133
     -4.379379     20.495177     20.495177     40.990355
     -4.369369     21.147969     21.147969     42.295938
     -4.359359     22.874536     22.874536     45.749072
     -4.349349     25.325251     25.325251     50.650502
     -4.339339     28.058148     28.058148     56.116297
     -4.329329     30.679186     30.679186     61.358372
     -4.319319     32.976051     32.976051     65.952101
     -4.309309     34.977769     34.977769     69.955539
     -4.299299     36.905600     36.905600     73.811201
     -4.289289     39.030109     39.030109     78.060217
     -4.279279     41.490123     41.490123     82.980247
     -4.269269     44.147979     44.147979     88.295959
     -4.259259     46.549371     46.549371     93.098741
     -4.249249     48.024956     48.024956     96.049912
     -4.239239     47.916848     47.916848     95.833696
     -4.229229     45.851093     45.851093     91.702187
     -4.219219     41.938441     41.938441     83.876883
     -4.209209     36.801396     36.801396     73.602792
     -4.199199     31.399609     31.399609     62.799218
     -4.189189     26.722461     26.722461     53.444922
     -4.179179     23.482000     23.482000     46.964000
     -4.169169     21.934854     21.934854     43.869707
     -4.159159     21.894404     21.894404     43.788807
     -4.149149     22.905032     22.905032     45.810063
     -4.139139     24.483563     24.483563     48.967125
     -4.129129     26.314130     26.314130     52.628260
     -4.119119     28.312003     28.312003     56.624007
     -4.109109     30.534791     30.534791     61.069582
     -4.099099     32.993596     32.993596     65.987192
     -4.089089     35.473184     35.473184     70.946368
     -4.079079     37.477621     37.477621     74.955242
     -4.069069     38.360017     38.360017     76.720034
     -4.059059     37.592465     37.592465     75.184929
     -4.049049     35.042728     35.042728     70.085455
     -4.039039     31.108081     31.108081     62.216161
     -4.029029     26.630262     26.630262     53.260524
     -4.019019     22.633351     22.633351     45.266702
     -4.009009     20.013354     20.013354     40.026707
     -3.998999     19.314886     19.314886     38.629772
     -3.988989     20.664620     20.664620     41.329240
     -3.978979     23.844421     23.844421     47.688842
     -3.968969     28.432574     28.432574     56.865147
     -3.958959     33.940362     33.940362     67.880724
     -3.948949     39.907333     39.907333     79.814665
     -3.938939     45.956503     45.956503     91.913005
     -3.928929     51.823445     51.823445    103.646889
     -3.918919     57.359941     57.359941    114.719882
     -3.908909     62.497150     62.497150    124.994299
     -3.898899     67.160290     67.160290    134.320579
     -3.888889     71.159509     71.159509    142.319017
     -3.878879     74.115152     74.115152    148.230304
     -3.868869     75.478408     75.478408    150.956815
     -3.858859     74.668962     74.668962    149.337924
     -3.848849     71.289631     71.289631    142.579261
     -3.838839     65.330711     65.330711    130.661423
     -3.828829     57.272172     57.272172    114.544344
     -3.818819     48.032034     48.032034     96.064068
     -3.808809     38.772181     38.772181     77.544361
     -3.798799     30.627016     30.627016     61.254032
     -3.788789     24.443415     24.443415     48.886830
     -3.778779     20.608143     20.608143     41.216286
     -3.768769     19.003397     19.003397     38.006794
     -3.758759     19.090315     19.090315     38.180630
     -3.748749     20.088190     20.088190     40.176381
     -3.738739     21.199162     21.199162     42.398324
     -3.728729     21.823309     21.823309     43.646618
     -3.718719     21.714062     21.714062     43.428124
     -3.708709     21.036093     21.036093     42.072186
     -3.698699     20.306737     20.306737     40.613473
     -3.688689     20.227666     20.227666     40.455332
     -3.678679     21.444700     21.444700     42.889399
     -3.668669     24.303569     24.303569     48.607138
     -3.658659     28.684942     28.684942     57.369885
     -3.648649     33.987773     33.987773     67.975546
     -3.638639     39.280588     39.280588     78.561176
     -3.628629     43.571211     43.571211     87.142422
     -3.618619     46.091358     46.091358     92.182716
     -3.608609     46.487350     46.487350     92.974701
     -3.598599     44.857871     44.857871     89.715743
     -3.588589     41.653491     41.653491     83.306982
     -3.578579     37.504541     37.504541     75.009083
     -3.568569     33.048561     33.048561     66.097122
     -3.558559     28.798843     28.798843     57.597686
     -3.548549     25.065477     25.065477     50.130954
     -3.538539     21.930517     21.930517     43.861034
     -3.528529     19.281374     19.281374     38.562748
     -3.518519     16.900046     16.900046     33.800092
     -3.508509     14.583443     14.583443     29.166887
     -3.498498     12.248686     12.248686     24.497372
     -3.488488      9.978907      9.978907     19.957815
     -3.478478      7.993423      7.993423     15.986847
     -3.468468      6.561931      6.561931     13.123861
     -3.458458      5.902235      5.902235     11.804470
     -3.448448      6.097855      6.097855     12.195709
     -3.438438      7.057181      7.057181     14.114362
     -3.428428      8.523977      8.523977     17.047954
     -3.418418     10.141945     10.141945     20.283890
     -3.408408     11.565341     11.565341     23.130682
     -3.398398     12.588281     12.588281     25.176563
     -3.388388     13.246711     13.246711     26.493421
     -3.378378     13.846203     13.846203     27.692407
     -3.368368     14.893468     14.893468     29.786935
     -3.358358     16.947752     16.947752     33.895504
     -3.348348     20.437181     20.437181     40.874362
     -3.338338     25.490605     25.490605     50.981210
     -3.328328     31.824767     31.824767     63.649534
     -3.318318     38.716942     38.716942     77.433885
     -3.308308     45.090141     45.090141     90.180282
     -3.298298     49.725349     49.725349     99.450699
     -3.288288     51.573630     51.573630    103.147260
     -3.278278     50.078087     50.078087    100.156173
     -3.268268     45.375150     45.375150     90.750300
     -3.258258     38.272442     38.272442     76.544883
     -3.248248     29.998381     29.998381     59.996762
     -3.238238     21.830969     21.830969     43.661938
     -3.228228     14.766640     14.766640     29.533280
     -3.218218      9.352748      9.352748     18.705496
     -3.208208      5.711032      5.711032     11.422063
     -3.198198      3.689252      3.689252      7.378505
     -3.188188      3.041332      3.041332      6.082665
     -3.178178      3.556280      3.556280      7.112560
     -3.168168      5.104447      5.104447     10.208894
     -3.158158      7.614102      7.614102     15.228204
     -3.148148     11.014271     11.014271     22.028542
     -3.138138     15.179522     15.179522     30.359044
     -3.128128     19.896937     19.896937     39.793875
     -3.118118     24.857630     24.857630     49.715261
     -3.108108     29.666929     29.666929     59.333857
     -3.098098     33.872597     33.872597     67.745194
     -3.088088     37.019589     37.019589     74.039179
     -3.078078     38.736311     38.736311     77.472621
     -3.068068     38.834702     38.834702     77.669404
     -3.058058     37.379861     37.379861     74.759723
     -3.048048     34.682065     34.682065     69.364130
     -3.038038     31.198932     31.198932     62.397865
     -3.028028     27.389742     27.389742     54.779484
     -3.018018     23.597603     23.597603     47.195206
     -3.008008     20.019750     20.019750     40.039501
     -2.997998     16.770605     16.770605     33.541210
     -2.987988     13.986192     13.986192     27.972384
     -2.977978     11.899474     11.899474     23.798948
     -2.967968     10.840731     10.840731     21.681461
     -2.957958     11.161255     11.161255     22.322509
     -2.947948     13.112843     13.112843     26.225685
     -2.937938     16.727594     16.727594     33.455189
     -2.927928     21.738837     21.738837     43.477674
     -2.917918     27.574473     27.574473     55.148947
     -2.907908     33.439804     33.439804     66.879608
     -2.897898     38.482912     38.482912     76.965823
     -2.887888     42.002818     42.002818     84.005635
     -2.877878     43.632068     43.632068     87.264136
     -2.867868     43.420938     43.420938     86.841875
     -2.857858     41.781602     41.781602     83.563204
     -2.847848     39.309294     39.309294     78.618589
     -2.837838     36.555847     36.555847     73.111694
     -2.827828     33.856125     33.856125     67.712250
     -2.817818     31.281806     31.281806     62.563611
     -2.807808     28.730753     28.730753     57.461507
     -2.797798     26.089817     26.089817     52.179634
     -2.787788     23.374241     23.374241     46.748482
     -2.777778     20.767500     20.767500     41.535000
     -2.767768     18.548152     18.548152     37.096305
     -2.757758     16.957530     16.957530     33.915059
     -2.747748     16.093993     16.093993     32.187985
     -2.737738     15.897474     15.897474     31.794949
     -2.727728     16.226150     16.226150     32.452301
     -2.717718     16.964884     16.964884     33.929768
     -2.707708     18.084169     18.084169     36.168338
     -2.697698     19.605034     19.605034     39.210067
     -2.687688     21.496723     21.496723     42.993446
     -2.677678     23.589793     23.589793     47.179585
     -2.667668     25.584238     25.584238     51.168475
     -2.657658     27.167676     27.167676     54.335353
     -2.647648     28.176467     28.176467     56.352934
     -2.637638     28.693740     28.693740     57.387481
     -2.627628     29.014195     29.014195     58.028390
     -2.617618     29.491822     29.491822     58.983645
     -2.607608     30.360780     30.360780     60.721561
     -2.597598     31.628837     31.628837     63.257675
     -2.587588     33.085801     33.085801     66.171602
     -2.577578     34.394800     34.394800     68.789601
     -2.567568     35.198643     35.198643     70.397287
     -2.557558     35.194985     35.194985     70.389969
     -2.547548     34.181854     34.181854     68.363708
     -2.537538     32.101365     32.101365     64.202729
     -2.527528     29.092969     29.092969     58.185938
     -2.517518     25.529826     25.529826     51.059652
     -2.507508     21.992791     21.992791     43.985583
     -2.497497     19.157631     19.157631     38.315263
     -2.487487     17.618441     17.618441     35.236882
     -2.477477     17.710812     17.710812     35.421623
     -2.467467     19.407049     19.407049     38.814099
     -2.457457     22.329919     22.329919     44.659839
     -2.447447     25.884943     25.884943     51.769886
     -2.437437     29.463325     29.463325     58.926650
     -2.427427     32.635867     32.635867     65.271733
     -2.417417     35.256626     35.256626     70.513252
     -2.407407     37.428977     37.428977     74.857954
     -2.397397     39.347081     39.347081     78.694162
     -2.387387     41.088271     41.088271     82.176543
     -2.377377     42.465140     42.465140     84.930279
     -2.367367     43.026901     43.026901     86.053802
     -2.357357     42.228692     42.228692     84.457384
     -2.347347     39.696840     39.696840     79.393680
     -2.337337     35.459324     35.459324     70.918649
     -2.327327     30.023136     30.023136     60.046271
     -2.317317     24.260095     24.260095     48.520191
     -2.307307     19.160477     19.160477     38.320953
     -2.297297     15.569088     15.569088     31.138177
     -2.287287     14.004634     14.004634     28.009268
     -2.277277     14.602304     14.602304     29.204609
     -2.267267     17.158284     17.158284     34.316567
     -2.257257     21.226067     21.226067     42.452135
     -2.247247     26.219915     26.219915     52.439830
     -2.237237     31.501708     31.501708     63.003415
     -2.227227     36.446110     36.446110     72.892220
     -2.217217     40.489185     40.489185     80.978371
     -2.207207     43.169768     43.169768     86.339536
     -2.197197     44.173015     44.173015     88.346029
     -2.187187     43.379634     43.379634     86.759269
     -2.177177     40.910311     40.910311     81.820621
     -2.167167     37.138065     37.138065     74.276130
     -2.157157     32.636295     32.636295     65.272591
     -2.147147     28.050600     28.050600     56.101199
     -2.137137     23.924972     23.924972     47.849944
     -2.127127     20.551737     20.551737     41.103473
     -2.117117     17.917523     17.917523     35.835046
     -2.107107     15.773950     15.773950     31.547900
     -2.097097     13.795713     13.795713     27.591427
     -2.087087     11.743741     11.743741     23.487482
     -2.077077      9.556303      9.556303     19.112605
     -2.067067      7.339739      7.339739     14.679477
     -2.057057      5.287546      5.287546     10.575092
     -2.047047      3.586310      3.586310      7.172619
     -2.037037      2.357732      2.357732      4.715465
     -2.027027      1.652619      1.652619      3.305238
     -2.017017      1.480057      1.480057      2.960115
     -2.007007      1.840189      1.840189      3.680377
     -1.996997      2.734339      2.734339      5.468678
     -1.986987      4.144668      4.144668      8.289337
     -1.976977      5.996932      5.996932     11.993863
     -1.966967      8.134612      8.134612     16.269223
     -1.956957     10.331909     10.331909     20.663818
     -1.946947     12.353322     12.353322     24.706644
     -1.936937     14.036730     14.036730     28.073460
     -1.926927     15.354396     15.354396     30.708792
     -1.916917     16.411189     16.411189     32.822379
     -1.906907     17.373678     17.373678     34.747357
     -1.896897     18.366345     18.366345     36.732690
     -1.886887     19.392340     19.392340     38.784680
     -1.876877     20.321303     20.321303     40.642607
     -1.866867     20.947923     20.947923     41.895845
     -1.856857     21.088823     21.088823     42.177645
     -1.846847     20.671071     20.671071     41.342141
     -1.836837     19.773571     19.773571     39.547141
     -1.826827     18.603046     18.603046     37.206093
     -1.816817     17.411490     17.411490     34.822980
     -1.806807     16.387460     16.387460     32.774921
     -1.796797     15.570960     15.570960     31.141920
     -1.786787     14.837293     14.837293     29.674587
     -1.776777     13.963458     13.963458     27.926917
     -1.766767     12.745370     12.745370     25.490740
     -1.756757     11.104507     11.104507     22.209013
     -1.746747      9.130034      9.130034     18.260069
     -1.736737      7.042467      7.042467     14.084934
     -1.726727      5.109363      5.109363     10.218727
     -1.716717      3.563407      3.563407      7.126814
     -1.706707      2.559594      2.559594      5.119188
     -1.696697      2.175863      2.175863      4.351725
     -1.686687      2.433972      2.433972      4.867944
     -1.676677      3.310743      3.310743      6.621486
     -1.666667      4.724629      4.724629      9.449258
     -1.656657      6.507654      6.507654     13.015308
     -1.646647      8.391994      8.391994     16.783989
     -1.636637     10.040898     10.040898     20.081796
     -1.626627     11.132298     11.132298     22.264597
