# EIG2DOS: Utility for SIESTA to obtain the electronic density of states
#  E. Artacho, Apr 1999, A. Garcia, Apr 2012
#  Nick R. Papior, Feb 2017
# ------------------------------------------
# Eigenvalues calculated from a non-polarized calculation
# Eigenvalues read from siesta.EIG
# Kpoint weights read from siesta.KP
# Using smearing parameter:   0.0500
# Using 1000 points in the energy range
# Selected bands: 1 to: 2981
# Emin, Emax in file for selected band(s):    -27.0648397    218.3370330
# Nbands, Nspin, Nk   =   2981     1     1
# E_F                 =    -4.2697 eV --> (shifted to ZERO)
# Broadening          =     0.0500 eV
#
#        E            N(up)  (=)   N(down)         Ntot
     -5.000000     36.528866     36.528866     73.057731
     -4.989990     39.265753     39.265753     78.531507
     -4.979980     41.766270     41.766270     83.532540
     -4.969970     43.491221     43.491221     86.982442
     -4.959960     44.014131     44.014131     88.028263
     -4.949950     43.152046     43.152046     86.304093
     -4.939940     41.020213     41.020213     82.040425
     -4.929930     38.011490     38.011490     76.022979
     -4.919920     34.728392     34.728392     69.456784
     -4.909910     31.896405     31.896405     63.792811
     -4.899900     30.264962     30.264962     60.529925
     -4.889890     30.479401     30.479401     60.958801
     -4.879880     32.911303     32.911303     65.822606
     -4.869870     37.475802     37.475802     74.951603
     -4.859860     43.517898     43.517898     87.035797
     -4.849850     49.866936     49.866936     99.733872
     -4.839840     55.104316     55.104316    110.208632
     -4.829830     57.979761     57.979761    115.959521
     -4.819820     57.811887     57.811887    115.623773
     -4.809810     54.692383     54.692383    109.384766
     -4.799800     49.402244     49.402244     98.804487
     -4.789790     43.092459     43.092459     86.184917
     -4.779780     36.890094     36.890094     73.780189
     -4.769770     31.600509     31.600509     63.201018
     -4.759760     27.595271     27.595271     55.190543
     -4.749750     24.868360     24.868360     49.736720
     -4.739740     23.177553     23.177553     46.355107
     -4.729730     22.186079     22.186079     44.372158
     -4.719720     21.557990     21.557990     43.115981
     -4.709710     21.002621     21.002621     42.005241
     -4.699700     20.288368     20.288368     40.576737
     -4.689690     19.252512     19.252512     38.505025
     -4.679680     17.826376     17.826376     35.652751
     -4.669670     16.077966     16.077966     32.155931
     -4.659660     14.254085     14.254085     28.508169
     -4.649650     12.791725     12.791725     25.583451
     -4.639640     12.271958     12.271958     24.543916
     -4.629630     13.306209     13.306209     26.612418
     -4.619620     16.367100     16.367100     32.734200
     -4.609610     21.599429     21.599429     43.198857
     -4.599600     28.669980     28.669980     57.339959
     -4.589590     36.729084     36.729084     73.458167
     -4.579580     44.542944     44.542944     89.085887
     -4.569570     50.799425     50.799425    101.598849
     -4.559560     54.505084     54.505084    109.010169
     -4.549550     55.323557     55.323557    110.647114
     -4.539540     53.704888     53.704888    107.409777
     -4.529530     50.735925     50.735925    101.471850
     -4.519520     47.764863     47.764863     95.529725
     -4.509510     45.951206     45.951206     91.902412
     -4.499499     45.914356     45.914356     91.828712
     -4.489489     47.595625     47.595625     95.191250
     -4.479479     50.349642     50.349642    100.699283
     -4.469469     53.195616     53.195616    106.391232
     -4.459459     55.121740     55.121740    110.243480
     -4.449449     55.348285     55.348285    110.696569
     -4.439439     53.494010     53.494010    106.988020
     -4.429429     49.630544     49.630544     99.261088
     -4.419419     44.236861     44.236861     88.473722
     -4.409409     38.079889     38.079889     76.159779
     -4.399399     32.051641     32.051641     64.103283
     -4.389389     26.992525     26.992525     53.985050
     -4.379379     23.529082     23.529082     47.058165
     -4.369369     21.955231     21.955231     43.910461
     -4.359359     22.186421     22.186421     44.372843
     -4.349349     23.807348     23.807348     47.614695
     -4.339339     26.209437     26.209437     52.418874
     -4.329329     28.780269     28.780269     57.560538
     -4.319319     31.081534     31.081534     62.163069
     -4.309309     32.953101     32.953101     65.906202
     -4.299299     34.510091     34.510091     69.020181
     -4.289289     36.041175     36.041175     72.082350
     -4.279279     37.848081     37.848081     75.696162
     -4.269269     40.079284     40.079284     80.158568
     -4.259259     42.610589     42.610589     85.221178
     -4.249249     45.018841     45.018841     90.037683
     -4.239239     46.677726     46.677726     93.355452
     -4.229229     46.965410     46.965410     93.930820
     -4.219219     45.516793     45.516793     91.033585
     -4.209209     42.409433     42.409433     84.818866
     -4.199199     38.182149     38.182149     76.364299
     -4.189189     33.660240     33.660240     67.320480
     -4.179179     29.663319     29.663319     59.326637
     -4.169169     26.735832     26.735832     53.471663
     -4.159159     25.024100     25.024100     50.048200
     -4.149149     24.339902     24.339902     48.679803
     -4.139139     24.354035     24.354035     48.708069
     -4.129129     24.807677     24.807677     49.615355
     -4.119119     25.634458     25.634458     51.268916
     -4.109109     26.938051     26.938051     53.876101
     -4.099099     28.841659     28.841659     57.683318
     -4.089089     31.290731     31.290731     62.581462
     -4.079079     33.923333     33.923333     67.846667
     -4.069069     36.101568     36.101568     72.203135
     -4.059059     37.119274     37.119274     74.238548
     -4.049049     36.499675     36.499675     72.999350
     -4.039039     34.232666     34.232666     68.465331
     -4.029029     30.823213     30.823213     61.646426
     -4.019019     27.123420     27.123420     54.246839
     -4.009009     24.038339     24.038339     48.076678
     -3.998999     22.254215     22.254215     44.508429
     -3.988989     22.104596     22.104596     44.209192
     -3.978979     23.595720     23.595720     47.191440
     -3.968969     26.525297     26.525297     53.050593
     -3.958959     30.602050     30.602050     61.204100
     -3.948949     35.511404     35.511404     71.022807
     -3.938939     40.934334     40.934334     81.868668
     -3.928929     46.560503     46.560503     93.121007
     -3.918919     52.121826     52.121826    104.243652
     -3.908909     57.430039     57.430039    114.860079
     -3.898899     62.374620     62.374620    124.749241
     -3.888889     66.853487     66.853487    133.706974
     -3.878879     70.659301     70.659301    141.318602
     -3.868869     73.391375     73.391375    146.782750
     -3.858859     74.469939     74.469939    148.939879
     -3.848849     73.284746     73.284746    146.569492
     -3.838839     69.435970     69.435970    138.871940
     -3.828829     62.964486     62.964486    125.928972
     -3.818819     54.458269     54.458269    108.916538
     -3.808809     44.971265     44.971265     89.942531
     -3.798799     35.774775     35.774775     71.549550
     -3.788789     28.033636     28.033636     56.067271
     -3.778779     22.523991     22.523991     45.047983
     -3.768769     19.480762     19.480762     38.961523
     -3.758759     18.605180     18.605180     37.210360
     -3.748749     19.208435     19.208435     38.416871
     -3.738739     20.436256     20.436256     40.872512
     -3.728729     21.511756     21.511756     43.023511
     -3.718719     21.940177     21.940177     43.880354
     -3.708709     21.630811     21.630811     43.261621
     -3.698699     20.906473     20.906473     41.812947
     -3.688689     20.392067     20.392067     40.784135
     -3.678679     20.802827     20.802827     41.605653
     -3.668669     22.686412     22.686412     45.372825
     -3.658659     26.199766     26.199766     52.399532
     -3.648649     31.004785     31.004785     62.009569
     -3.638639     36.333500     36.333500     72.667000
     -3.628629     41.208080     41.208080     82.416160
     -3.618619     44.731980     44.731980     89.463960
     -3.608609     46.335958     46.335958     92.671917
     -3.598599     45.889595     45.889595     91.779189
     -3.588589     43.659905     43.659905     87.319810
     -3.578579     40.167416     40.167416     80.334832
     -3.568569     36.015737     36.015737     72.031474
     -3.558559     31.749746     31.749746     63.499491
     -3.548549     27.761379     27.761379     55.522758
     -3.538539     24.243130     24.243130     48.486259
     -3.528529     21.191585     21.191585     42.383169
     -3.518519     18.465395     18.465395     36.930790
     -3.508509     15.886635     15.886635     31.773270
     -3.498498     13.349342     13.349342     26.698683
     -3.488488     10.888290     10.888290     21.776579
     -3.478478      8.678618      8.678618     17.357237
     -3.468468      6.971691      6.971691     13.943382
     -3.458458      5.999925      5.999925     11.999849
     -3.448448      5.888459      5.888459     11.776918
     -3.438438      6.599952      6.599952     13.199904
     -3.428428      7.925665      7.925665     15.851330
     -3.418418      9.528350      9.528350     19.056699
     -3.408408     11.034137     11.034137     22.068274
     -3.398398     12.153887     12.153887     24.307774
     -3.388388     12.793710     12.793710     25.587420
     -3.378378     13.106530     13.106530     26.213060
     -3.368368     13.455111     13.455111     26.910223
     -3.358358     14.296198     14.296198     28.592395
     -3.348348     16.031028     16.031028     32.062057
     -3.338338     18.875762     18.875762     37.751524
     -3.328328     22.783964     22.783964     45.567928
     -3.318318     27.424228     27.424228     54.848456
     -3.308308     32.205099     32.205099     64.410199
     -3.298298     36.350870     36.350870     72.701740
     -3.288288     39.041932     39.041932     78.083864
     -3.278278     39.614479     39.614479     79.228958
     -3.268268     37.767595     37.767595     75.535189
     -3.258258     33.688597     33.688597     67.377195
     -3.248248     28.022279     28.022279     56.044559
     -3.238238     21.680652     21.680652     43.361304
     -3.228228     15.572783     15.572783     31.145566
     -3.218218     10.371827     10.371827     20.743653
     -3.208208      6.405668      6.405668     12.811336
     -3.198198      3.686008      3.686008      7.372015
     -3.188188      2.028201      2.028201      4.056401
     -3.178178      1.193145      1.193145      2.386290
     -3.168168      1.000239      1.000239      2.000478
     -3.158158      1.391618      1.391618      2.783235
     -3.148148      2.449124      2.449124      4.898249
     -3.138138      4.369620      4.369620      8.739241
     -3.128128      7.399739      7.399739     14.799478
     -3.118118     11.731593     11.731593     23.463186
     -3.108108     17.374522     17.374522     34.749045
     -3.098098     24.041177     24.041177     48.082355
     -3.088088     31.103746     31.103746     62.207492
     -3.078078     37.668727     37.668727     75.337455
     -3.068068     42.777005     42.777005     85.554010
     -3.058058     45.673172     45.673172     91.346345
     -3.048048     46.038959     46.038959     92.077919
     -3.038038     44.086722     44.086722     88.173445
     -3.028028     40.469697     40.469697     80.939393
     -3.018018     36.054314     36.054314     72.108628
     -3.008008     31.661916     31.661916     63.323831
     -2.997998     27.886107     27.886107     55.772214
     -2.987988     25.036561     25.036561     50.073122
     -2.977978     23.193416     23.193416     46.386833
     -2.967968     22.317354     22.317354     44.634709
     -2.957958     22.356592     22.356592     44.713184
     -2.947948     23.307064     23.307064     46.614127
     -2.937938     25.202217     25.202217     50.404434
     -2.927928     28.035008     28.035008     56.070016
     -2.917918     31.648743     31.648743     63.297486
     -2.907908     35.661586     35.661586     71.323171
     -2.897898     39.487301     39.487301     78.974602
     -2.887888     42.470982     42.470982     84.941964
     -2.877878     44.092768     44.092768     88.185536
     -2.867868     44.145455     44.145455     88.290911
     -2.857858     42.795905     42.795905     85.591810
     -2.847848     40.496080     40.496080     80.992160
     -2.837838     37.785925     37.785925     75.571850
     -2.827828     35.084262     35.084262     70.168524
     -2.817818     32.566332     32.566332     65.132665
     -2.807808     30.177770     30.177770     60.355540
     -2.797798     27.762084     27.762084     55.524167
     -2.787788     25.221555     25.221555     50.443109
     -2.777778     22.619812     22.619812     45.239624
     -2.767768     20.173250     20.173250     40.346500
     -2.757758     18.145259     18.145259     36.290518
     -2.747748     16.713694     16.713694     33.427388
     -2.737738     15.895387     15.895387     31.790775
     -2.727728     15.573476     15.573476     31.146952
     -2.717718     15.606351     15.606351     31.212703
     -2.707708     15.942676     15.942676     31.885353
     -2.697698     16.661002     16.661002     33.322005
     -2.687688     17.901437     17.901437     35.802873
     -2.677678     19.730662     19.730662     39.461324
     -2.667668     22.031604     22.031604     44.063209
     -2.657658     24.499188     24.499188     48.998376
     -2.647648     26.756780     26.756780     53.513559
     -2.637638     28.527152     28.527152     57.054303
     -2.627628     29.752882     29.752882     59.505765
     -2.617618     30.593071     30.593071     61.186142
     -2.607608     31.304547     31.304547     62.609093
     -2.597598     32.087849     32.087849     64.175698
     -2.587588     32.989685     32.989685     65.979370
     -2.577578     33.901009     33.901009     67.802018
     -2.567568     34.620373     34.620373     69.240746
     -2.557558     34.922231     34.922231     69.844462
     -2.547548     34.596609     34.596609     69.193218
     -2.537538     33.475407     33.475407     66.950813
     -2.527528     31.480315     31.480315     62.960630
     -2.517518     28.698682     28.698682     57.397365
     -2.507508     25.445720     25.445720     50.891440
     -2.497497     22.252103     22.252103     44.504206
     -2.487487     19.747500     19.747500     39.495000
     -2.477477     18.471956     18.471956     36.943913
     -2.467467     18.695203     18.695203     37.390407
     -2.457457     20.328095     20.328095     40.656190
     -2.447447     22.969811     22.969811     45.939622
     -2.437437     26.072243     26.072243     52.144485
     -2.427427     29.149075     29.149075     58.298151
     -2.417417     31.935473     31.935473     63.870947
     -2.407407     34.425373     34.425373     68.850746
     -2.397397     36.769832     36.769832     73.539665
     -2.387387     39.087316     39.087316     78.174633
     -2.377377     41.283481     41.283481     82.566961
     -2.367367     42.979655     42.979655     85.959311
     -2.357357     43.601423     43.601423     87.202846
     -2.347347     42.600963     42.600963     85.201926
     -2.337337     39.716306     39.716306     79.432613
     -2.327327     35.145566     35.145566     70.291132
     -2.317317     29.551814     29.551814     59.103627
     -2.307307     23.895722     23.895722     47.791444
     -2.297297     19.171905     19.171905     38.343810
     -2.287287     16.157316     16.157316     32.314633
     -2.277277     15.255392     15.255392     30.510783
     -2.267267     16.463430     16.463430     32.926860
     -2.257257     19.440520     19.440520     38.881040
     -2.247247     23.630127     23.630127     47.260253
     -2.237237     28.392348     28.392348     56.784696
     -2.227227     33.112403     33.112403     66.224805
     -2.217217     37.266338     37.266338     74.532675
     -2.207207     40.442360     40.442360     80.884719
     -2.197197     42.335735     42.335735     84.671470
     -2.187187     42.747777     42.747777     85.495553
     -2.177177     41.612556     41.612556     83.225112
     -2.167167     39.046242     39.046242     78.092483
     -2.157157     35.380140     35.380140     70.760280
     -2.147147     31.127777     31.127777     62.255553
     -2.137137     26.865755     26.865755     53.731510
     -2.127127     23.064296     23.064296     46.128592
     -2.117117     19.947014     19.947014     39.894028
     -2.107107     17.454664     17.454664     34.909329
     -2.097097     15.332267     15.332267     30.664534
     -2.087087     13.289417     13.289417     26.578834
     -2.077077     11.146721     11.146721     22.293441
     -2.067067      8.899227      8.899227     17.798454
     -2.057057      6.683118      6.683118     13.366237
     -2.047047      4.684855      4.684855      9.369710
     -2.037037      3.051262      3.051262      6.102523
     -2.027027      1.841696      1.841696      3.683392
     -2.017017      1.029886      1.029886      2.059772
     -2.007007      0.537317      0.537317      1.074635
     -1.996997      0.273440      0.273440      0.546879
     -1.986987      0.166328      0.166328      0.332656
     -1.976977      0.179774      0.179774      0.359548
     -1.966967      0.320390      0.320390      0.640780
     -1.956957      0.638760      0.638760      1.277519
     -1.946947      1.224487      1.224487      2.448974
     -1.936937      2.190742      2.190742      4.381484
     -1.926927      3.643909      3.643909      7.287819
     -1.916917      5.640145      5.640145     11.280289
     -1.906907      8.140752      8.140752     16.281504
     -1.896897     10.985844     10.985844     21.971688
     -1.886887     13.903771     13.903771     27.807543
     -1.876877     16.560835     16.560835     33.121669
     -1.866867     18.638481     18.638481     37.276962
     -1.856857     19.913597     19.913597     39.827195
     -1.846847     20.316825     20.316825     40.633651
     -1.836837     19.950855     19.950855     39.901710
     -1.826827     19.060021     19.060021     38.120042
     -1.816817     17.953910     17.953910     35.907821
     -1.806807     16.904352     16.904352     33.808705
     -1.796797     16.053871     16.053871     32.107743
     -1.786787     15.380348     15.380348     30.760696
     -1.776777     14.743001     14.743001     29.486002
     -1.766767     13.992079     13.992079     27.984158
     -1.756757     13.083799     13.083799     26.167597
     -1.746747     12.133065     12.133065     24.266131
     -1.736737     11.369740     11.369740     22.739480
     -1.726727     11.020713     11.020713     22.041427
     -1.716717     11.184598     11.184598     22.369196
     -1.706707     11.771204     11.771204     23.542409
     -1.696697     12.541168     12.541168     25.082336
     -1.686687     13.223607     13.223607     26.447215
     -1.676677     13.644400     13.644400     27.288800
     -1.666667     13.791239     13.791239     27.582478
     -1.656657     13.779408     13.779408     27.558816
     -1.646647     13.742908     13.742908     27.485815
     -1.636637     13.722065     13.722065     27.444131
     -1.626627     13.620884     13.620884     27.241768
