# EIG2DOS: Utility for SIESTA to obtain the electronic density of states
#  E. Artacho, Apr 1999, A. Garcia, Apr 2012
#  Nick R. Papior, Feb 2017
# ------------------------------------------
# Eigenvalues calculated from a non-polarized calculation
# Eigenvalues read from siesta.EIG
# Kpoint weights read from siesta.KP
# Using smearing parameter:   0.0500
# Using 1000 points in the energy range
# Selected bands: 1 to: 2981
# Emin, Emax in file for selected band(s):    -27.0542416    218.3202800
# Nbands, Nspin, Nk   =   2981     1     1
# E_F                 =    -4.2907 eV --> (shifted to ZERO)
# Broadening          =     0.0500 eV
#
#        E            N(up)  (=)   N(down)         Ntot
     -5.000000     41.680281     41.680281     83.360562
     -4.989990     43.332077     43.332077     86.664154
     -4.979980     44.512197     44.512197     89.024395
     -4.969970     45.052535     45.052535     90.105070
     -4.959960     44.745890     44.745890     89.491781
     -4.949950     43.456798     43.456798     86.913595
     -4.939940     41.218468     41.218468     82.436936
     -4.929930     38.279966     38.279966     76.559932
     -4.919920     35.099128     35.099128     70.198256
     -4.909910     32.294539     32.294539     64.589078
     -4.899900     30.563960     30.563960     61.127919
     -4.889890     30.560128     30.560128     61.120257
     -4.879880     32.715347     32.715347     65.430694
     -4.869870     37.040978     37.040978     74.081956
     -4.859860     42.981378     42.981378     85.962756
     -4.849850     49.427840     49.427840     98.855680
     -4.839840     54.954838     54.954838    109.909677
     -4.829830     58.232483     58.232483    116.464966
     -4.819820     58.456792     58.456792    116.913584
     -4.809810     55.603510     55.603510    111.207020
     -4.799800     50.388466     50.388466    100.776931
     -4.789790     43.965970     43.965970     87.931940
     -4.779780     37.522323     37.522323     75.044645
     -4.769770     31.947707     31.947707     63.895413
     -4.759760     27.693594     27.693594     55.387188
     -4.749750     24.809220     24.809220     49.618440
     -4.739740     23.075290     23.075290     46.150579
     -4.729730     22.146369     22.146369     44.292738
     -4.719720     21.652703     21.652703     43.305406
     -4.709710     21.255991     21.255991     42.511982
     -4.699700     20.677491     20.677491     41.354981
     -4.689690     19.720329     19.720329     39.440658
     -4.679680     18.299808     18.299808     36.599615
     -4.669670     16.481831     16.481831     32.963662
     -4.659660     14.515005     14.515005     29.030010
     -4.649650     12.833381     12.833381     25.666762
     -4.639640     12.009738     12.009738     24.019476
     -4.629630     12.652013     12.652013     25.304026
     -4.619620     15.251982     15.251982     30.503965
     -4.609610     20.012701     20.012701     40.025403
     -4.599600     26.700698     26.700698     53.401396
     -4.589590     34.585622     34.585622     69.171244
     -4.579580     42.527212     42.527212     85.054424
     -4.569570     49.229200     49.229200     98.458401
     -4.559560     53.605668     53.605668    107.211336
     -4.549550     55.132711     55.132711    110.265422
     -4.539540     54.036037     54.036037    108.072074
     -4.529530     51.219689     51.219689    102.439379
     -4.519520     47.952148     47.952148     95.904297
     -4.509510     45.435463     45.435463     90.870926
     -4.499499     44.431480     44.431480     88.862960
     -4.489489     45.082641     45.082641     90.165282
     -4.479479     46.967161     46.967161     93.934321
     -4.469469     49.324675     49.324675     98.649350
     -4.459459     51.331432     51.331432    102.662864
     -4.449449     52.315508     52.315508    104.631017
     -4.439439     51.863899     51.863899    103.727797
     -4.429429     49.840645     49.840645     99.681290
     -4.419419     46.367545     46.367545     92.735090
     -4.409409     41.803589     41.803589     83.607179
     -4.399399     36.717615     36.717615     73.435230
     -4.389389     31.819566     31.819566     63.639131
     -4.379379     27.826418     27.826418     55.652836
     -4.369369     25.283876     25.283876     50.567751
     -4.359359     24.410367     24.410367     48.820734
     -4.349349     25.039016     25.039016     50.078032
     -4.339339     26.694641     26.694641     53.389281
     -4.329329     28.778589     28.778589     57.557178
     -4.319319     30.783175     30.783175     61.566350
     -4.309309     32.448224     32.448224     64.896449
     -4.299299     33.805222     33.805222     67.610445
     -4.289289     35.105650     35.105650     70.211300
     -4.279279     36.670763     36.670763     73.341525
     -4.269269     38.717449     38.717449     77.434898
     -4.259259     41.215341     41.215341     82.430681
     -4.249249     43.824932     43.824932     87.649865
     -4.239239     45.953734     45.953734     91.907468
     -4.229229     46.934950     46.934950     93.869900
     -4.219219     46.278147     46.278147     92.556295
     -4.209209     43.888669     43.888669     87.777337
     -4.199199     40.144363     40.144363     80.288727
     -4.189189     35.777422     35.777422     71.554844
     -4.179179     31.610078     31.610078     63.220156
     -4.169169     28.272594     28.272594     56.545189
     -4.159159     26.037202     26.037202     52.074404
     -4.149149     24.831217     24.831217     49.662433
     -4.139139     24.395142     24.395142     48.790283
     -4.129129     24.485363     24.485363     48.970725
     -4.119119     25.013716     25.013716     50.027431
     -4.109109     26.058397     26.058397     52.116793
     -4.099099     27.746009     27.746009     55.492018
     -4.089089     30.068203     30.068203     60.136405
     -4.079079     32.736272     32.736272     65.472544
     -4.069069     35.171470     35.171470     70.342940
     -4.059059     36.667677     36.667677     73.335355
     -4.049049     36.667892     36.667892     73.335784
     -4.039039     35.020422     35.020422     70.040844
     -4.029029     32.078458     32.078458     64.156916
     -4.019019     28.587975     28.587975     57.175951
     -4.009009     25.425100     25.425100     50.850201
     -3.998999     23.319863     23.319863     46.639726
     -3.988989     22.692097     22.692097     45.384194
     -3.978979     23.642243     23.642243     47.284486
     -3.968969     26.047548     26.047548     52.095095
     -3.958959     29.673700     29.673700     59.347400
     -3.948949     34.239886     34.239886     68.479771
     -3.938939     39.436841     39.436841     78.873682
     -3.928929     44.938982     44.938982     89.877964
     -3.918919     50.443339     50.443339    100.886678
     -3.908909     55.724389     55.724389    111.448778
     -3.898899     60.657754     60.657754    121.315508
     -3.888889     65.171436     65.171436    130.342873
     -3.878879     69.130639     69.130639    138.261279
     -3.868869     72.218644     72.218644    144.437288
     -3.858859     73.900897     73.900897    147.801794
     -3.848849     73.530186     73.530186    147.060372
     -3.838839     70.577993     70.577993    141.155985
     -3.828829     64.899770     64.899770    129.799541
     -3.818819     56.906567     56.906567    113.813134
     -3.808809     47.547851     47.547851     95.095703
     -3.798799     38.095973     38.095973     76.191946
     -3.788789     29.813479     29.813479     59.626957
     -3.778779     23.630565     23.630565     47.261130
     -3.768769     19.942456     19.942456     39.884912
     -3.758759     18.575930     18.575930     37.151860
     -3.748749     18.909617     18.909617     37.819234
     -3.738739     20.092522     20.092522     40.185043
     -3.728729     21.294258     21.294258     42.588516
     -3.718719     21.927202     21.927202     43.854404
     -3.708709     21.793182     21.793182     43.586363
     -3.698699     21.121586     21.121586     42.243172
     -3.688689     20.484884     20.484884     40.969767
     -3.678679     20.604833     20.604833     41.209666
     -3.668669     22.096347     22.096347     44.192694
     -3.658659     25.226178     25.226178     50.452357
     -3.648649     29.773751     29.773751     59.547503
     -3.638639     35.056427     35.056427     70.112854
     -3.628629     40.120794     40.120794     80.241588
     -3.618619     44.028993     44.028993     88.057986
     -3.608609     46.124853     46.124853     92.249706
     -3.598599     46.178731     46.178731     92.357463
     -3.588589     44.375776     44.375776     88.751553
     -3.578579     41.186934     41.186934     82.373867
     -3.568569     37.198915     37.198915     74.397829
     -3.558559     32.965754     32.965754     65.931507
     -3.548549     28.907365     28.907365     57.814730
     -3.538539     25.255967     25.255967     50.511934
     -3.528529     22.050336     22.050336     44.100672
     -3.518519     19.182323     19.182323     38.364645
     -3.508509     16.488947     16.488947     32.977895
     -3.498498     13.859132     13.859132     27.718264
     -3.488488     11.309414     11.309414     22.618828
     -3.478478      8.995312      8.995312     17.990624
     -3.468468      7.157731      7.157731     14.315463
     -3.458458      6.033194      6.033194     12.066388
     -3.448448      5.765217      5.765217     11.530434
     -3.438438      6.344321      6.344321     12.688641
     -3.428428      7.590858      7.590858     15.181716
     -3.418418      9.187224      9.187224     18.374449
     -3.408408     10.759374     10.759374     21.518747
     -3.398398     11.992802     11.992802     23.985605
     -3.388388     12.746918     12.746918     25.493837
     -3.378378     13.119723     13.119723     26.239447
     -3.368368     13.428093     13.428093     26.856187
     -3.358358     14.106137     14.106137     28.212273
     -3.348348     15.562732     15.562732     31.125465
     -3.338338     18.052779     18.052779     36.105558
     -3.328328     21.597378     21.597378     43.194756
     -3.318318     25.955691     25.955691     51.911382
     -3.308308     30.635357     30.635357     61.270713
     -3.298298     34.940550     34.940550     69.881101
     -3.288288     38.076584     38.076584     76.153169
     -3.278278     39.323372     39.323372     78.646744
     -3.268268     38.246101     38.246101     76.492203
     -3.258258     34.860837     34.860837     69.721673
     -3.248248     29.664921     29.664921     59.329842
     -3.238238     23.498195     23.498195     46.996390
     -3.228228     17.289050     17.289050     34.578100
     -3.218218     11.798214     11.798214     23.596427
     -3.208208      7.464138      7.464138     14.928276
     -3.198198      4.389807      4.389807      8.779614
     -3.188188      2.439822      2.439822      4.879644
     -3.178178      1.380620      1.380620      2.761241
     -3.168168      1.003879      1.003879      2.007759
     -3.158158      1.202955      1.202955      2.405911
     -3.148148      1.998635      1.998635      3.997269
     -3.138138      3.521335      3.521335      7.042669
     -3.128128      5.956571      5.956571     11.913141
     -3.118118      9.460853      9.460853     18.921707
     -3.108108     14.063828     14.063828     28.127656
     -3.098098     19.586481     19.586481     39.172962
     -3.088088     25.612584     25.612584     51.225168
     -3.078078     31.539044     31.539044     63.078088
     -3.068068     36.699325     36.699325     73.398650
     -3.058058     40.517487     40.517487     81.034975
     -3.048048     42.632467     42.632467     85.264934
     -3.038038     42.948094     42.948094     85.896187
     -3.028028     41.606288     41.606288     83.212576
     -3.018018     38.920426     38.920426     77.840852
     -3.008008     35.315043     35.315043     70.630085
     -2.997998     31.292308     31.292308     62.584616
     -2.987988     27.409019     27.409019     54.818037
     -2.977978     24.232205     24.232205     48.464410
     -2.967968     22.259529     22.259529     44.519058
     -2.957958     21.824876     21.824876     43.649752
     -2.947948     23.029037     23.029037     46.058075
     -2.937938     25.723655     25.723655     51.447309
     -2.927928     29.545806     29.545806     59.091612
     -2.917918     33.978798     33.978798     67.957596
     -2.907908     38.419063     38.419063     76.838126
     -2.897898     42.250047     42.250047     84.500094
     -2.887888     44.935205     44.935205     89.870410
     -2.877878     46.127139     46.127139     92.254278
     -2.867868     45.758893     45.758893     91.517787
     -2.857858     44.066270     44.066270     88.132541
     -2.847848     41.509000     41.509000     83.018000
     -2.837838     38.608218     38.608218     77.216436
     -2.827828     35.767175     35.767175     71.534350
     -2.817818     33.157881     33.157881     66.315761
     -2.807808     30.725642     30.725642     61.451284
     -2.797798     28.302400     28.302400     56.604800
     -2.787788     25.762781     25.762781     51.525562
     -2.777778     23.136175     23.136175     46.272350
     -2.767768     20.615667     20.615667     41.231335
     -2.757758     18.464996     18.464996     36.929992
     -2.747748     16.883829     16.883829     33.767658
     -2.737738     15.915180     15.915180     31.830360
     -2.727728     15.451808     15.451808     30.903616
     -2.717718     15.335877     15.335877     30.671754
     -2.707708     15.485586     15.485586     30.971171
     -2.697698     15.962704     15.962704     31.925408
     -2.687688     16.930870     16.930870     33.861741
     -2.677678     18.525590     18.525590     37.051180
     -2.667668     20.718116     20.718116     41.436233
     -2.657658     23.265342     23.265342     46.530684
     -2.647648     25.786755     25.786755     51.573510
     -2.637638     27.928311     27.928311     55.856622
     -2.627628     29.515410     29.515410     59.030821
     -2.617618     30.603695     30.603695     61.207389
     -2.607608     31.403883     31.403883     62.807766
     -2.597598     32.137627     32.137627     64.275254
     -2.587588     32.917090     32.917090     65.834180
     -2.577578     33.708835     33.708835     67.417671
     -2.567568     34.373883     34.373883     68.747766
     -2.557558     34.729209     34.729209     69.458418
     -2.547548     34.586100     34.586100     69.172199
     -2.537538     33.768760     33.768760     67.537521
     -2.527528     32.150249     32.150249     64.300498
     -2.517518     29.727079     29.727079     59.454159
     -2.507508     26.703453     26.703453     53.406907
     -2.497497     23.519985     23.519985     47.039970
     -2.487487     20.776930     20.776930     41.553860
     -2.477477     19.061322     19.061322     38.122644
     -2.467467     18.748933     18.748933     37.497867
     -2.457457     19.874398     19.874398     39.748796
     -2.447447     22.133579     22.133579     44.267158
     -2.437437     25.019516     25.019516     50.039032
     -2.427427     28.029644     28.029644     56.059287
     -2.417417     30.847484     30.847484     61.694967
     -2.407407     33.413085     33.413085     66.826170
     -2.397397     35.849724     35.849724     71.699448
     -2.387387     38.285930     38.285930     76.571861
     -2.377377     40.666831     40.666831     81.333663
     -2.367367     42.658440     42.658440     85.316879
     -2.357357     43.706168     43.706168     87.412336
     -2.347347     43.233919     43.233919     86.467838
     -2.337337     40.898933     40.898933     81.797866
     -2.327327     36.786239     36.786239     73.572479
     -2.317317     31.452321     31.452321     62.904642
     -2.307307     25.797625     25.797625     51.595250
     -2.297297     20.823977     20.823977     41.647954
     -2.287287     17.375337     17.375337     34.750674
     -2.277277     15.951607     15.951607     31.903214
     -2.267267     16.640202     16.640202     33.280404
     -2.257257     19.159979     19.159979     38.319957
     -2.247247     22.979943     22.979943     45.959886
     -2.237237     27.464739     27.464739     54.929478
     -2.227227     32.002685     32.002685     64.005370
     -2.217217     36.084764     36.084764     72.169528
     -2.207207     39.324555     39.324555     78.649110
     -2.197197     41.436918     41.436918     82.873836
     -2.187187     42.214750     42.214750     84.429499
     -2.177177     41.541304     41.541304     83.082608
     -2.167167     39.444531     39.444531     78.889062
     -2.157157     36.156463     36.156463     72.312925
     -2.147147     32.117535     32.117535     64.235069
     -2.137137     27.887014     27.887014     55.774028
     -2.127127     23.978964     23.978964     47.957928
     -2.117117     20.699219     20.699219     41.398439
     -2.107107     18.069885     18.069885     36.139770
     -2.097097     15.881786     15.881786     31.763572
     -2.087087     13.842073     13.842073     27.684146
     -2.077077     11.733423     11.733423     23.466846
     -2.067067      9.504631      9.504631     19.009261
     -2.057057      7.261868      7.261868     14.523736
     -2.047047      5.187952      5.187952     10.375905
     -2.037037      3.447089      3.447089      6.894178
     -2.027027      2.123681      2.123681      4.247362
     -2.017017      1.211936      1.211936      2.423872
     -2.007007      0.643347      0.643347      1.286694
     -1.996997      0.327261      0.327261      0.654522
     -1.986987      0.185082      0.185082      0.370164
     -1.976977      0.170975      0.170975      0.341950
     -1.966967      0.281282      0.281282      0.562565
     -1.956957      0.557034      0.557034      1.114069
     -1.946947      1.080577      1.080577      2.161153
     -1.936937      1.962679      1.962679      3.925357
     -1.926927      3.315258      3.315258      6.630517
     -1.916917      5.209702      5.209702     10.419403
     -1.906907      7.630451      7.630451     15.260903
     -1.896897     10.442389     10.442389     20.884778
     -1.886887     13.391163     13.391163     26.782326
     -1.876877     16.144901     16.144901     32.289801
     -1.866867     18.368492     18.368492     36.736983
     -1.856857     19.807680     19.807680     39.615361
     -1.846847     20.356436     20.356436     40.712872
     -1.836837     20.086312     20.086312     40.172624
     -1.826827     19.225698     19.225698     38.451395
     -1.816817     18.088532     18.088532     36.177063
     -1.806807     16.968764     16.968764     33.937528
     -1.796797     16.036715     16.036715     32.073431
     -1.786787     15.284031     15.284031     30.568062
     -1.776777     14.550204     14.550204     29.100407
     -1.766767     13.625099     13.625099     27.250198
     -1.756757     12.379498     12.379498     24.758996
     -1.746747     10.858147     10.858147     21.716293
     -1.736737      9.290008      9.290008     18.580016
     -1.726727      8.014433      8.014433     16.028865
     -1.716717      7.361201      7.361201     14.722402
     -1.706707      7.536576      7.536576     15.073153
     -1.696697      8.556452      8.556452     17.112903
     -1.686687     10.244349     10.244349     20.488698
     -1.676677     12.288107     12.288107     24.576214
     -1.666667     14.329832     14.329832     28.659665
     -1.656657     16.052959     16.052959     32.105918
     -1.646647     17.234495     17.234495     34.468991
     -1.636637     17.752062     17.752062     35.504124
     -1.626627     17.563582     17.563582     35.127165
