# EIG2DOS: Utility for SIESTA to obtain the electronic density of states
#  E. Artacho, Apr 1999, A. Garcia, Apr 2012
#  Nick R. Papior, Feb 2017
# ------------------------------------------
# Eigenvalues calculated from a non-polarized calculation
# Eigenvalues read from siesta.EIG
# Kpoint weights read from siesta.KP
# Using smearing parameter:   0.0500
# Using 1000 points in the energy range
# Selected bands: 1 to: 2981
# Emin, Emax in file for selected band(s):    -27.0498705    218.3151610
# Nbands, Nspin, Nk   =   2981     1     1
# E_F                 =    -4.2989 eV --> (shifted to ZERO)
# Broadening          =     0.0500 eV
#
#        E            N(up)  (=)   N(down)         Ntot
     -5.000000     42.092959     42.092959     84.185918
     -4.989990     47.054931     47.054931     94.109863
     -4.979980     50.836462     50.836462    101.672924
     -4.969970     52.888525     52.888525    105.777051
     -4.959960     52.920266     52.920266    105.840532
     -4.949950     50.988234     50.988234    101.976467
     -4.939940     47.486225     47.486225     94.972450
     -4.929930     43.054427     43.054427     86.108854
     -4.919920     38.460496     38.460496     76.920992
     -4.909910     34.499486     34.499486     68.998972
     -4.899900     31.920627     31.920627     63.841253
     -4.889890     31.347912     31.347912     62.695824
     -4.879880     33.154868     33.154868     66.309736
     -4.869870     37.297152     37.297152     74.594304
     -4.859860     43.175904     43.175904     86.351809
     -4.849850     49.645026     49.645026     99.290052
     -4.839840     55.238555     55.238555    110.477110
     -4.829830     58.582646     58.582646    117.165291
     -4.819820     58.835054     58.835054    117.670108
     -4.809810     55.950733     55.950733    111.901466
     -4.799800     50.647635     50.647635    101.295270
     -4.789790     44.100602     44.100602     88.201204
     -4.779780     37.524004     37.524004     75.048008
     -4.769770     31.833259     31.833259     63.666517
     -4.759760     27.496887     27.496887     54.993775
     -4.749750     24.572460     24.572460     49.144920
     -4.739740     22.841625     22.841625     45.683249
     -4.729730     21.953464     21.953464     43.906928
     -4.719720     21.527076     21.527076     43.054153
     -4.709710     21.209203     21.209203     42.418405
     -4.699700     20.705593     20.705593     41.411187
     -4.689690     19.806630     19.806630     39.613260
     -4.679680     18.419169     18.419169     36.838339
     -4.669670     16.604159     16.604159     33.208318
     -4.659660     14.606782     14.606782     29.213563
     -4.649650     12.858233     12.858233     25.716467
     -4.639640     11.930581     11.930581     23.861162
     -4.629630     12.437289     12.437289     24.874578
     -4.619620     14.886594     14.886594     29.773189
     -4.609610     19.510884     19.510884     39.021768
     -4.599600     26.114601     26.114601     52.229202
     -4.589590     34.002182     34.002182     68.004365
     -4.579580     42.049074     42.049074     84.098147
     -4.569570     48.942869     48.942869     97.885737
     -4.559560     53.548221     53.548221    107.096443
     -4.549550     55.271768     55.271768    110.543537
     -4.539540     54.272875     54.272875    108.545750
     -4.529530     51.414101     51.414101    102.828202
     -4.519520     47.956008     47.956008     95.912017
     -4.509510     45.116883     45.116883     90.233766
     -4.499499     43.676282     43.676282     87.352563
     -4.489489     43.773221     43.773221     87.546441
     -4.479479     44.955314     44.955314     89.910627
     -4.469469     46.426830     46.426830     92.853659
     -4.459459     47.373606     47.373606     94.747213
     -4.449449     47.235434     47.235434     94.470867
     -4.439439     45.842162     45.842162     91.684324
     -4.429429     43.397472     43.397472     86.794943
     -4.419419     40.351782     40.351782     80.703565
     -4.409409     37.233801     37.233801     74.467602
     -4.399399     34.505284     34.505284     69.010569
     -4.389389     32.475583     32.475583     64.951165
     -4.379379     31.278371     31.278371     62.556742
     -4.369369     30.889705     30.889705     61.779409
     -4.359359     31.163112     31.163112     62.326223
     -4.349349     31.869949     31.869949     63.739898
     -4.339339     32.747624     32.747624     65.495248
     -4.329329     33.560655     33.560655     67.121309
     -4.319319     34.167675     34.167675     68.335350
     -4.309309     34.572405     34.572405     69.144809
     -4.299299     34.932731     34.932731     69.865461
     -4.289289     35.513912     35.513912     71.027825
     -4.279279     36.591870     36.591870     73.183740
     -4.269269     38.330321     38.330321     76.660643
     -4.259259     40.668077     40.668077     81.336154
     -4.249249     43.260958     43.260958     86.521916
     -4.239239     45.520916     45.520916     91.041833
     -4.229229     46.769788     46.769788     93.539577
     -4.219219     46.472683     46.472683     92.945367
     -4.209209     44.458937     44.458937     88.917875
     -4.199199     41.019711     41.019711     82.039422
     -4.189189     36.819194     36.819194     73.638387
     -4.179179     32.652594     32.652594     65.305187
     -4.169169     29.168610     29.168610     58.337219
     -4.159159     26.689866     26.689866     53.379732
     -4.149149     25.203312     25.203312     50.406624
     -4.139139     24.497789     24.497789     48.995577
     -4.129129     24.356383     24.356383     48.712767
     -4.119119     24.697927     24.697927     49.395853
     -4.109109     25.598680     25.598680     51.197359
     -4.099099     27.187085     27.187085     54.374169
     -4.089089     29.467431     29.467431     58.934862
     -4.079079     32.171059     32.171059     64.342117
     -4.069069     34.733998     34.733998     69.467996
     -4.059059     36.444932     36.444932     72.889863
     -4.049049     36.714446     36.714446     73.428892
     -4.039039     35.337097     35.337097     70.674194
     -4.029029     32.607756     32.607756     65.215512
     -4.019019     29.228464     29.228464     58.456928
     -4.009009     26.057618     26.057618     52.115235
     -3.998999     23.834370     23.834370     47.668741
     -3.988989     23.006660     23.006660     46.013320
     -3.978979     23.711628     23.711628     47.423257
     -3.968969     25.863558     25.863558     51.727115
     -3.958959     29.260388     29.260388     58.520775
     -3.948949     33.645355     33.645355     67.290710
     -3.938939     38.722145     38.722145     77.444290
     -3.928929     44.165348     44.165348     88.330695
     -3.918919     49.661035     49.661035     99.322070
     -3.908909     54.967882     54.967882    109.935764
     -3.898899     59.950314     59.950314    119.900627
     -3.888889     64.537741     64.537741    129.075482
     -3.878879     68.610357     68.610357    137.220714
     -3.868869     71.871269     71.871269    143.742538
     -3.858859     73.795180     73.795180    147.590359
     -3.848849     73.719806     73.719806    147.439612
     -3.838839     71.074059     71.074059    142.148118
     -3.828829     65.654377     65.654377    131.308754
     -3.818819     57.817042     57.817042    115.634083
     -3.808809     48.481091     48.481091     96.962182
     -3.798799     38.922732     38.922732     77.845465
     -3.788789     30.439178     30.439178     60.878356
     -3.778779     24.012859     24.012859     48.025718
     -3.768769     20.092874     20.092874     40.185748
     -3.758759     18.548705     18.548705     37.097410
     -3.748749     18.783142     18.783142     37.566284
     -3.738739     19.948513     19.948513     39.897026
     -3.728729     21.198575     21.198575     42.397150
     -3.718719     21.915571     21.915571     43.831143
     -3.708709     21.864565     21.864565     43.729130
     -3.698699     21.240902     21.240902     42.481803
     -3.688689     20.594840     20.594840     41.189680
     -3.678679     20.644132     20.644132     41.288265
     -3.668669     22.019273     22.019273     44.038546
     -3.658659     25.017590     25.017590     50.035180
     -3.648649     29.454550     29.454550     58.909100
     -3.638639     34.677736     34.677736     69.355472
     -3.628629     39.749345     39.749345     79.498690
     -3.618619     43.729494     43.729494     87.458987
     -3.608609     45.945572     45.945572     91.891144
     -3.598599     46.143968     46.143968     92.287937
     -3.588589     44.485196     44.485196     88.970391
     -3.578579     41.419448     41.419448     82.838897
     -3.568569     37.518947     37.518947     75.037894
     -3.558559     33.330979     33.330979     66.661958
     -3.548549     29.277436     29.277436     58.554872
     -3.538539     25.600595     25.600595     51.201191
     -3.528529     22.353971     22.353971     44.707942
     -3.518519     19.443290     19.443290     38.886579
     -3.508509     16.713504     16.713504     33.427009
     -3.498498     14.053635     14.053635     28.107270
     -3.488488     11.474563     11.474563     22.949126
     -3.478478      9.124860      9.124860     18.249720
     -3.468468      7.241429      7.241429     14.482858
     -3.458458      6.061983      6.061983     12.123965
     -3.448448      5.736392      5.736392     11.472784
     -3.438438      6.264975      6.264975     12.529950
     -3.428428      7.478458      7.478458     14.956916
     -3.418418      9.066549      9.066549     18.133098
     -3.408408     10.655880     10.655880     21.311761
     -3.398398     11.924035     11.924035     23.848071
     -3.388388     12.715116     12.715116     25.430233
     -3.378378     13.108998     13.108998     26.217996
     -3.368368     13.407768     13.407768     26.815536
     -3.358358     14.039032     14.039032     28.078063
     -3.348348     15.415274     15.415274     30.830549
     -3.338338     17.804082     17.804082     35.608164
     -3.328328     21.246194     21.246194     42.492387
     -3.318318     25.525279     25.525279     51.050557
     -3.308308     30.175378     30.175378     60.350756
     -3.298298     34.523075     34.523075     69.046150
     -3.288288     37.783110     37.783110     75.566220
     -3.278278     39.223495     39.223495     78.446990
     -3.268268     38.374596     38.374596     76.749193
     -3.258258     35.203645     35.203645     70.407290
     -3.248248     30.161991     30.161991     60.323981
     -3.238238     24.062852     24.062852     48.125705
     -3.228228     17.835022     17.835022     35.670044
     -3.218218     12.262257     12.262257     24.524514
     -3.208208      7.816064      7.816064     15.632129
     -3.198198      4.629125      4.629125      9.258250
     -3.188188      2.584283      2.584283      5.168566
     -3.178178      1.453817      1.453817      2.907633
     -3.168168      1.027463      1.027463      2.054926
     -3.158158      1.196480      1.196480      2.392959
     -3.148148      1.988201      1.988201      3.976402
     -3.138138      3.556712      3.556712      7.113423
     -3.128128      6.133323      6.133323     12.266645
     -3.118118      9.937953      9.937953     19.875906
     -3.108108     15.060217     15.060217     30.120433
     -3.098098     21.338274     21.338274     42.676547
     -3.088088     28.283897     28.283897     56.567795
     -3.078078     35.105961     35.105961     70.211922
     -3.068068     40.857756     40.857756     81.715512
     -3.058058     44.679290     44.679290     89.358580
     -3.048048     46.049577     46.049577     92.099155
     -3.038038     44.942913     44.942913     89.885826
     -3.028028     41.819528     41.819528     83.639056
     -3.018018     37.460031     37.460031     74.920061
     -3.008008     32.726957     32.726957     65.453915
     -2.997998     28.358786     28.358786     56.717573
     -2.987988     24.863226     24.863226     49.726453
     -2.977978     22.512330     22.512330     45.024659
     -2.967968     21.398053     21.398053     42.796106
     -2.957958     21.501722     21.501722     43.003444
     -2.947948     22.748029     22.748029     45.496058
     -2.937938     25.029070     25.029070     50.058139
     -2.927928     28.191432     28.191432     56.382865
     -2.917918     31.992166     31.992166     63.984332
     -2.907908     36.053117     36.053117     72.106233
     -2.897898     39.861062     39.861062     79.722124
     -2.887888     42.848748     42.848748     85.697496
     -2.877878     44.545562     44.545562     89.091123
     -2.867868     44.733921     44.733921     89.467842
     -2.857858     43.527959     43.527959     87.055918
     -2.847848     41.323539     41.323539     82.647079
     -2.837838     38.635716     38.635716     77.271432
     -2.827828     35.900559     35.900559     71.801118
     -2.817818     33.336750     33.336750     66.673500
     -2.807808     30.928852     30.928852     61.857704
     -2.797798     28.528812     28.528812     57.057624
     -2.787788     26.011237     26.011237     52.022474
     -2.777778     23.393639     23.393639     46.787279
     -2.767768     20.857220     20.857220     41.714439
     -2.757758     18.662866     18.662866     37.325732
     -2.747748     17.017966     17.017966     34.035932
     -2.737738     15.977569     15.977569     31.955137
     -2.727728     15.441381     15.441381     30.882762
     -2.717718     15.247789     15.247789     30.495579
     -2.707708     15.303533     15.303533     30.607067
     -2.697698     15.662321     15.662321     31.324642
     -2.687688     16.495628     16.495628     32.991256
     -2.677678     17.967649     17.967649     35.935297
     -2.667668     20.090944     20.090944     40.181887
     -2.657658     22.657223     22.657223     45.314446
     -2.647648     25.294428     25.294428     50.588856
     -2.637638     27.622211     27.622211     55.244422
     -2.627628     29.414266     29.414266     58.828532
     -2.617618     30.671524     30.671524     61.343048
     -2.607608     31.569510     31.569510     63.139019
     -2.597598     32.324537     32.324537     64.649075
     -2.587588     33.068274     33.068274     66.136548
     -2.577578     33.798156     33.798156     67.596311
     -2.567568     34.405627     34.405627     68.811253
     -2.557558     34.732307     34.732307     69.464614
     -2.547548     34.606710     34.606710     69.213419
     -2.537538     33.859642     33.859642     67.719285
     -2.527528     32.354519     32.354519     64.709038
     -2.517518     30.059043     30.059043     60.118085
     -2.507508     27.135224     27.135224     54.270449
     -2.497497     23.982978     23.982978     47.965956
     -2.487487     21.180523     21.180523     42.361046
     -2.477477     19.321610     19.321610     38.643219
     -2.467467     18.815010     18.815010     37.630020
     -2.457457     19.741156     19.741156     39.482312
     -2.447447     21.836965     21.836965     43.673931
     -2.437437     24.618255     24.618255     49.236510
     -2.427427     27.582824     27.582824     55.165648
     -2.417417     30.398164     30.398164     60.796329
     -2.407407     32.984344     32.984344     65.968688
     -2.397397     35.453150     35.453150     70.906300
     -2.387387     37.936420     37.936420     75.872841
     -2.377377     40.394589     40.394589     80.789178
     -2.367367     42.510575     42.510575     85.021149
     -2.357357     43.735449     43.735449     87.470899
     -2.347347     43.478629     43.478629     86.957257
     -2.337337     41.362584     41.362584     82.725167
     -2.327327     37.426850     37.426850     74.853701
     -2.317317     32.187184     32.187184     64.374369
     -2.307307     26.522544     26.522544     53.045088
     -2.297297     21.439338     21.439338     42.878677
     -2.287287     17.808720     17.808720     35.617441
     -2.277277     16.169194     16.169194     32.338389
     -2.267267     16.645121     16.645121     33.290242
     -2.257257     18.981416     18.981416     37.962831
     -2.247247     22.659754     22.659754     45.319507
     -2.237237     27.047711     27.047711     54.095423
     -2.227227     31.533448     31.533448     63.066895
     -2.217217     35.610165     35.610165     71.220329
     -2.207207     38.896948     38.896948     77.793896
     -2.197197     41.112885     41.112885     82.225769
     -2.187187     42.046208     42.046208     84.092417
     -2.177177     41.560850     41.560850     83.121701
     -2.167167     39.651632     39.651632     79.303263
     -2.157157     36.512701     36.512701     73.025402
     -2.147147     32.555806     32.555806     65.111613
     -2.137137     28.332662     28.332662     56.665324
     -2.127127     24.374065     24.374065     48.748131
     -2.117117     21.018900     21.018900     42.037801
     -2.107107     18.323436     18.323436     36.646872
     -2.097097     16.099378     16.099378     32.198756
     -2.087087     14.055158     14.055158     28.110317
     -2.077077     11.959115     11.959115     23.918231
     -2.067067      9.740625      9.740625     19.481251
     -2.057057      7.491800      7.491800     14.983601
     -2.047047      5.391885      5.391885     10.783770
     -2.037037      3.610723      3.610723      7.221447
     -2.027027      2.242488      2.242488      4.484975
     -2.017017      1.290107      1.290107      2.580214
     -2.007007      0.689900      0.689900      1.379799
     -1.996997      0.351921      0.351921      0.703841
     -1.986987      0.195476      0.195476      0.390953
     -1.976977      0.171367      0.171367      0.342733
     -1.966967      0.272334      0.272334      0.544668
     -1.956957      0.536108      0.536108      1.072216
     -1.946947      1.042415      1.042415      2.084829
     -1.936937      1.900672      1.900672      3.801344
     -1.926927      3.223505      3.223505      6.447011
     -1.916917      5.085679      5.085679     10.171357
     -1.906907      7.477529      7.477529     14.955058
     -1.896897     10.271071     10.271071     20.542141
     -1.886887     13.218154     13.218154     26.436308
     -1.876877     15.989907     15.989907     31.979815
     -1.866867     18.249578     18.249578     36.499156
     -1.856857     19.736569     19.736569     39.473138
     -1.846847     20.335185     20.335185     40.670370
     -1.836837     20.106534     20.106534     40.213068
     -1.826827     19.270996     19.270996     38.541991
     -1.816817     18.139935     18.139935     36.279871
     -1.806807     17.011443     17.011443     34.022886
     -1.796797     16.064700     16.064700     32.129400
     -1.786787     15.299199     15.299199     30.598399
     -1.776777     14.553210     14.553210     29.106420
     -1.766767     13.598832     13.598832     27.197664
     -1.756757     12.268806     12.268806     24.537612
     -1.746747     10.552169     10.552169     21.104339
     -1.736737      8.615866      8.615866     17.231731
     -1.726727      6.753290      6.753290     13.506581
     -1.716717      5.297237      5.297237     10.594475
     -1.706707      4.540920      4.540920      9.081840
     -1.696697      4.688779      4.688779      9.377558
     -1.686687      5.830801      5.830801     11.661601
     -1.676677      7.922580      7.922580     15.845160
     -1.666667     10.764397     10.764397     21.528793
     -1.656657     13.993482     13.993482     27.986964
     -1.646647     17.114900     17.114900     34.229800
     -1.636637     19.586402     19.586402     39.172804
     -1.626627     20.945598     20.945598     41.891195
