# EIG2DOS: Utility for SIESTA to obtain the electronic density of states
#  E. Artacho, Apr 1999, A. Garcia, Apr 2012
#  Nick R. Papior, Feb 2017
# ------------------------------------------
# Eigenvalues calculated from a non-polarized calculation
# Eigenvalues read from siesta.EIG
# Kpoint weights read from siesta.KP
# Using smearing parameter:   0.0500
# Using 1000 points in the energy range
# Selected bands: 1 to: 2981
# Emin, Emax in file for selected band(s):    -27.0592017    218.3180180
# Nbands, Nspin, Nk   =   2981     1     1
# E_F                 =    -4.2945 eV --> (shifted to ZERO)
# Broadening          =     0.0500 eV
#
#        E            N(up)  (=)   N(down)         Ntot
     -5.000000     40.229819     40.229819     80.459638
     -4.989990     41.708842     41.708842     83.417685
     -4.979980     42.814416     42.814416     85.628831
     -4.969970     43.301507     43.301507     86.603014
     -4.959960     42.948429     42.948429     85.896858
     -4.949950     41.653887     41.653887     83.307773
     -4.939940     39.497359     39.497359     78.994717
     -4.929930     36.755559     36.755559     73.511118
     -4.919920     33.885672     33.885672     67.771345
     -4.909910     31.485013     31.485013     62.970026
     -4.899900     30.220585     30.220585     60.441171
     -4.889890     30.708131     30.708131     61.416262
     -4.879880     33.331246     33.331246     66.662491
     -4.869870     38.035878     38.035878     76.071756
     -4.859860     44.191298     44.191298     88.382597
     -4.849850     50.627304     50.627304    101.254608
     -4.839840     55.901281     55.901281    111.802562
     -4.829830     58.730847     58.730847    117.461694
     -4.819820     58.417684     58.417684    116.835368
     -4.809810     55.066717     55.066717    110.133434
     -4.799800     49.499679     49.499679     98.999358
     -4.789790     42.918598     42.918598     85.837197
     -4.779780     36.492567     36.492567     72.985134
     -4.769770     31.049914     31.049914     62.099828
     -4.759760     26.967717     26.967717     53.935433
     -4.749750     24.235172     24.235172     48.470344
     -4.739740     22.600421     22.600421     45.200841
     -4.729730     21.713458     21.713458     43.426915
     -4.719720     21.221252     21.221252     42.442504
     -4.709710     20.813760     20.813760     41.627521
     -4.699700     20.241336     20.241336     40.482672
     -4.689690     19.327608     19.327608     38.655217
     -4.679680     17.994772     17.994772     35.989544
     -4.669670     16.303684     16.303684     32.607367
     -4.659660     14.493148     14.493148     28.986297
     -4.649650     12.990555     12.990555     25.981110
     -4.639640     12.367915     12.367915     24.735830
     -4.629630     13.232922     13.232922     26.465843
     -4.619620     16.066422     16.066422     32.132844
     -4.609610     21.039958     21.039958     42.079916
     -4.599600     27.867831     27.867831     55.735662
     -4.589590     35.761000     35.761000     71.521999
     -4.579580     43.539140     43.539140     87.078280
     -4.569570     49.908803     49.908803     99.817606
     -4.559560     53.838923     53.838923    107.677846
     -4.549550     54.898574     54.898574    109.797148
     -4.539540     53.412157     53.412157    106.824315
     -4.529530     50.352899     50.352899    100.705798
     -4.519520     47.008570     47.008570     94.017141
     -4.509510     44.553965     44.553965     89.107931
     -4.499499     43.699236     43.699236     87.398472
     -4.489489     44.536849     44.536849     89.073697
     -4.479479     46.612420     46.612420     93.224839
     -4.469469     49.149952     49.149952     98.299904
     -4.459459     51.316016     51.316016    102.632032
     -4.449449     52.424663     52.424663    104.849326
     -4.439439     52.043721     52.043721    104.087442
     -4.429429     50.022268     50.022268    100.044536
     -4.419419     46.483635     46.483635     92.967270
     -4.409409     41.810552     41.810552     83.621104
     -4.399399     36.611636     36.611636     73.223273
     -4.389389     31.637055     31.637055     63.274111
     -4.379379     27.627837     27.627837     55.255674
     -4.369369     25.129009     25.129009     50.258018
     -4.359359     24.337382     24.337382     48.674764
     -4.349349     25.056923     25.056923     50.113845
     -4.339339     26.791055     26.791055     53.582110
     -4.329329     28.936367     28.936367     57.872734
     -4.319319     30.995011     30.995011     61.990021
     -4.309309     32.719875     32.719875     65.439750
     -4.299299     34.144907     34.144907     68.289813
     -4.289289     35.505815     35.505815     71.011630
     -4.279279     37.093986     37.093986     74.187973
     -4.269269     39.097041     39.097041     78.194082
     -4.259259     41.473402     41.473402     82.946803
     -4.249249     43.900645     43.900645     87.801291
     -4.239239     45.828629     45.828629     91.657257
     -4.229229     46.643346     46.643346     93.286693
     -4.219219     45.898461     45.898461     91.796921
     -4.209209     43.519837     43.519837     87.039674
     -4.199199     39.876834     39.876834     79.753667
     -4.189189     35.668532     35.668532     71.337063
     -4.179179     31.670674     31.670674     63.341348
     -4.169169     28.467512     28.467512     56.935024
     -4.159159     26.298296     26.298296     52.596591
     -4.149149     25.078772     25.078772     50.157544
     -4.139139     24.561954     24.561954     49.123909
     -4.129129     24.537168     24.537168     49.074336
     -4.119119     24.959743     24.959743     49.919486
     -4.109109     25.947130     25.947130     51.894260
     -4.099099     27.645189     27.645189     55.290377
     -4.089089     30.035016     30.035016     60.070032
     -4.079079     32.790619     32.790619     65.581239
     -4.069069     35.286706     35.286706     70.573411
     -4.059059     36.785712     36.785712     73.571424
     -4.049049     36.731679     36.731679     73.463357
     -4.039039     35.005375     35.005375     70.010749
     -4.029029     32.004038     32.004038     64.008077
     -4.019019     28.502945     28.502945     57.005890
     -4.009009     25.376774     25.376774     50.753547
     -3.998999     23.327351     23.327351     46.654703
     -3.988989     22.739406     22.739406     45.478813
     -3.978979     23.692895     23.692895     47.385790
     -3.968969     26.068779     26.068779     52.137558
     -3.958959     29.654598     29.654598     59.309196
     -3.948949     34.194934     34.194934     68.389867
     -3.938939     39.397300     39.397300     78.794600
     -3.928929     44.940718     44.940718     89.881436
     -3.918919     50.517888     50.517888    101.035776
     -3.908909     55.893923     55.893923    111.787847
     -3.898899     60.930408     60.930408    121.860816
     -3.888889     65.534468     65.534468    131.068937
     -3.878879     69.543476     69.543476    139.086951
     -3.868869     72.611567     72.611567    145.223134
     -3.858859     74.184742     74.184742    148.369483
     -3.848849     73.617687     73.617687    147.235374
     -3.838839     70.410980     70.410980    140.821960
     -3.828829     64.471860     64.471860    128.943721
     -3.818819     56.271204     56.271204    112.542408
     -3.808809     46.806907     46.806907     93.613814
     -3.798799     37.372212     37.372212     74.744425
     -3.788789     29.216849     29.216849     58.433697
     -3.778779     23.230209     23.230209     46.460419
     -3.768769     19.753112     19.753112     39.506224
     -3.758759     18.561306     18.561306     37.122613
     -3.748749     18.999643     18.999643     37.999286
     -3.738739     20.207996     20.207996     40.415992
     -3.728729     21.371605     21.371605     42.743210
     -3.718719     21.936966     21.936966     43.873932
     -3.708709     21.747748     21.747748     43.495496
     -3.698699     21.070054     21.070054     42.140107
     -3.688689     20.495926     20.495926     40.991851
     -3.678679     20.741742     20.741742     41.483485
     -3.668669     22.391688     22.391688     44.783376
     -3.658659     25.665158     25.665158     51.330317
     -3.648649     30.293793     30.293793     60.587587
     -3.638639     35.564649     35.564649     71.129298
     -3.628629     40.523041     40.523041     81.046081
     -3.618619     44.258102     44.258102     88.516205
     -3.608609     46.156200     46.156200     92.312400
     -3.598599     46.028257     46.028257     92.056515
     -3.588589     44.085138     44.085138     88.170276
     -3.578579     40.805768     40.805768     81.611535
     -3.568569     36.772498     36.772498     73.544996
     -3.558559     32.530099     32.530099     65.060197
     -3.548549     28.488668     28.488668     56.977336
     -3.538539     24.870773     24.870773     49.741546
     -3.528529     21.705671     21.705671     43.411341
     -3.518519     18.877457     18.877457     37.754914
     -3.508509     16.219976     16.219976     32.439952
     -3.498498     13.625065     13.625065     27.250131
     -3.488488     11.116717     11.116717     22.233434
     -3.478478      8.858354      8.858354     17.716709
     -3.468468      7.094691      7.094691     14.189381
     -3.458458      6.058838      6.058838     12.117676
     -3.448448      5.882829      5.882829     11.765659
     -3.438438      6.539303      6.539303     13.078606
     -3.428428      7.828734      7.828734     15.657468
     -3.418418      9.418447      9.418447     18.836894
     -3.408408     10.931483     10.931483     21.862966
     -3.398398     12.067106     12.067106     24.134213
     -3.388388     12.713808     12.713808     25.427615
     -3.378378     13.006362     13.006362     26.012724
     -3.368368     13.295210     13.295210     26.590419
     -3.358358     14.035013     14.035013     28.070026
     -3.348348     15.636209     15.636209     31.272418
     -3.338338     18.334046     18.334046     36.668092
     -3.328328     22.109345     22.109345     44.218689
     -3.318318     26.664552     26.664552     53.329103
     -3.308308     31.444798     31.444798     62.889596
     -3.298298     35.704276     35.704276     71.408553
     -3.288288     38.632142     38.632142     77.264284
     -3.278278     39.539606     39.539606     79.079213
     -3.268268     38.066186     38.066186     76.132372
     -3.258258     34.321091     34.321091     68.642182
     -3.248248     28.879929     28.879929     57.759858
     -3.238238     22.619450     22.619450     45.238899
     -3.228228     16.456806     16.456806     32.913612
     -3.218218     11.106850     11.106850     22.213701
     -3.208208      6.951239      6.951239     13.902478
     -3.198198      4.046169      4.046169      8.092337
     -3.188188      2.229669      2.229669      4.459337
     -3.178178      1.261185      1.261185      2.522370
     -3.168168      0.938652      0.938652      1.877304
     -3.158158      1.168858      1.168858      2.337715
     -3.148148      1.991001      1.991001      3.982002
     -3.138138      3.560885      3.560885      7.121770
     -3.128128      6.099786      6.099786     12.199571
     -3.118118      9.809953      9.809953     19.619905
     -3.108108     14.766551     14.766551     29.533101
     -3.098098     20.812680     20.812680     41.625361
     -3.088088     27.499399     27.499399     54.998798
     -3.078078     34.112149     34.112149     68.224298
     -3.068068     39.800103     39.800103     79.600206
     -3.058058     43.781222     43.781222     87.562443
     -3.048048     45.554218     45.554218     91.108436
     -3.038038     45.035099     45.035099     90.070199
     -3.028028     42.564052     42.564052     85.128104
     -3.018018     38.785963     38.785963     77.571927
     -3.008008     34.462055     34.462055     68.924110
     -2.997998     30.289991     30.289991     60.579981
     -2.987988     26.789295     26.789295     53.578591
     -2.977978     24.268719     24.268719     48.537439
     -2.967968     22.858980     22.858980     45.717960
     -2.957958     22.578983     22.578983     45.157966
     -2.947948     23.400125     23.400125     46.800250
     -2.937938     25.275670     25.275670     50.551339
     -2.927928     28.115645     28.115645     56.231290
     -2.917918     31.718111     31.718111     63.436222
     -2.907908     35.704258     35.704258     71.408517
     -2.897898     39.519971     39.519971     79.039941
     -2.887888     42.539117     42.539117     85.078235
     -2.877878     44.243274     44.243274     88.486547
     -2.867868     44.397005     44.397005     88.794009
     -2.857858     43.126921     43.126921     86.253841
     -2.847848     40.857238     40.857238     81.714475
     -2.837838     38.128898     38.128898     76.257796
     -2.827828     35.389637     35.389637     70.779274
     -2.817818     32.854839     32.854839     65.709678
     -2.807808     30.498554     30.498554     60.997107
     -2.797798     28.164393     28.164393     56.328787
     -2.787788     25.725263     25.725263     51.450526
     -2.777778     23.200650     23.200650     46.401300
     -2.767768     20.770066     20.770066     41.540132
     -2.757758     18.683813     18.683813     37.367626
     -2.747748     17.132187     17.132187     34.264375
     -2.737738     16.156981     16.156981     32.313962
     -2.727728     15.660585     15.660585     31.321171
     -2.717718     15.504511     15.504511     31.009022
     -2.707708     15.629613     15.629613     31.259226
     -2.697698     16.113585     16.113585     32.227170
     -2.687688     17.120427     17.120427     34.240854
     -2.677678     18.768498     18.768498     37.536995
     -2.667668     21.001960     21.001960     42.003919
     -2.657658     23.554766     23.554766     47.109532
     -2.647648     26.040520     26.040520     52.081040
     -2.637638     28.120117     28.120117     56.240234
     -2.627628     29.646562     29.646562     59.293124
     -2.617618     30.700393     30.700393     61.400786
     -2.607608     31.501382     31.501382     63.002764
     -2.597598     32.261170     32.261170     64.522340
     -2.587588     33.070228     33.070228     66.140457
     -2.577578     33.873418     33.873418     67.746835
     -2.567568     34.518220     34.518220     69.036440
     -2.557558     34.817733     34.817733     69.635466
     -2.547548     34.586786     34.586786     69.173572
     -2.537538     33.659564     33.659564     67.319128
     -2.527528     31.927228     31.927228     63.854457
     -2.517518     29.413271     29.413271     58.826541
     -2.507508     26.352679     26.352679     52.705359
     -2.497497     23.209038     23.209038     46.418076
     -2.487487     20.584751     20.584751     41.169501
     -2.477477     19.041661     19.041661     38.083321
     -2.467467     18.908160     18.908160     37.816321
     -2.457457     20.165118     20.165118     40.330235
     -2.447447     22.468005     22.468005     44.936010
     -2.437437     25.297709     25.297709     50.595418
     -2.427427     28.171226     28.171226     56.342451
     -2.417417     30.814471     30.814471     61.628943
     -2.407407     33.216256     33.216256     66.432511
     -2.397397     35.538468     35.538468     71.076936
     -2.387387     37.927697     37.927697     75.855394
     -2.377377     40.324446     40.324446     80.648892
     -2.367367     42.372294     42.372294     84.744588
     -2.357357     43.485666     43.485666     86.971332
     -2.347347     43.059886     43.059886     86.119771
     -2.337337     40.735659     40.735659     81.471317
     -2.327327     36.598378     36.598378     73.196757
     -2.317317     31.219605     31.219605     62.439211
     -2.307307     25.521467     25.521467     51.042933
     -2.297297     20.524546     20.524546     41.049093
     -2.287287     17.082722     17.082722     34.165444
     -2.277277     15.696691     15.696691     31.393382
     -2.267267     16.448981     16.448981     32.897961
     -2.257257     19.051425     19.051425     38.102849
     -2.247247     22.965255     22.965255     45.930509
     -2.237237     27.546154     27.546154     55.092308
     -2.227227     32.171803     32.171803     64.343606
     -2.217217     36.321637     36.321637     72.643273
     -2.207207     39.598865     39.598865     79.197730
     -2.197197     41.711856     41.711856     83.423713
     -2.187187     42.453438     42.453438     84.906876
     -2.177177     41.714740     41.714740     83.429480
     -2.167167     39.538883     39.538883     79.077765
     -2.157157     36.176575     36.176575     72.353150
     -2.147147     32.084033     32.084033     64.168066
     -2.137137     27.827082     27.827082     55.654163
     -2.127127     23.914554     23.914554     47.829108
     -2.117117     20.638548     20.638548     41.277097
     -2.107107     18.006618     18.006618     36.013237
     -2.097097     15.801960     15.801960     31.603921
     -2.087087     13.734351     13.734351     27.468703
     -2.077077     11.596753     11.596753     23.193505
     -2.067067      9.349559      9.349559     18.699117
     -2.057057      7.105864      7.105864     14.211728
     -2.047047      5.048249      5.048249     10.096498
     -2.037037      3.335032      3.335032      6.670063
     -2.027027      2.042761      2.042761      4.085522
     -2.017017      1.159263      1.159263      2.318526
     -2.007007      0.612871      0.612871      1.225742
     -1.996997      0.313022      0.313022      0.626044
     -1.986987      0.183615      0.183615      0.367229
     -1.976977      0.182828      0.182828      0.365657
     -1.966967      0.311883      0.311883      0.623766
     -1.956957      0.616809      0.616809      1.233618
     -1.946947      1.183666      1.183666      2.367331
     -1.936937      2.123335      2.123335      4.246669
     -1.926927      3.541696      3.541696      7.083391
     -1.916917      5.496787      5.496787     10.993575
     -1.906907      7.954532      7.954532     15.909063
     -1.896897     10.762179     10.762179     21.524357
     -1.886887     13.656847     13.656847     27.313693
     -1.876877     16.313617     16.313617     32.627233
     -1.866867     18.420363     18.420363     36.840726
     -1.856857     19.755210     19.755210     39.510420
     -1.846847     20.242503     20.242503     40.485006
     -1.836837     19.970825     19.970825     39.941651
     -1.826827     19.165490     19.165490     38.330980
     -1.816817     18.117393     18.117393     36.234785
     -1.806807     17.084451     17.084451     34.168902
     -1.796797     16.199883     16.199883     32.399766
     -1.786787     15.430472     15.430472     30.860944
     -1.776777     14.612900     14.612900     29.225800
     -1.766767     13.557869     13.557869     27.115738
     -1.756757     12.172408     12.172408     24.344817
     -1.746747     10.538271     10.538271     21.076542
     -1.736737      8.908334      8.908334     17.816669
     -1.726727      7.626441      7.626441     15.252881
     -1.716717      7.010725      7.010725     14.021451
     -1.706707      7.249075      7.249075     14.498151
     -1.696697      8.341594      8.341594     16.683188
     -1.686687     10.103029     10.103029     20.206057
     -1.676677     12.218131     12.218131     24.436263
     -1.666667     14.327163     14.327163     28.654326
     -1.656657     16.109238     16.109238     32.218476
     -1.646647     17.334136     17.334136     34.668272
     -1.636637     17.872197     17.872197     35.744395
     -1.626627     17.678102     17.678102     35.356203
