# EIG2DOS: Utility for SIESTA to obtain the electronic density of states
#  E. Artacho, Apr 1999, A. Garcia, Apr 2012
#  Nick R. Papior, Feb 2017
# ------------------------------------------
# Eigenvalues calculated from a non-polarized calculation
# Eigenvalues read from siesta.EIG
# Kpoint weights read from siesta.KP
# Using smearing parameter:   0.0500
# Using 1000 points in the energy range
# Selected bands: 1 to: 2981
# Emin, Emax in file for selected band(s):    -27.0334502    218.3073690
# Nbands, Nspin, Nk   =   2981     1     1
# E_F                 =    -4.3052 eV --> (shifted to ZERO)
# Broadening          =     0.0500 eV
#
#        E            N(up)  (=)   N(down)         Ntot
     -5.000000     45.526382     45.526382     91.052764
     -4.989990     48.683002     48.683002     97.366004
     -4.979980     50.337737     50.337737    100.675474
     -4.969970     50.401232     50.401232    100.802464
     -4.959960     48.988348     48.988348     97.976697
     -4.949950     46.372485     46.372485     92.744970
     -4.939940     42.931218     42.931218     85.862436
     -4.929930     39.110041     39.110041     78.220082
     -4.919920     35.412731     35.412731     70.825461
     -4.909910     32.403152     32.403152     64.806303
     -4.899900     30.684298     30.684298     61.368597
     -4.889890     30.816054     30.816054     61.632109
     -4.879880     33.155223     33.155223     66.310446
     -4.869870     37.652747     37.652747     75.305494
     -4.859860     43.702104     43.702104     87.404208
     -4.849850     50.154805     50.154805    100.309609
     -4.839840     55.566393     55.566393    111.132786
     -4.829830     58.619390     58.619390    117.238779
     -4.819820     58.554635     58.554635    117.109271
     -4.809810     55.411798     55.411798    110.823596
     -4.799800     49.966698     49.966698     99.933396
     -4.789790     43.408670     43.408670     86.817339
     -4.779780     36.925711     36.925711     73.851422
     -4.769770     31.383256     31.383256     62.766513
     -4.759760     27.197379     27.197379     54.394758
     -4.749750     24.386446     24.386446     48.772892
     -4.739740     22.713099     22.713099     45.426197
     -4.729730     21.827488     21.827488     43.654975
     -4.719720     21.365476     21.365476     42.730952
     -4.709710     20.999308     20.999308     41.998616
     -4.699700     20.460541     20.460541     40.921081
     -4.689690     19.557815     19.557815     39.115630
     -4.679680     18.204409     18.204409     36.408817
     -4.669670     16.457095     16.457095     32.914190
     -4.659660     14.552246     14.552246     29.104491
     -4.649650     12.914626     12.914626     25.829252
     -4.639640     12.115835     12.115835     24.231669
     -4.629630     12.772236     12.772236     25.544472
     -4.619620     15.390248     15.390248     30.780497
     -4.609610     20.186439     20.186439     40.372879
     -4.599600     26.931256     26.931256     53.862512
     -4.589590     34.883072     34.883072     69.766143
     -4.579580     42.876008     42.876008     85.752015
     -4.569570     49.582200     49.582200     99.164401
     -4.559560     53.890989     53.890989    107.781978
     -4.549550     55.271467     55.271467    110.542934
     -4.539540     53.962668     53.962668    107.925336
     -4.529530     50.894375     50.894375    101.788749
     -4.519520     47.358087     47.358087     94.716174
     -4.509510     44.560381     44.560381     89.120763
     -4.499499     43.239016     43.239016     86.478033
     -4.489489     43.483868     43.483868     86.967736
     -4.479479     44.806505     44.806505     89.613010
     -4.469469     46.397667     46.397667     92.795333
     -4.459459     47.449219     47.449219     94.898438
     -4.449449     47.415509     47.415509     94.831017
     -4.439439     46.136352     46.136352     92.272703
     -4.429429     43.810536     43.810536     87.621073
     -4.419419     40.864959     40.864959     81.729918
     -4.409409     37.791405     37.791405     75.582811
     -4.399399     35.015623     35.015623     70.031247
     -4.389389     32.830635     32.830635     65.661271
     -4.379379     31.387574     31.387574     62.775148
     -4.369369     30.714054     30.714054     61.428108
     -4.359359     30.733250     30.733250     61.466499
     -4.349349     31.279077     31.279077     62.558153
     -4.339339     32.122923     32.122923     64.245847
     -4.329329     33.027029     33.027029     66.054059
     -4.319319     33.818656     33.818656     67.637313
     -4.309309     34.455908     34.455908     68.911817
     -4.299299     35.050344     35.050344     70.100688
     -4.289289     35.827752     35.827752     71.655505
     -4.279279     37.034057     37.034057     74.068113
     -4.269269     38.813608     38.813608     77.627215
     -4.259259     41.098351     41.098351     82.196703
     -4.249249     43.551894     43.551894     87.103789
     -4.239239     45.609213     45.609213     91.218425
     -4.229229     46.627950     46.627950     93.255900
     -4.219219     46.115873     46.115873     92.231747
     -4.209209     43.943056     43.943056     87.886111
     -4.199199     40.429662     40.429662     80.859323
     -4.189189     36.249252     36.249252     72.498505
     -4.179179     32.184042     32.184042     64.368085
     -4.169169     28.851628     28.851628     57.703257
     -4.159159     26.535731     26.535731     53.071463
     -4.149149     25.189446     25.189446     50.378892
     -4.139139     24.583591     24.583591     49.167182
     -4.129129     24.503638     24.503638     49.007276
     -4.119119     24.887149     24.887149     49.774299
     -4.109109     25.833318     25.833318     51.666635
     -4.099099     27.482071     27.482071     54.964142
     -4.089089     29.826659     29.826659     59.653317
     -4.079079     32.566152     32.566152     65.132305
     -4.069069     35.098750     35.098750     70.197501
     -4.059059     36.692635     36.692635     73.385269
     -4.049049     36.771901     36.771901     73.543803
     -4.039039     35.177810     35.177810     70.355619
     -4.029029     32.265919     32.265919     64.531838
     -4.019019     28.786266     28.786266     57.572531
     -4.009009     25.613866     25.613866     51.227733
     -3.998999     23.471968     23.471968     46.943935
     -3.988989     22.774239     22.774239     45.548478
     -3.978979     23.623717     23.623717     47.247434
     -3.968969     25.912508     25.912508     51.825017
     -3.958959     29.429285     29.429285     58.858569
     -3.948949     33.915048     33.915048     67.830095
     -3.938939     39.072548     39.072548     78.145096
     -3.928929     44.575249     44.575249     89.150499
     -3.918919     50.109473     50.109473    100.218946
     -3.908909     55.436069     55.436069    110.872138
     -3.898899     60.420520     60.420520    120.841041
     -3.888889     64.987174     64.987174    129.974349
     -3.878879     69.002838     69.002838    138.005676
     -3.868869     72.153491     72.153491    144.306982
     -3.858859     73.903871     73.903871    147.807743
     -3.848849     73.600531     73.600531    147.201062
     -3.838839     70.704818     70.704818    141.409636
     -3.828829     65.062632     65.062632    130.125263
     -3.818819     57.080646     57.080646    114.161292
     -3.808809     47.711057     47.711057     95.422114
     -3.798799     38.234305     38.234305     76.468610
     -3.788789     29.922311     29.922311     59.844623
     -3.778779     23.712052     23.712052     47.424105
     -3.768769     20.001244     20.001244     40.002488
     -3.758759     18.615768     18.615768     37.231536
     -3.748749     18.932351     18.932351     37.864702
     -3.738739     20.099325     20.099325     40.198651
     -3.728729     21.287748     21.287748     42.575495
     -3.718719     21.912854     21.912854     43.825709
     -3.708709     21.779095     21.779095     43.558190
     -3.698699     21.116600     21.116600     42.233200
     -3.688689     20.495837     20.495837     40.991673
     -3.678679     20.634026     20.634026     41.268051
     -3.668669     22.140185     22.140185     44.280370
     -3.658659     25.275628     25.275628     50.551256
     -3.648649     29.816760     29.816760     59.633521
     -3.638639     35.081758     35.081758     70.163516
     -3.628629     40.121995     40.121995     80.243989
     -3.618619     44.006863     44.006863     88.013725
     -3.608609     46.087221     46.087221     92.174442
     -3.598599     46.137564     46.137564     92.275127
     -3.588589     44.342926     44.342926     88.685852
     -3.578579     41.170397     41.170397     82.340793
     -3.568569     37.200962     37.200962     74.401925
     -3.558559     32.983184     32.983184     65.966368
     -3.548549     28.933187     28.933187     57.866374
     -3.538539     25.281611     25.281611     50.563222
     -3.528529     22.067833     22.067833     44.135666
     -3.518519     19.186250     19.186250     38.372500
     -3.508509     16.477995     16.477995     32.955990
     -3.498498     13.836950     13.836950     27.673900
     -3.488488     11.284372     11.284372     22.568744
     -3.478478      8.979026      8.979026     17.958051
     -3.468468      7.162529      7.162529     14.325058
     -3.458458      6.068900      6.068900     12.137800
     -3.448448      5.835722      5.835722     11.671445
     -3.438438      6.444683      6.444683     12.889366
     -3.428428      7.706079      7.706079     15.412159
     -3.418418      9.293964      9.293964     18.587929
     -3.408408     10.831118     10.831118     21.662236
     -3.398398     12.007469     12.007469     24.014939
     -3.388388     12.694408     12.694408     25.388816
     -3.378378     13.006593     13.006593     26.013185
     -3.368368     13.277670     13.277670     26.555340
     -3.358358     13.954113     13.954113     27.908226
     -3.348348     15.449457     15.449457     30.898914
     -3.338338     18.013701     18.013701     36.027401
     -3.328328     21.653180     21.653180     43.306360
     -3.318318     26.104341     26.104341     52.208683
     -3.308308     30.849247     30.849247     61.698495
     -3.298298     35.171569     35.171569     70.343139
     -3.288288     38.269256     38.269256     76.538512
     -3.278278     39.432018     39.432018     78.864037
     -3.268268     38.249039     38.249039     76.498078
     -3.258258     34.765394     34.765394     69.530788
     -3.248248     29.501521     29.501521     59.003042
     -3.238238     23.307144     23.307144     46.614289
     -3.228228     17.106625     17.106625     34.213250
     -3.218218     11.647667     11.647667     23.295335
     -3.208208      7.353591      7.353591     14.707182
     -3.198198      4.315313      4.315313      8.630627
     -3.188188      2.390177      2.390177      4.780354
     -3.178178      1.340941      1.340941      2.681881
     -3.168168      0.956636      0.956636      1.913273
     -3.158158      1.126729      1.126729      2.253458
     -3.148148      1.865722      1.865722      3.731444
     -3.138138      3.295266      3.295266      6.590531
     -3.128128      5.589675      5.589675     11.179349
     -3.118118      8.890840      8.890840     17.781679
     -3.108108     13.208137     13.208137     26.416275
     -3.098098     18.335716     18.335716     36.671431
     -3.088088     23.830194     23.830194     47.660388
     -3.078078     29.080683     29.080683     58.161366
     -3.068068     33.464660     33.464660     66.929320
     -3.058058     36.532665     36.532665     73.065330
     -3.048048     38.134029     38.134029     76.268059
     -3.038038     38.414382     38.414382     76.828764
     -3.028028     37.684101     37.684101     75.368203
     -3.018018     36.237058     36.237058     72.474117
     -3.008008     34.234710     34.234710     68.469421
     -2.997998     31.730193     31.730193     63.460386
     -2.987988     28.813033     28.813033     57.626066
     -2.977978     25.771615     25.771615     51.543230
     -2.967968     23.155024     23.155024     46.310048
     -2.957958     21.675600     21.675600     43.351199
     -2.947948     21.984772     21.984772     43.969543
     -2.937938     24.420594     24.420594     48.841188
     -2.927928     28.836048     28.836048     57.672096
     -2.917918     34.579458     34.579458     69.158917
     -2.907908     40.638380     40.638380     81.276761
     -2.897898     45.900734     45.900734     91.801468
     -2.887888     49.448199     49.448199     98.896398
     -2.877878     50.786791     50.786791    101.573581
     -2.867868     49.941527     49.941527     99.883055
     -2.857858     47.389582     47.389582     94.779165
     -2.847848     43.862659     43.862659     87.725319
     -2.837838     40.093914     40.093914     80.187828
     -2.827828     36.601470     36.601470     73.202941
     -2.817818     33.583132     33.583132     67.166265
     -2.807808     30.950824     30.950824     61.901648
     -2.797798     28.475239     28.475239     56.950479
     -2.787788     25.965114     25.965114     51.930228
     -2.777778     23.393586     23.393586     46.787173
     -2.767768     20.914555     20.914555     41.829110
     -2.757758     18.771738     18.771738     37.543477
     -2.747748     17.161484     17.161484     34.322967
     -2.737738     16.134369     16.134369     32.268739
     -2.727728     15.594775     15.594775     31.189549
     -2.717718     15.395332     15.395332     30.790663
     -2.707708     15.461661     15.461661     30.923321
     -2.697698     15.861199     15.861199     31.722397
     -2.687688     16.764181     16.764181     33.528362
     -2.677678     18.315268     18.315268     36.630536
     -2.667668     20.496224     20.496224     40.992448
     -2.657658     23.071819     23.071819     46.143639
     -2.647648     25.662023     25.662023     51.324047
     -2.637638     27.903229     27.903229     55.806458
     -2.627628     29.602630     29.602630     59.205260
     -2.617618     30.794073     30.794073     61.588146
     -2.607608     31.669185     31.669185     63.338371
     -2.597598     32.437982     32.437982     64.875963
     -2.587588     33.210268     33.210268     66.420537
     -2.577578     33.958709     33.958709     67.917418
     -2.567568     34.556507     34.556507     69.113013
     -2.557558     34.835822     34.835822     69.671645
     -2.547548     34.622821     34.622821     69.245643
     -2.537538     33.753301     33.753301     67.506601
     -2.527528     32.106721     32.106721     64.213441
     -2.517518     29.680456     29.680456     59.360913
     -2.507508     26.674933     26.674933     53.349866
     -2.497497     23.523623     23.523623     47.047246
     -2.487487     20.817226     20.817226     41.634451
     -2.477477     19.131505     19.131505     38.263011
     -2.467467     18.830446     18.830446     37.660892
     -2.457457     19.938622     19.938622     39.877245
     -2.447447     22.146548     22.146548     44.293095
     -2.437437     24.949128     24.949128     49.898256
     -2.427427     27.853701     27.853701     55.707403
     -2.417417     30.560501     30.560501     61.121002
     -2.407407     33.030405     33.030405     66.060810
     -2.397397     35.408198     35.408198     70.816395
     -2.387387     37.840487     37.840487     75.680974
     -2.377377     40.282090     40.282090     80.564180
     -2.367367     42.395311     42.395311     84.790621
     -2.357357     43.605877     43.605877     87.211754
     -2.347347     43.304767     43.304767     86.609535
     -2.337337     41.111835     41.111835     82.223670
     -2.327327     37.082066     37.082066     74.164133
     -2.317317     31.758639     31.758639     63.517277
     -2.307307     26.048060     26.048060     52.096120
     -2.297297     20.972986     20.972986     41.945972
     -2.287287     17.404417     17.404417     34.808834
     -2.277277     15.867282     15.867282     31.734565
     -2.267267     16.466802     16.466802     32.933605
     -2.257257     18.930643     18.930643     37.861287
     -2.247247     22.728572     22.728572     45.457143
     -2.237237     27.220768     27.220768     54.441536
     -2.227227     31.789573     31.789573     63.579146
     -2.217217     35.921499     35.921499     71.842998
     -2.207207     39.227798     39.227798     78.455597
     -2.197197     41.420954     41.420954     82.841907
     -2.187187     42.288051     42.288051     84.576102
     -2.177177     41.701378     41.701378     83.402757
     -2.167167     39.674628     39.674628     79.349255
     -2.157157     36.427191     36.427191     72.854382
     -2.147147     32.393713     32.393713     64.787426
     -2.137137     28.137078     28.137078     56.274156
     -2.127127     24.182880     24.182880     48.365760
     -2.117117     20.851729     20.851729     41.703457
     -2.107107     18.178313     18.178313     36.356627
     -2.097097     15.960127     15.960127     31.920254
     -2.087087     13.904367     13.904367     27.808734
     -2.077077     11.789152     11.789152     23.578304
     -2.067067      9.557371      9.557371     19.114743
     -2.057057      7.310720      7.310720     14.621440
     -2.047047      5.230204      5.230204     10.460409
     -2.037037      3.480548      3.480548      6.961096
     -2.027027      2.147818      2.147818      4.295636
     -2.017017      1.227868      1.227868      2.455735
     -2.007007      0.653211      0.653211      1.306423
     -1.996997      0.333602      0.333602      0.667203
     -1.986987      0.190621      0.190621      0.381242
     -1.976977      0.178847      0.178847      0.357694
     -1.966967      0.295520      0.295520      0.591039
     -1.956957      0.582913      0.582913      1.165826
     -1.946947      1.124271      1.124271      2.248541
     -1.936937      2.029728      2.029728      4.059456
     -1.926927      3.407772      3.407772      6.815543
     -1.916917      5.323070      5.323070     10.646140
     -1.906907      7.751285      7.751285     15.502570
     -1.896897     10.549695     10.549695     21.099390
     -1.886887     13.461805     13.461805     26.923610
     -1.876877     16.162196     16.162196     32.324392
     -1.866867     18.330539     18.330539     36.661077
     -1.856857     19.731247     19.731247     39.462493
     -1.846847     20.273753     20.273753     40.547505
     -1.836837     20.035245     20.035245     40.070491
     -1.826827     19.236747     19.236747     38.473495
     -1.816817     18.173397     18.173397     36.346793
     -1.806807     17.114464     17.114464     34.228928
     -1.796797     16.206988     16.206988     32.413975
     -1.786787     15.426700     15.426700     30.853400
     -1.776777     14.606078     14.606078     29.212157
     -1.766767     13.531750     13.531750     27.063500
     -1.756757     12.063780     12.063780     24.127561
     -1.746747     10.216267     10.216267     20.432534
     -1.736737      8.163286      8.163286     16.326571
     -1.726727      6.179388      6.179388     12.358775
     -1.716717      4.557710      4.557710      9.115421
     -1.706707      3.550062      3.550062      7.100124
     -1.696697      3.345834      3.345834      6.691669
     -1.686687      4.073118      4.073118      8.146236
     -1.676677      5.789689      5.789689     11.579379
     -1.666667      8.443548      8.443548     16.887096
     -1.656657     11.814254     11.814254     23.628509
     -1.646647     15.476745     15.476745     30.953491
     -1.636637     18.836095     18.836095     37.672191
     -1.626627     21.254122     21.254122     42.508244
