# EIG2DOS: Utility for SIESTA to obtain the electronic density of states
#  E. Artacho, Apr 1999, A. Garcia, Apr 2012
#  Nick R. Papior, Feb 2017
# ------------------------------------------
# Eigenvalues calculated from a non-polarized calculation
# Eigenvalues read from siesta.EIG
# Kpoint weights read from siesta.KP
# Using smearing parameter:   0.0500
# Using 1000 points in the energy range
# Selected bands: 1 to: 2981
# Emin, Emax in file for selected band(s):    -27.0866860    218.3302700
# Nbands, Nspin, Nk   =   2981     1     1
# E_F                 =    -4.2747 eV --> (shifted to ZERO)
# Broadening          =     0.0500 eV
#
#        E            N(up)  (=)   N(down)         Ntot
     -5.000000     45.232167     45.232167     90.464334
     -4.989990     46.784113     46.784113     93.568226
     -4.979980     47.314945     47.314945     94.629891
     -4.969970     46.835019     46.835019     93.670038
     -4.959960     45.389827     45.389827     90.779654
     -4.949950     43.085103     43.085103     86.170206
     -4.939940     40.121455     40.121455     80.242910
     -4.929930     36.821638     36.821638     73.643277
     -4.919920     33.640125     33.640125     67.280250
     -4.909910     31.146229     31.146229     62.292458
     -4.899900     29.965069     29.965069     59.930139
     -4.889890     30.656576     30.656576     61.313152
     -4.879880     33.531233     33.531233     67.062466
     -4.869870     38.448731     38.448731     76.897463
     -4.859860     44.697022     44.697022     89.394043
     -4.849850     51.057346     51.057346    102.114691
     -4.839840     56.094367     56.094367    112.188735
     -4.829830     58.591166     58.591166    117.182331
     -4.819820     57.949137     57.949137    115.898274
     -4.809810     54.367365     54.367365    108.734730
     -4.799800     48.720806     48.720806     97.441612
     -4.789790     42.209705     42.209705     84.419411
     -4.779780     35.956753     35.956753     71.913507
     -4.769770     30.723909     30.723909     61.447819
     -4.759760     26.826445     26.826445     53.652890
     -4.749750     24.211731     24.211731     48.423463
     -4.739740     22.611423     22.611423     45.222846
     -4.729730     21.682914     21.682914     43.365827
     -4.719720     21.098781     21.098781     42.197562
     -4.709710     20.583928     20.583928     41.167855
     -4.699700     19.922540     19.922540     39.845079
     -4.689690     18.962523     18.962523     37.925047
     -4.679680     17.638172     17.638172     35.276344
     -4.669670     16.014272     16.014272     32.028544
     -4.659660     14.332628     14.332628     28.665257
     -4.649650     13.027360     13.027360     26.054720
     -4.639640     12.678235     12.678235     25.356470
     -4.629630     13.890713     13.890713     27.781426
     -4.619620     17.118250     17.118250     34.236501
     -4.609610     22.469363     22.469363     44.938726
     -4.599600     29.564302     29.564302     59.128604
     -4.589590     37.514570     37.514570     75.029141
     -4.579580     45.076458     45.076458     90.152916
     -4.569570     50.968587     50.968587    101.937173
     -4.559560     54.261625     54.261625    108.523251
     -4.549550     54.691234     54.691234    109.382468
     -4.539540     52.756349     52.756349    105.512698
     -4.529530     49.550083     49.550083     99.100166
     -4.519520     46.387829     46.387829     92.775659
     -4.509510     44.382980     44.382980     88.765960
     -4.499499     44.131068     44.131068     88.262136
     -4.489489     45.599586     45.599586     91.199171
     -4.479479     48.224232     48.224232     96.448464
     -4.469469     51.135330     51.135330    102.270659
     -4.459459     53.413447     53.413447    106.826894
     -4.449449     54.299038     54.299038    108.598077
     -4.439439     53.327878     53.327878    106.655755
     -4.429429     50.398569     50.398569    100.797137
     -4.419419     45.785012     45.785012     91.570023
     -4.409409     40.094426     40.094426     80.188852
     -4.399399     34.162287     34.162287     68.324574
     -4.389389     28.885202     28.885202     57.770403
     -4.379379     25.019708     25.019708     50.039416
     -4.369369     23.002337     23.002337     46.004673
     -4.359359     22.853798     22.853798     45.707597
     -4.349349     24.207631     24.207631     48.415262
     -4.339339     26.457570     26.457570     52.915141
     -4.329329     28.969433     28.969433     57.938865
     -4.319319     31.277178     31.277178     62.554356
     -4.309309     33.193163     33.193163     66.386325
     -4.299299     34.802931     34.802931     69.605862
     -4.289289     36.361871     36.361871     72.723743
     -4.279279     38.140759     38.140759     76.281519
     -4.269269     40.272589     40.272589     80.545179
     -4.259259     42.645341     42.645341     85.290682
     -4.249249     44.877127     44.877127     89.754254
     -4.239239     46.398630     46.398630     92.797259
     -4.229229     46.637961     46.637961     93.275922
     -4.219219     45.252225     45.252225     90.504449
     -4.209209     42.304999     42.304999     84.609998
     -4.199199     38.291460     38.291460     76.582920
     -4.189189     33.980014     33.980014     67.960028
     -4.179179     30.138049     30.138049     60.276099
     -4.169169     27.275367     27.275367     54.550734
     -4.159159     25.526883     25.526883     51.053766
     -4.149149     24.715750     24.715750     49.431500
     -4.139139     24.542543     24.542543     49.085085
     -4.129129     24.789783     24.789783     49.579565
     -4.119119     25.435128     25.435128     50.870256
     -4.109109     26.618503     26.618503     53.237007
     -4.099099     28.481660     28.481660     56.963320
     -4.089089     30.965562     30.965562     61.931124
     -4.079079     33.683921     33.683921     67.367843
     -4.069069     35.966472     35.966472     71.932944
     -4.059059     37.081848     37.081848     74.163696
     -4.049049     36.544989     36.544989     73.089979
     -4.039039     34.352462     34.352462     68.704924
     -4.029029     31.018289     31.018289     62.036578
     -4.019019     27.391644     27.391644     54.783289
     -4.009009     24.357237     24.357237     48.714474
     -3.998999     22.572024     22.572024     45.144047
     -3.988989     22.348925     22.348925     44.697849
     -3.978979     23.697430     23.697430     47.394860
     -3.968969     26.445084     26.445084     52.890168
     -3.958959     30.345429     30.345429     60.690858
     -3.948949     35.125204     35.125204     70.250407
     -3.938939     40.488513     40.488513     80.977027
     -3.928929     46.125686     46.125686     92.251371
     -3.918919     51.752205     51.752205    103.504410
     -3.908909     57.155736     57.155736    114.311472
     -3.898899     62.202234     62.202234    124.404469
     -3.888889     66.771392     66.771392    133.542784
     -3.878879     70.644647     70.644647    141.289294
     -3.868869     73.416818     73.416818    146.833637
     -3.858859     74.508843     74.508843    149.017686
     -3.848849     73.314388     73.314388    146.628777
     -3.838839     69.439402     69.439402    138.878804
     -3.828829     62.932278     62.932278    125.864556
     -3.818819     54.390635     54.390635    108.781270
     -3.808809     44.879349     44.879349     89.758698
     -3.798799     35.678945     35.678945     71.357889
     -3.788789     27.957700     27.957700     55.915400
     -3.778779     22.486809     22.486809     44.973617
     -3.768769     19.488846     19.488846     38.977692
     -3.758759     18.649953     18.649953     37.299906
     -3.748749     19.269694     19.269694     38.539387
     -3.738739     20.490572     20.490572     40.981145
     -3.728729     21.542445     21.542445     43.084890
     -3.718719     21.944929     21.944929     43.889857
     -3.708709     21.623988     21.623988     43.247976
     -3.698699     20.914848     20.914848     41.829696
     -3.688689     20.444894     20.444894     40.889789
     -3.678679     20.919339     20.919339     41.838678
     -3.668669     22.865447     22.865447     45.730894
     -3.658659     26.416404     26.416404     52.832809
     -3.648649     31.216669     31.216669     62.433339
     -3.638639     36.495173     36.495173     72.990347
     -3.628629     41.287273     41.287273     82.574545
     -3.618619     44.720183     44.720183     89.440366
     -3.608609     46.248435     46.248435     92.496870
     -3.598599     45.755802     45.755802     91.511605
     -3.588589     43.510324     43.510324     87.020648
     -3.578579     40.023689     40.023689     80.047378
     -3.568569     35.887620     35.887620     71.775240
     -3.558559     31.637638     31.637638     63.275275
     -3.548549     27.660662     27.660662     55.321324
     -3.538539     24.147407     24.147407     48.294815
     -3.528529     21.094459     21.094459     42.188919
     -3.518519     18.362046     18.362046     36.724093
     -3.508509     15.776033     15.776033     31.552067
     -3.498498     13.236427     13.236427     26.472853
     -3.488488     10.784598     10.784598     21.569196
     -3.478478      8.600383      8.600383     17.200765
     -3.468468      6.935675      6.935675     13.871350
     -3.458458      6.018162      6.018162     12.036324
     -3.448448      5.963284      5.963284     11.926569
     -3.438438      6.720709      6.720709     13.441418
     -3.428428      8.068526      8.068526     16.137052
     -3.418418      9.660416      9.660416     19.320831
     -3.408408     11.121820     11.121820     22.243640
     -3.398398     12.173587     12.173587     24.347173
     -3.388388     12.741197     12.741197     25.482394
     -3.378378     13.001477     13.001477     26.002954
     -3.368368     13.339006     13.339006     26.678013
     -3.358358     14.224100     14.224100     28.448200
     -3.348348     16.058873     16.058873     32.117746
     -3.338338     19.045125     19.045125     38.090251
     -3.328328     23.106718     23.106718     46.213436
     -3.318318     27.871243     27.871243     55.742487
     -3.308308     32.704888     32.704888     65.409776
     -3.298298     36.802934     36.802934     73.605868
     -3.288288     39.343949     39.343949     78.687899
     -3.278278     39.694541     39.694541     79.389082
     -3.268268     37.607844     37.607844     75.215687
     -3.258258     33.329251     33.329251     66.658503
     -3.248248     27.544502     27.544502     55.089004
     -3.238238     21.177231     21.177231     42.354462
     -3.228228     15.120554     15.120554     30.241109
     -3.218218     10.016891     10.016891     20.033782
     -3.208208      6.164859      6.164859     12.329718
     -3.198198      3.561308      3.561308      7.122616
     -3.188188      2.028250      2.028250      4.056501
     -3.178178      1.356942      1.356942      2.713885
     -3.168168      1.419056      1.419056      2.838112
     -3.158158      2.223009      2.223009      4.446018
     -3.148148      3.911855      3.911855      7.823709
     -3.138138      6.705142      6.705142     13.410284
     -3.128128     10.791764     10.791764     21.583528
     -3.118118     16.195111     16.195111     32.390222
     -3.108108     22.654525     22.654525     45.309050
     -3.098098     29.582370     29.582370     59.164741
     -3.088088     36.143844     36.143844     72.287689
     -3.078078     41.459494     41.459494     82.918988
     -3.068068     44.865400     44.865400     89.730799
     -3.058058     46.120057     46.120057     92.240113
     -3.048048     45.455061     45.455061     90.910123
     -3.038038     43.435967     43.435967     86.871935
     -3.028028     40.698027     40.698027     81.396054
     -3.018018     37.692010     37.692010     75.384019
     -3.008008     34.571094     34.571094     69.142189
     -2.997998     31.268534     31.268534     62.537069
     -2.987988     27.705845     27.705845     55.411691
     -2.977978     24.001373     24.001373     48.002747
     -2.967968     20.559655     20.559655     41.119311
     -2.957958     17.997791     17.997791     35.995582
     -2.947948     16.951390     16.951390     33.902781
     -2.937938     17.849943     17.849943     35.699886
     -2.927928     20.747565     20.747565     41.495129
     -2.917918     25.261643     25.261643     50.523286
     -2.907908     30.635215     30.635215     61.270431
     -2.897898     35.908542     35.908542     71.817084
     -2.887888     40.157426     40.157426     80.314851
     -2.877878     42.730231     42.730231     85.460462
     -2.867868     43.404646     43.404646     86.809293
     -2.857858     42.404473     42.404473     84.808945
     -2.847848     40.267592     40.267592     80.535184
     -2.837838     37.618987     37.618987     75.237973
     -2.827828     34.945341     34.945341     69.890683
     -2.817818     32.465751     32.465751     64.931503
     -2.807808     30.144810     30.144810     60.289621
     -2.797798     27.823582     27.823582     55.647163
     -2.787788     25.387523     25.387523     50.775047
     -2.777778     22.878104     22.878104     45.756207
     -2.767768     20.492857     20.492857     40.985714
     -2.757758     18.485477     18.485477     36.970955
     -2.747748     17.035221     17.035221     34.070442
     -2.737738     16.169797     16.169797     32.339594
     -2.727728     15.788801     15.788801     31.577603
     -2.717718     15.767785     15.767785     31.535570
     -2.707708     16.068362     16.068362     32.136724
     -2.697698     16.773910     16.773910     33.547821
     -2.687688     18.019698     18.019698     36.039395
     -2.677678     19.859994     19.859994     39.719988
     -2.667668     22.163473     22.163473     44.326945
     -2.657658     24.616216     24.616216     49.232433
     -2.647648     26.843259     26.843259     53.686518
     -2.637638     28.579243     28.579243     57.158487
     -2.627628     29.782646     29.782646     59.565292
     -2.617618     30.623555     30.623555     61.247109
     -2.607608     31.358314     31.358314     62.716628
     -2.597598     32.175235     32.175235     64.350469
     -2.587588     33.103103     33.103103     66.206206
     -2.577578     34.017822     34.017822     68.035644
     -2.567568     34.711881     34.711881     69.423763
     -2.557558     34.963704     34.963704     69.927408
     -2.547548     34.574305     34.574305     69.148610
     -2.537538     33.389623     33.389623     66.779245
     -2.527528     31.345722     31.345722     62.691444
     -2.517518     28.542966     28.542966     57.085931
     -2.507508     25.305878     25.305878     50.611757
     -2.497497     22.166988     22.166988     44.333976
     -2.487487     19.746605     19.746605     39.493209
     -2.477477     18.563341     18.563341     37.126682
     -2.467467     18.857549     18.857549     37.715098
     -2.457457     20.511401     20.511401     41.022802
     -2.447447     23.106043     23.106043     46.212085
     -2.437437     26.092852     26.092852     52.185704
     -2.427427     29.003324     29.003324     58.006649
     -2.417417     31.603603     31.603603     63.207206
     -2.407407     33.923620     33.923620     67.847240
     -2.397397     36.147770     36.147770     72.295541
     -2.387387     38.419599     38.419599     76.839198
     -2.377377     40.657423     40.657423     81.314845
     -2.367367     42.479184     42.479184     84.958369
     -2.357357     43.288998     43.288998     86.577997
     -2.347347     42.501869     42.501869     85.003737
     -2.337337     39.811454     39.811454     79.622909
     -2.327327     35.376964     35.376964     70.753928
     -2.317317     29.839481     29.839481     59.678963
     -2.307307     24.159573     24.159573     48.319146
     -2.297297     19.350452     19.350452     38.700905
     -2.287287     16.217719     16.217719     32.435438
     -2.277277     15.193959     15.193959     30.387917
     -2.267267     16.299263     16.299263     32.598526
     -2.257257     19.206204     19.206204     38.412409
     -2.247247     23.362861     23.362861     46.725722
     -2.237237     28.127676     28.127676     56.255351
     -2.227227     32.881253     32.881253     65.762507
     -2.217217     37.094540     37.094540     74.189079
     -2.207207     40.350684     40.350684     80.701369
     -2.197197     42.338652     42.338652     84.677304
     -2.187187     42.850564     42.850564     85.701128
     -2.177177     41.808260     41.808260     83.616520
     -2.167167     39.314817     39.314817     78.629634
     -2.157157     35.691264     35.691264     71.382529
     -2.147147     31.446966     31.446966     62.893933
     -2.137137     27.161717     27.161717     54.323434
     -2.127127     23.314911     23.314911     46.629821
     -2.117117     20.142086     20.142086     40.284172
     -2.107107     17.595044     17.595044     35.190089
     -2.097097     15.426371     15.426371     30.852742
     -2.087087     13.348890     13.348890     26.697781
     -2.077077     11.182833     11.182833     22.365667
     -2.067067      8.920839      8.920839     17.841677
     -2.057057      6.696188      6.696188     13.392376
     -2.047047      4.692938      4.692938      9.385875
     -2.037037      3.056343      3.056343      6.112685
     -2.027027      1.844936      1.844936      3.689873
     -2.017017      1.032148      1.032148      2.064296
     -2.007007      0.539559      0.539559      1.079118
     -1.996997      0.277163      0.277163      0.554327
     -1.986987      0.174251      0.174251      0.348502
     -1.976977      0.196755      0.196755      0.393511
     -1.966967      0.354373      0.354373      0.708747
     -1.956957      0.701109      0.701109      1.402218
     -1.946947      1.328732      1.328732      2.657464
     -1.936937      2.348866      2.348866      4.697731
     -1.926927      3.860259      3.860259      7.720518
     -1.916917      5.904802      5.904802     11.809604
     -1.906907      8.425875      8.425875     16.851749
     -1.896897     11.248658     11.248658     22.497317
     -1.886887     14.097524     14.097524     28.195048
     -1.876877     16.650811     16.650811     33.301622
     -1.866867     18.616540     18.616540     37.233080
     -1.856857     19.804211     19.804211     39.608422
     -1.846847     20.171006     20.171006     40.342011
     -1.836837     19.829742     19.829742     39.659483
     -1.826827     19.014225     19.014225     38.028451
     -1.816817     18.006132     18.006132     36.012264
     -1.806807     17.041389     17.041389     34.082779
     -1.796797     16.231051     16.231051     32.462101
     -1.786787     15.537405     15.537405     31.074809
     -1.776777     14.826196     14.826196     29.652392
     -1.766767     13.974152     13.974152     27.948304
     -1.756757     12.973288     12.973288     25.946575
     -1.746747     11.968631     11.968631     23.937262
     -1.736737     11.202002     11.202002     22.404005
     -1.726727     10.890058     10.890058     21.780115
     -1.716717     11.105091     11.105091     22.210182
     -1.706707     11.727291     11.727291     23.454581
     -1.696697     12.497377     12.497377     24.994754
     -1.686687     13.141641     13.141641     26.283283
     -1.676677     13.499482     13.499482     26.998964
     -1.666667     13.581211     13.581211     27.162422
     -1.656657     13.524261     13.524261     27.048523
     -1.646647     13.476717     13.476717     26.953434
     -1.636637     13.481569     13.481569     26.963139
     -1.626627     13.434863     13.434863     26.869727
