# EIG2DOS: Utility for SIESTA to obtain the electronic density of states
#  E. Artacho, Apr 1999, A. Garcia, Apr 2012
#  Nick R. Papior, Feb 2017
# ------------------------------------------
# Eigenvalues calculated from a non-polarized calculation
# Eigenvalues read from siesta.EIG
# Kpoint weights read from siesta.KP
# Using smearing parameter:   0.0500
# Using 1000 points in the energy range
# Selected bands: 1 to: 2981
# Emin, Emax in file for selected band(s):    -27.3605396    218.3841160
# Nbands, Nspin, Nk   =   2981     1     1
# E_F                 =    -4.2212 eV --> (shifted to ZERO)
# Broadening          =     0.0500 eV
#
#        E            N(up)  (=)   N(down)         Ntot
     -5.000000     36.798472     36.798472     73.596944
     -4.989990     40.551176     40.551176     81.102352
     -4.979980     43.281906     43.281906     86.563812
     -4.969970     44.561444     44.561444     89.122887
     -4.959960     44.204514     44.204514     88.409028
     -4.949950     42.329756     42.329756     84.659511
     -4.939940     39.336987     39.336987     78.673973
     -4.929930     35.829807     35.829807     71.659614
     -4.919920     32.523324     32.523324     65.046648
     -4.909910     30.156671     30.156671     60.313343
     -4.899900     29.397891     29.397891     58.795781
     -4.889890     30.716073     30.716073     61.432145
     -4.879880     34.221772     34.221772     68.443545
     -4.869870     39.529401     39.529401     79.058801
     -4.859860     45.732781     45.732781     91.465563
     -4.849850     51.565315     51.565315    103.130629
     -4.839840     55.733794     55.733794    111.467588
     -4.829830     57.313883     57.313883    114.627766
     -4.819820     56.042385     56.042385    112.084770
     -4.809810     52.377832     52.377832    104.755663
     -4.799800     47.309285     47.309285     94.618571
     -4.789790     42.008209     42.008209     84.016419
     -4.779780     37.473474     37.473474     74.946947
     -4.769770     34.293500     34.293500     68.586999
     -4.759760     32.574669     32.574669     65.149339
     -4.749750     32.014679     32.014679     64.029358
     -4.739740     32.064780     32.064780     64.129560
     -4.729730     32.120990     32.120990     64.241979
     -4.719720     31.691744     31.691744     63.383488
     -4.709710     30.501033     30.501033     61.002067
     -4.699700     28.509083     28.509083     57.018166
     -4.689690     25.867718     25.867718     51.735436
     -4.679680     22.855960     22.855960     45.711920
     -4.669670     19.839790     19.839790     39.679579
     -4.659660     17.266111     17.266111     34.532221
     -4.649650     15.659783     15.659783     31.319567
     -4.639640     15.575591     15.575591     31.151182
     -4.629630     17.477287     17.477287     34.954575
     -4.619620     21.561905     21.561905     43.123811
     -4.609610     27.594450     27.594450     55.188899
     -4.599600     34.840945     34.840945     69.681891
     -4.589590     42.168880     42.168880     84.337760
     -4.579580     48.321230     48.321230     96.642461
     -4.569570     52.285746     52.285746    104.571492
     -4.559560     53.618853     53.618853    107.237707
     -4.549550     52.585075     52.585075    105.170149
     -4.539540     50.046180     50.046180    100.092361
     -4.529530     47.143200     47.143200     94.286400
     -4.519520     44.901115     44.901115     89.802230
     -4.509510     43.908875     43.908875     87.817750
     -4.499499     44.182915     44.182915     88.365830
     -4.489489     45.239824     45.239824     90.479648
     -4.479479     46.323285     46.323285     92.646571
     -4.469469     46.683172     46.683172     93.366344
     -4.459459     45.803567     45.803567     91.607134
     -4.449449     43.515018     43.515018     87.030035
     -4.439439     39.983284     39.983284     79.966568
     -4.429429     35.615272     35.615272     71.230544
     -4.419419     30.941698     30.941698     61.883396
     -4.409409     26.520556     26.520556     53.041112
     -4.399399     22.870525     22.870525     45.741049
     -4.389389     20.415742     20.415742     40.831485
     -4.379379     19.423127     19.423127     38.846254
     -4.369369     19.938855     19.938855     39.877710
     -4.359359     21.758083     21.758083     43.516167
     -4.349349     24.464464     24.464464     48.928928
     -4.339339     27.545763     27.545763     55.091527
     -4.329329     30.547864     30.547864     61.095727
     -4.319319     33.202698     33.202698     66.405396
     -4.309309     35.475241     35.475241     70.950482
     -4.299299     37.513350     37.513350     75.026701
     -4.289289     39.526484     39.526484     79.052968
     -4.279279     41.642958     41.642958     83.285916
     -4.269269     43.797038     43.797038     87.594077
     -4.259259     45.687146     45.687146     91.374293
     -4.249249     46.831297     46.831297     93.662594
     -4.239239     46.720110     46.720110     93.440220
     -4.229229     45.026315     45.026315     90.052629
     -4.219219     41.787092     41.787092     83.574184
     -4.209209     37.464539     37.464539     74.929078
     -4.199199     32.833504     32.833504     65.667009
     -4.189189     28.730954     28.730954     57.461907
     -4.179179     25.777429     25.777429     51.554858
     -4.169169     24.199457     24.199457     48.398914
     -4.159159     23.829591     23.829591     47.659183
     -4.149149     24.270253     24.270253     48.540507
     -4.139139     25.129470     25.129470     50.258939
     -4.129129     26.207820     26.207820     52.415640
     -4.119119     27.544557     27.544557     55.089115
     -4.109109     29.301532     29.301532     58.603065
     -4.099099     31.547304     31.547304     63.094608
     -4.089089     34.064279     34.064279     68.128557
     -4.079079     36.303798     36.303798     72.607597
     -4.069069     37.544132     37.544132     75.088263
     -4.059059     37.192288     37.192288     74.384576
     -4.049049     35.078133     35.078133     70.156265
     -4.039039     31.581708     31.581708     63.163416
     -4.029029     27.523651     27.523651     55.047302
     -4.019019     23.879210     23.879210     47.758420
     -4.009009     21.464838     21.464838     42.929676
     -3.998999     20.740873     20.740873     41.481745
     -3.988989     21.788800     21.788800     43.577600
     -3.978979     24.420608     24.420608     48.841217
     -3.968969     28.324483     28.324483     56.648966
     -3.958959     33.167565     33.167565     66.335129
     -3.948949     38.635134     38.635134     77.270268
     -3.938939     44.435729     44.435729     88.871458
     -3.928929     50.308759     50.308759    100.617517
     -3.918919     56.040390     56.040390    112.080779
     -3.908909     61.461443     61.461443    122.922885
     -3.898899     66.401699     66.401699    132.803398
     -3.888889     70.610585     70.610585    141.221171
     -3.878879     73.694333     73.694333    147.388666
     -3.868869     75.129095     75.129095    150.258189
     -3.858859     74.376638     74.376638    148.753277
     -3.848849     71.073415     71.073415    142.146831
     -3.838839     65.218430     65.218430    130.436859
     -3.828829     57.275589     57.275589    114.551177
     -3.818819     48.136302     48.136302     96.272603
     -3.808809     38.942687     38.942687     77.885375
     -3.798799     30.825630     30.825630     61.651260
     -3.788789     24.642228     24.642228     49.284456
     -3.778779     20.793484     20.793484     41.586969
     -3.768769     19.171088     19.171088     38.342176
     -3.758759     19.238539     19.238539     38.477079
     -3.748749     20.214195     20.214195     40.428391
     -3.738739     21.301905     21.301905     42.603810
     -3.728729     21.909535     21.909535     43.819070
     -3.718719     21.802665     21.802665     43.605330
     -3.708709     21.155871     21.155871     42.311742
     -3.698699     20.485602     20.485602     40.971203
     -3.688689     20.476249     20.476249     40.952498
     -3.678679     21.742160     21.742160     43.484320
     -3.668669     24.595253     24.595253     49.190506
     -3.658659     28.897624     28.897624     57.795248
     -3.648649     34.058867     34.058867     68.117733
     -3.638639     39.187933     39.187933     78.375865
     -3.628629     43.346878     43.346878     86.693756
     -3.618619     45.810287     45.810287     91.620573
     -3.608609     46.235882     46.235882     92.471764
     -3.598599     44.698999     44.698999     89.397999
     -3.588589     41.606679     41.606679     83.213358
     -3.578579     37.547839     37.547839     75.095677
     -3.568569     33.137148     33.137148     66.274296
     -3.558559     28.886603     28.886603     57.773207
     -3.548549     25.118743     25.118743     50.237487
     -3.538539     21.932038     21.932038     43.864076
     -3.528529     19.230298     19.230298     38.460596
     -3.518519     16.815232     16.815232     33.630465
     -3.508509     14.513436     14.513436     29.026872
     -3.498498     12.286398     12.286398     24.572795
     -3.488488     10.275905     10.275905     20.551809
     -3.478478      8.767727      8.767727     17.535454
     -3.468468      8.092765      8.092765     16.185529
     -3.458458      8.504972      8.504972     17.009945
     -3.448448     10.074823     10.074823     20.149646
     -3.438438     12.627302     12.627302     25.254604
     -3.428428     15.745252     15.745252     31.490505
     -3.418418     18.850171     18.850171     37.700342
     -3.408408     21.353603     21.353603     42.707206
     -3.398398     22.841557     22.841557     45.683115
     -3.388388     23.227001     23.227001     46.454003
     -3.378378     22.803817     22.803817     45.607634
     -3.368368     22.169304     22.169304     44.338608
     -3.358358     22.036895     22.036895     44.073791
     -3.348348     23.005834     23.005834     46.011667
     -3.338338     25.366255     25.366255     50.732510
     -3.328328     28.996403     28.996403     57.992805
     -3.318318     33.373863     33.373863     66.747726
     -3.308308     37.694668     37.694668     75.389336
     -3.298298     41.074943     41.074943     82.149887
     -3.288288     42.788736     42.788736     85.577472
     -3.278278     42.471161     42.471161     84.942323
     -3.268268     40.208301     40.208301     80.416602
     -3.258258     36.469257     36.469257     72.938514
     -3.248248     31.908149     31.908149     63.816299
     -3.238238     27.132353     27.132353     54.264707
     -3.228228     22.547190     22.547190     45.094381
     -3.218218     18.333418     18.333418     36.666835
     -3.208208     14.531501     14.531501     29.063001
     -3.198198     11.154780     11.154780     22.309560
     -3.188188      8.261885      8.261885     16.523769
     -3.178178      5.967917      5.967917     11.935833
     -3.168168      4.419418      4.419418      8.838836
     -3.158158      3.768938      3.768938      7.537876
     -3.148148      4.163418      4.163418      8.326835
     -3.138138      5.732030      5.732030     11.464061
     -3.128128      8.548806      8.548806     17.097613
     -3.118118     12.561716     12.561716     25.123431
     -3.108108     17.512176     17.512176     35.024352
     -3.098098     22.894958     22.894958     45.789917
     -3.088088     28.006830     28.006830     56.013659
     -3.078078     32.095571     32.095571     64.191142
     -3.068068     34.564541     34.564541     69.129083
     -3.058058     35.145460     35.145460     70.290921
     -3.048048     33.955915     33.955915     67.911830
     -3.038038     31.413947     31.413947     62.827894
     -3.028028     28.058901     28.058901     56.117803
     -3.018018     24.375984     24.375984     48.751968
     -3.008008     20.709587     20.709587     41.419174
     -2.997998     17.287980     17.287980     34.575959
     -2.987988     14.314206     14.314206     28.628413
     -2.977978     12.048292     12.048292     24.096584
     -2.967968     10.824793     10.824793     21.649587
     -2.957958     10.993935     10.993935     21.987869
     -2.947948     12.812270     12.812270     25.624540
     -2.937938     16.324961     16.324961     32.649922
     -2.927928     21.281431     21.281431     42.562861
     -2.917918     27.119125     27.119125     54.238251
     -2.907908     33.037532     33.037532     66.075064
     -2.897898     38.160755     38.160755     76.321509
     -2.887888     41.751862     41.751862     83.503725
     -2.877878     43.409491     43.409491     86.818982
     -2.867868     43.168333     43.168333     86.336665
     -2.857858     41.454118     41.454118     82.908236
     -2.847848     38.903768     38.903768     77.807536
     -2.837838     36.124663     36.124663     72.249327
     -2.827828     33.498412     33.498412     66.996825
     -2.817818     31.113241     31.113241     62.226482
     -2.807808     28.843322     28.843322     57.686644
     -2.797798     26.518082     26.518082     53.036164
     -2.787788     24.081932     24.081932     48.163865
     -2.777778     21.658767     21.658767     43.317534
     -2.767768     19.496828     19.496828     38.993656
     -2.757758     17.841105     17.841105     35.682210
     -2.747748     16.819629     16.819629     33.639259
     -2.737738     16.413671     16.413671     32.827343
     -2.727728     16.521201     16.521201     33.042401
     -2.717718     17.057839     17.057839     34.115679
     -2.707708     18.014322     18.014322     36.028645
     -2.697698     19.423247     19.423247     38.846493
     -2.687688     21.258825     21.258825     42.517651
     -2.677678     23.350674     23.350674     46.701349
     -2.667668     25.391690     25.391690     50.783379
     -2.657658     27.056592     27.056592     54.113185
     -2.647648     28.165080     28.165080     56.330160
     -2.637638     28.783035     28.783035     57.566071
     -2.627628     29.189897     29.189897     58.379795
     -2.617618     29.727202     29.727202     59.454404
     -2.607608     30.619325     30.619325     61.238651
     -2.597598     31.868028     31.868028     63.736057
     -2.587588     33.264276     33.264276     66.528553
     -2.577578     34.483280     34.483280     68.966559
     -2.567568     35.191130     35.191130     70.382260
     -2.557558     35.114473     35.114473     70.228945
     -2.547548     34.076634     34.076634     68.153268
     -2.537538     32.033085     32.033085     64.066171
     -2.527528     29.121844     29.121844     58.243688
     -2.517518     25.702368     25.702368     51.404736
     -2.507508     22.333557     22.333557     44.667114
     -2.497497     19.662508     19.662508     39.325017
     -2.487487     18.247004     18.247004     36.494008
     -2.477477     18.379661     18.379661     36.759321
     -2.467467     19.991002     19.991002     39.982005
     -2.457457     22.678251     22.678251     45.356502
     -2.447447     25.853454     25.853454     51.706908
     -2.437437     28.953417     28.953417     57.906834
     -2.427427     31.625976     31.625976     63.251952
     -2.417417     33.814141     33.814141     67.628283
     -2.407407     35.700362     35.700362     71.400723
     -2.397397     37.532918     37.532918     75.065836
     -2.387387     39.411946     39.411946     78.823892
     -2.377377     41.139358     41.139358     82.278715
     -2.367367     42.218179     42.218179     84.436358
     -2.357357     42.022347     42.022347     84.044694
     -2.347347     40.072178     40.072178     80.144356
     -2.337337     36.288361     36.288361     72.576722
     -2.327327     31.099748     31.099748     62.199496
     -2.317317     25.352501     25.352501     50.705002
     -2.307307     20.068129     20.068129     40.136258
     -2.297297     16.163751     16.163751     32.327502
     -2.287287     14.244412     14.244412     28.488825
     -2.277277     14.519713     14.519713     29.039426
     -2.267267     16.831926     16.831926     33.663852
     -2.257257     20.748171     20.748171     41.496341
     -2.247247     25.670611     25.670611     51.341222
     -2.237237     30.937472     30.937472     61.874945
     -2.227227     35.904327     35.904327     71.808654
     -2.217217     40.003781     40.003781     80.007561
     -2.207207     42.786982     42.786982     85.573965
     -2.197197     43.955594     43.955594     87.911187
     -2.187187     43.393904     43.393904     86.787808
     -2.177177     41.200987     41.200987     82.401974
     -2.167167     37.704073     37.704073     75.408145
     -2.157157     33.421832     33.421832     66.843665
     -2.147147     28.958404     28.958404     57.916809
     -2.137137     24.847920     24.847920     49.695839
     -2.127127     21.411438     21.411438     42.822875
     -2.117117     18.698639     18.698639     37.397277
     -2.107107     16.548733     16.548733     33.097466
     -2.097097     14.738696     14.738696     29.477392
     -2.087087     13.135973     13.135973     26.271946
     -2.077077     11.771861     11.771861     23.543722
     -2.067067     10.800579     10.800579     21.601158
     -2.057057     10.375191     10.375191     20.750382
     -2.047047     10.515383     10.515383     21.030767
     -2.037037     11.042016     11.042016     22.084033
     -2.027027     11.614321     11.614321     23.228643
     -2.017017     11.851240     11.851240     23.702480
     -2.007007     11.477036     11.477036     22.954071
     -1.996997     10.422876     10.422876     20.845753
     -1.986987      8.843066      8.843066     17.686132
     -1.976977      7.050188      7.050188     14.100376
     -1.966967      5.410596      5.410596     10.821192
     -1.956957      4.250101      4.250101      8.500203
     -1.946947      3.799232      3.799232      7.598464
     -1.936937      4.176645      4.176645      8.353291
     -1.926927      5.390629      5.390629     10.781257
     -1.916917      7.341770      7.341770     14.683540
     -1.906907      9.826638      9.826638     19.653276
     -1.896897     12.555300     12.555300     25.110600
     -1.886887     15.193136     15.193136     30.386272
     -1.876877     17.422674     17.422674     34.845348
     -1.866867     19.007425     19.007425     38.014850
     -1.856857     19.837594     19.837594     39.675188
     -1.846847     19.945589     19.945589     39.891178
     -1.836837     19.488011     19.488011     38.976023
     -1.826827     18.695390     18.695390     37.390780
     -1.816817     17.796584     17.796584     35.593168
     -1.806807     16.937525     16.937525     33.875051
     -1.796797     16.127883     16.127883     32.255765
     -1.786787     15.247585     15.247585     30.495171
     -1.776777     14.118755     14.118755     28.237510
     -1.766767     12.610154     12.610154     25.220308
     -1.756757     10.718982     10.718982     21.437964
     -1.746747      8.587655      8.587655     17.175310
     -1.736737      6.453041      6.453041     12.906082
     -1.726727      4.563821      4.563821      9.127642
     -1.716717      3.112913      3.112913      6.225826
     -1.706707      2.212907      2.212907      4.425814
     -1.696697      1.910608      1.910608      3.821217
     -1.686687      2.213976      2.213976      4.427953
     -1.676677      3.102636      3.102636      6.205272
     -1.666667      4.509821      4.509821      9.019643
     -1.656657      6.287885      6.287885     12.575770
     -1.646647      8.187585      8.187585     16.375170
     -1.636637      9.881825      9.881825     19.763649
     -1.626627     11.044184     11.044184     22.088369
