# EIG2DOS: Utility for SIESTA to obtain the electronic density of states
#  E. Artacho, Apr 1999, A. Garcia, Apr 2012
#  Nick R. Papior, Feb 2017
# ------------------------------------------
# Eigenvalues calculated from a non-polarized calculation
# Eigenvalues read from siesta.EIG
# Kpoint weights read from siesta.KP
# Using smearing parameter:   0.0500
# Using 1000 points in the energy range
# Selected bands: 1 to: 2981
# Emin, Emax in file for selected band(s):    -27.0966102    218.3378160
# Nbands, Nspin, Nk   =   2981     1     1
# E_F                 =    -4.2703 eV --> (shifted to ZERO)
# Broadening          =     0.0500 eV
#
#        E            N(up)  (=)   N(down)         Ntot
     -5.000000     35.833084     35.833084     71.666168
     -4.989990     38.854394     38.854394     77.708789
     -4.979980     41.308028     41.308028     82.616055
     -4.969970     42.771011     42.771011     85.542022
     -4.959960     42.979455     42.979455     85.958911
     -4.949950     41.890978     41.890978     83.781957
     -4.939940     39.698574     39.698574     79.397147
     -4.929930     36.804270     36.804270     73.608541
     -4.919920     33.771463     33.771463     67.542925
     -4.909910     31.267387     31.267387     62.534774
     -4.899900     29.986889     29.986889     59.973778
     -4.889890     30.533806     30.533806     61.067613
     -4.879880     33.249351     33.249351     66.498701
     -4.869870     38.023355     38.023355     76.046711
     -4.859860     44.177988     44.177988     88.355977
     -4.849850     50.526627     50.526627    101.053254
     -4.839840     55.650704     55.650704    111.301409
     -4.829830     58.323106     58.323106    116.646211
     -4.819820     57.907084     57.907084    115.814169
     -4.809810     54.548157     54.548157    109.096313
     -4.799800     49.072591     49.072591     98.145182
     -4.789790     42.654095     42.654095     85.308189
     -4.779780     36.416619     36.416619     72.833238
     -4.769770     31.144230     31.144230     62.288460
     -4.759760     27.181677     27.181677     54.363354
     -4.749750     24.501106     24.501106     49.002211
     -4.739740     22.848213     22.848213     45.696425
     -4.729730     21.883649     21.883649     43.767298
     -4.719720     21.275778     21.275778     42.551556
     -4.709710     20.742041     20.742041     41.484082
     -4.699700     20.059852     20.059852     40.119705
     -4.689690     19.074142     19.074142     38.148284
     -4.679680     17.721564     17.721564     35.443128
     -4.669670     16.073691     16.073691     32.147381
     -4.659660     14.379795     14.379795     28.759589
     -4.649650     13.076433     13.076433     26.152865
     -4.639640     12.735395     12.735395     25.470789
     -4.629630     13.941997     13.941997     27.883994
     -4.619620     17.122397     17.122397     34.244795
     -4.609610     22.363236     22.363236     44.726473
     -4.599600     29.284798     29.284798     58.569596
     -4.589590     37.032666     37.032666     74.065332
     -4.579580     44.430180     44.430180     88.860361
     -4.569570     50.278944     50.278944    100.557888
     -4.559560     53.723198     53.723198    107.446396
     -4.549550     54.543553     54.543553    109.087106
     -4.539540     53.252300     53.252300    106.504601
     -4.529530     50.933283     50.933283    101.866565
     -4.519520     48.873249     48.873249     97.746499
     -4.509510     48.118768     48.118768     96.237537
     -4.499499     49.123004     49.123004     98.246008
     -4.489489     51.609306     51.609306    103.218612
     -4.479479     54.692574     54.692574    109.385147
     -4.469469     57.201399     57.201399    114.402797
     -4.459459     58.072854     58.072854    116.145707
     -4.449449     56.674894     56.674894    113.349787
     -4.439439     52.954010     52.954010    105.908020
     -4.429429     47.386836     47.386836     94.773672
     -4.419419     40.793486     40.793486     81.586972
     -4.409409     34.108579     34.108579     68.217158
     -4.399399     28.189679     28.189679     56.379357
     -4.389389     23.693593     23.693593     47.387186
     -4.379379     21.008262     21.008262     42.016524
     -4.369369     20.219213     20.219213     40.438426
     -4.359359     21.109627     21.109627     42.219253
     -4.349349     23.212640     23.212640     46.425280
     -4.339339     25.928074     25.928074     51.856148
     -4.329329     28.683835     28.683835     57.367670
     -4.319319     31.089696     31.089696     62.179391
     -4.309309     33.024743     33.024743     66.049487
     -4.299299     34.625793     34.625793     69.251586
     -4.289289     36.184868     36.184868     72.369736
     -4.279279     37.995143     37.995143     75.990286
     -4.269269     40.195663     40.195663     80.391327
     -4.259259     42.662565     42.662565     85.325130
     -4.249249     44.987734     44.987734     89.975469
     -4.239239     46.571266     46.571266     93.142533
     -4.229229     46.819269     46.819269     93.638538
     -4.219219     45.384777     45.384777     90.769553
     -4.209209     42.346146     42.346146     84.692291
     -4.199199     38.224836     38.224836     76.449673
     -4.189189     33.816289     33.816289     67.632578
     -4.179179     29.907308     29.907308     59.814617
     -4.169169     27.016560     27.016560     54.033120
     -4.159159     25.278814     25.278814     50.557628
     -4.149149     24.510956     24.510956     49.021913
     -4.139139     24.402919     24.402919     48.805837
     -4.129129     24.722759     24.722759     49.445518
     -4.119119     25.431144     25.431144     50.862289
     -4.109109     26.652339     26.652339     53.304679
     -4.099099     28.519737     28.519737     57.039473
     -4.089089     30.978162     30.978162     61.956323
     -4.079079     33.657318     33.657318     67.314636
     -4.069069     35.908379     35.908379     71.816757
     -4.059059     37.016384     37.016384     74.032769
     -4.049049     36.499407     36.499407     72.998814
     -4.039039     34.343151     34.343151     68.686302
     -4.029029     31.044210     31.044210     62.088420
     -4.019019     27.438490     27.438490     54.876980
     -4.009009     24.408639     24.408639     48.817279
     -3.998999     22.619964     22.619964     45.239928
     -3.988989     22.396877     22.396877     44.793753
     -3.978979     23.755300     23.755300     47.510599
     -3.968969     26.520455     26.520455     53.040911
     -3.958959     30.437306     30.437306     60.874612
     -3.948949     35.223767     35.223767     70.447534
     -3.938939     40.579926     40.579926     81.159852
     -3.928929     46.198018     46.198018     92.396037
     -3.918919     51.798855     51.798855    103.597709
     -3.908909     57.175451     57.175451    114.350902
     -3.898899     62.197602     62.197602    124.395203
     -3.888889     66.748260     66.748260    133.496520
     -3.878879     70.613138     70.613138    141.226276
     -3.868869     73.392033     73.392033    146.784067
     -3.858859     74.508508     74.508508    149.017015
     -3.848849     73.352677     73.352677    146.705354
     -3.838839     69.519595     69.519595    139.039190
     -3.828829     63.042861     63.042861    126.085721
     -3.818819     54.507973     54.507973    109.015947
     -3.808809     44.976084     44.976084     89.952169
     -3.798799     35.733820     35.733820     71.467640
     -3.788789     27.962132     27.962132     55.924264
     -3.778779     22.445997     22.445997     44.891995
     -3.768769     19.418283     19.418283     38.836566
     -3.758759     18.569736     18.569736     37.139472
     -3.748749     19.198797     19.198797     38.397593
     -3.738739     20.442208     20.442208     40.884416
     -3.728729     21.521024     21.521024     43.042048
     -3.718719     21.945027     21.945027     43.890053
     -3.708709     21.631728     21.631728     43.263456
     -3.698699     20.911766     20.911766     41.823532
     -3.688689     20.413682     20.413682     40.827365
     -3.678679     20.850071     20.850071     41.700142
     -3.668669     22.760330     22.760330     45.520660
     -3.658659     26.291089     26.291089     52.582177
     -3.648649     31.097013     31.097013     62.194027
     -3.638639     36.410010     36.410010     72.820020
     -3.628629     41.259501     41.259501     82.519002
     -3.618619     44.759436     44.759436     89.518873
     -3.608609     46.348003     46.348003     92.696006
     -3.598599     45.894723     45.894723     91.789446
     -3.588589     43.659591     43.659591     87.319181
     -3.578579     40.154322     40.154322     80.308645
     -3.568569     35.978187     35.978187     71.956373
     -3.558559     31.679296     31.679296     63.358592
     -3.548549     27.658544     27.658544     55.317088
     -3.538539     24.117999     24.117999     48.235999
     -3.528529     21.059687     21.059687     42.119374
     -3.518519     18.341900     18.341900     36.683800
     -3.508509     15.782224     15.782224     31.564448
     -3.498498     13.269252     13.269252     26.538505
     -3.488488     10.833875     10.833875     21.667750
     -3.478478      8.649637      8.649637     17.299274
     -3.468468      6.967751      6.967751     13.935501
     -3.458458      6.020399      6.020399     12.040798
     -3.448448      5.931132      5.931132     11.862265
     -3.438438      6.659305      6.659305     13.318611
     -3.428428      7.992004      7.992004     15.984008
     -3.418418      9.588768      9.588768     19.177536
     -3.408408     11.075576     11.075576     22.151153
     -3.398398     12.167471     12.167471     24.334942
     -3.388388     12.778701     12.778701     25.557401
     -3.378378     13.072239     13.072239     26.144478
     -3.368368     13.419894     13.419894     26.839788
     -3.358358     14.283709     14.283709     28.567418
     -3.348348     16.064540     16.064540     32.129080
     -3.338338     18.971478     18.971478     37.942957
     -3.328328     22.944487     22.944487     45.888975
     -3.318318     27.634017     27.634017     55.268033
     -3.308308     32.430446     32.430446     64.860891
     -3.298298     36.546365     36.546365     73.092730
     -3.288288     39.162858     39.162858     78.325716
     -3.278278     39.631084     39.631084     79.262169
     -3.268268     37.675126     37.675126     75.350252
     -3.258258     33.508315     33.508315     67.016630
     -3.248248     27.793079     27.793079     55.586159
     -3.238238     21.445723     21.445723     42.891446
     -3.228228     15.367955     15.367955     30.735909
     -3.218218     10.221013     10.221013     20.442027
     -3.208208      6.325574      6.325574     12.651147
     -3.198198      3.699441      3.699441      7.398882
     -3.188188      2.183928      2.183928      4.367856
     -3.178178      1.589036      1.589036      3.178071
     -3.168168      1.803396      1.803396      3.606793
     -3.158158      2.843689      2.843689      5.687377
     -3.148148      4.840064      4.840064      9.680128
     -3.138138      7.965597      7.965597     15.931194
     -3.128128     12.326920     12.326920     24.653841
     -3.118118     17.846620     17.846620     35.693240
     -3.108108     24.181696     24.181696     48.363391
     -3.098098     30.723709     30.723709     61.447419
     -3.088088     36.704233     36.704233     73.408466
     -3.078078     41.385866     41.385866     82.771731
     -3.068068     44.272502     44.272502     88.545005
     -3.058058     45.249117     45.249117     90.498234
     -3.048048     44.581010     44.581010     89.162019
     -3.038038     42.764468     42.764468     85.528936
     -3.028028     40.297742     40.297742     80.595484
     -3.018018     37.489162     37.489162     74.978324
     -3.008008     34.403321     34.403321     68.806641
     -2.997998     30.968635     30.968635     61.937270
     -2.987988     27.175640     27.175640     54.351281
     -2.977978     23.245118     23.245118     46.490236
     -2.967968     19.669206     19.669206     39.338413
     -2.957958     17.104971     17.104971     34.209942
     -2.947948     16.174756     16.174756     32.349511
     -2.937938     17.259268     17.259268     34.518535
     -2.927928     20.355372     20.355372     40.710744
     -2.917918     25.036914     25.036914     50.073828
     -2.907908     30.527119     30.527119     61.054239
     -2.897898     35.868546     35.868546     71.737091
     -2.887888     40.152885     40.152885     80.305770
     -2.877878     42.747688     42.747688     85.495376
     -2.867868     43.444664     43.444664     86.889329
     -2.857858     42.471848     42.471848     84.943697
     -2.847848     40.361544     40.361544     80.723088
     -2.837838     37.727421     37.727421     75.454842
     -2.827828     35.045441     35.045441     70.090882
     -2.817818     32.530395     32.530395     65.060789
     -2.807808     30.151745     30.151745     60.303490
     -2.797798     27.763171     27.763171     55.526341
     -2.787788     25.265779     25.265779     50.531557
     -2.777778     22.714158     22.714158     45.428315
     -2.767768     20.312588     20.312588     40.625177
     -2.757758     18.314396     18.314396     36.628792
     -2.747748     16.893387     16.893387     33.786773
     -2.737738     16.069996     16.069996     32.139992
     -2.727728     15.737426     15.737426     31.474851
     -2.717718     15.766731     15.766731     31.533462
     -2.707708     16.116174     16.116174     32.232348
     -2.697698     16.865189     16.865189     33.730379
     -2.687688     18.143071     18.143071     36.286142
     -2.677678     19.996116     19.996116     39.992232
     -2.667668     22.284990     22.284990     44.569979
     -2.657658     24.690994     24.690994     49.381989
     -2.647648     26.840650     26.840650     53.681301
     -2.637638     28.477563     28.477563     56.955126
     -2.627628     29.575291     29.575291     59.150581
     -2.617618     30.321728     30.321728     60.643456
     -2.607608     30.989617     30.989617     61.979234
     -2.597598     31.778679     31.778679     63.557358
     -2.587588     32.721947     32.721947     65.443895
     -2.577578     33.692036     33.692036     67.384072
     -2.567568     34.472049     34.472049     68.944099
     -2.557558     34.827576     34.827576     69.655152
     -2.547548     34.546058     34.546058     69.092117
     -2.537538     33.460847     33.460847     66.921694
     -2.527528     31.497068     31.497068     62.994135
     -2.517518     28.746365     28.746365     57.492731
     -2.507508     25.528196     25.528196     51.056392
     -2.497497     22.375680     22.375680     44.751361
     -2.487487     19.916481     19.916481     39.832962
     -2.477477     18.681964     18.681964     37.363929
     -2.467467     18.926762     18.926762     37.853524
     -2.457457     20.544189     20.544189     41.088378
     -2.447447     23.120387     23.120387     46.240774
     -2.437437     26.105673     26.105673     52.211347
     -2.427427     29.026938     29.026938     58.053876
     -2.417417     31.644853     31.644853     63.289705
     -2.407407     33.983874     33.983874     67.967747
     -2.397397     36.222099     36.222099     72.444198
     -2.387387     38.495711     38.495711     76.991421
     -2.377377     40.717062     40.717062     81.434124
     -2.367367     42.504103     42.504103     85.008205
     -2.357357     43.270001     43.270001     86.540003
     -2.347347     42.445787     42.445787     84.891573
     -2.337337     39.740838     39.740838     79.481677
     -2.327327     35.321674     35.321674     70.643348
     -2.317317     29.824838     29.824838     59.649675
     -2.307307     24.197965     24.197965     48.395930
     -2.297297     19.440529     19.440529     38.881058
     -2.287287     16.349996     16.349996     32.699993
     -2.277277     15.357935     15.357935     30.715869
     -2.267267     16.487235     16.487235     32.974471
     -2.257257     19.412090     19.412090     38.824180
     -2.247247     23.577815     23.577815     47.155631
     -2.237237     28.336108     28.336108     56.672215
     -2.227227     33.060366     33.060366     66.120733
     -2.217217     37.218483     37.218483     74.436966
     -2.207207     40.397955     40.397955     80.795910
     -2.197197     42.299656     42.299656     84.599312
     -2.187187     42.731960     42.731960     85.463921
     -2.177177     41.632021     41.632021     83.264042
     -2.167167     39.112215     39.112215     78.224430
     -2.157157     35.494188     35.494188     70.988375
     -2.147147     31.279926     31.279926     62.559852
     -2.137137     27.037307     27.037307     54.074615
     -2.127127     23.233710     23.233710     46.467420
     -2.117117     20.096076     20.096076     40.192152
     -2.107107     17.572499     17.572499     35.144998
     -2.097097     15.416178     15.416178     30.832355
     -2.087087     13.343091     13.343091     26.686183
     -2.077077     11.177228     11.177228     22.354456
     -2.067067      8.914219      8.914219     17.828439
     -2.057057      6.689034      6.689034     13.378068
     -2.047047      4.686231      4.686231      9.372461
     -2.037037      3.050833      3.050833      6.101666
     -2.027027      1.840876      1.840876      3.681753
     -2.017017      1.029318      1.029318      2.058636
     -2.007007      0.537359      0.537359      1.074717
     -1.996997      0.274584      0.274584      0.549167
     -1.986987      0.169626      0.169626      0.339252
     -1.976977      0.187300      0.187300      0.374599
     -1.966967      0.335675      0.335675      0.671350
     -1.956957      0.666941      0.666941      1.333883
     -1.946947      1.271726      1.271726      2.543452
     -1.936937      2.262507      2.262507      4.525015
     -1.926927      3.742147      3.742147      7.484295
     -1.916917      5.760172      5.760172     11.520343
     -1.906907      8.269505      8.269505     16.539011
     -1.896897     11.103239     11.103239     22.206478
     -1.886887     13.987826     13.987826     27.975653
     -1.876877     16.595252     16.595252     33.190505
     -1.866867     18.619637     18.619637     37.239274
     -1.856857     19.853727     19.853727     39.707454
     -1.846847     20.242015     20.242015     40.484030
     -1.836837     19.895424     19.895424     39.790849
     -1.826827     19.061397     19.061397     38.122795
     -1.816817     18.052910     18.052910     36.105820
     -1.806807     17.154208     17.154208     34.308416
     -1.796797     16.537133     16.537133     33.074265
     -1.786787     16.226061     16.226061     32.452123
     -1.776777     16.129142     16.129142     32.258285
     -1.766767     16.114950     16.114950     32.229899
     -1.756757     16.083890     16.083890     32.167780
     -1.746747     15.989220     15.989220     31.978440
     -1.736737     15.803291     15.803291     31.606582
     -1.726727     15.469676     15.469676     30.939353
     -1.716717     14.893958     14.893958     29.787916
     -1.706707     13.994234     13.994234     27.988469
     -1.696697     12.781899     12.781899     25.563798
     -1.686687     11.413694     11.413694     22.827389
     -1.676677     10.169158     10.169158     20.338316
     -1.666667      9.352267      9.352267     18.704533
     -1.656657      9.161241      9.161241     18.322481
     -1.646647      9.589672      9.589672     19.179343
     -1.636637     10.408535     10.408535     20.817069
     -1.626627     11.242519     11.242519     22.485037
