# EIG2DOS: Utility for SIESTA to obtain the electronic density of states
#  E. Artacho, Apr 1999, A. Garcia, Apr 2012
#  Nick R. Papior, Feb 2017
# ------------------------------------------
# Eigenvalues calculated from a non-polarized calculation
# Eigenvalues read from siesta.EIG
# Kpoint weights read from siesta.KP
# Using smearing parameter:   0.0500
# Using 1000 points in the energy range
# Selected bands: 1 to: 2981
# Emin, Emax in file for selected band(s):    -27.1746500    218.3583020
# Nbands, Nspin, Nk   =   2981     1     1
# E_F                 =    -4.2447 eV --> (shifted to ZERO)
# Broadening          =     0.0500 eV
#
#        E            N(up)  (=)   N(down)         Ntot
     -5.000000     32.848181     32.848181     65.696363
     -4.989990     37.009579     37.009579     74.019158
     -4.979980     40.733937     40.733937     81.467875
     -4.969970     43.451786     43.451786     86.903572
     -4.959960     44.696221     44.696221     89.392441
     -4.949950     44.254270     44.254270     88.508540
     -4.939940     42.248068     42.248068     84.496137
     -4.929930     39.123971     39.123971     78.247941
     -4.919920     35.570027     35.570027     71.140055
     -4.909910     32.400256     32.400256     64.800512
     -4.899900     30.429601     30.429601     60.859201
     -4.889890     30.336091     30.336091     60.672183
     -4.879880     32.499949     32.499949     64.999899
     -4.869870     36.840274     36.840274     73.680548
     -4.859860     42.718303     42.718303     85.436606
     -4.849850     48.995077     48.995077     97.990154
     -4.839840     54.285423     54.285423    108.570846
     -4.829830     57.351337     57.351337    114.702673
     -4.819820     57.485603     57.485603    114.971206
     -4.809810     54.717709     54.717709    109.435417
     -4.799800     49.751623     49.751623     99.503246
     -4.789790     43.675961     43.675961     87.351922
     -4.779780     37.590831     37.590831     75.181661
     -4.769770     32.312231     32.312231     64.624461
     -4.759760     28.245989     28.245989     56.491977
     -4.749750     25.424649     25.424649     50.849298
     -4.739740     23.634746     23.634746     47.269491
     -4.729730     22.553707     22.553707     45.107414
     -4.719720     21.847860     21.847860     43.695720
     -4.709710     21.222758     21.222758     42.445516
     -4.699700     20.443236     20.443236     40.886473
     -4.689690     19.348755     19.348755     38.697510
     -4.679680     17.882547     17.882547     35.765094
     -4.669670     16.135326     16.135326     32.270653
     -4.659660     14.384260     14.384260     28.768519
     -4.649650     13.097251     13.097251     26.194502
     -4.639640     12.878469     12.878469     25.756937
     -4.629630     14.349770     14.349770     28.699541
     -4.619620     17.984677     17.984677     35.969355
     -4.609610     23.930683     23.930683     47.861366
     -4.599600     31.870927     31.870927     63.741853
     -4.589590     40.984024     40.984024     81.968049
     -4.579580     50.049975     50.049975    100.099951
     -4.569570     57.710103     57.710103    115.420206
     -4.559560     62.825225     62.825225    125.650450
     -4.549550     64.815930     64.815930    129.631859
     -4.539540     63.849036     63.849036    127.698072
     -4.529530     60.777972     60.777972    121.555945
     -4.519520     56.841808     56.841808    113.683617
     -4.509510     53.234442     53.234442    106.468884
     -4.499499     50.716472     50.716472    101.432945
     -4.489489     49.422279     49.422279     98.844559
     -4.479479     48.922233     48.922233     97.844466
     -4.469469     48.484011     48.484011     96.968022
     -4.459459     47.398645     47.398645     94.797290
     -4.449449     45.231993     45.231993     90.463985
     -4.439439     41.923137     41.923137     83.846274
     -4.429429     37.735984     37.735984     75.471967
     -4.419419     33.131194     33.131194     66.262387
     -4.409409     28.635607     28.635607     57.271213
     -4.399399     24.751684     24.751684     49.503368
     -4.389389     21.902322     21.902322     43.804644
     -4.379379     20.382232     20.382232     40.764464
     -4.369369     20.300444     20.300444     40.600887
     -4.359359     21.532954     21.532954     43.065909
     -4.349349     23.726708     23.726708     47.453417
     -4.339339     26.382995     26.382995     52.765989
     -4.329329     29.006093     29.006093     58.012185
     -4.319319     31.261258     31.261258     62.522516
     -4.309309     33.073922     33.073922     66.147845
     -4.299299     34.626005     34.626005     69.252009
     -4.289289     36.248547     36.248547     72.497094
     -4.279279     38.248860     38.248860     76.497719
     -4.269269     40.732508     40.732508     81.465016
     -4.259259     43.486079     43.486079     86.972158
     -4.249249     45.976776     45.976776     91.953552
     -4.239239     47.493638     47.493638     94.987275
     -4.229229     47.399585     47.399585     94.799169
     -4.219219     45.400853     45.400853     90.801706
     -4.209209     41.709412     41.709412     83.418824
     -4.199199     37.008007     37.008007     74.016015
     -4.189189     32.220698     32.220698     64.441396
     -4.179179     28.192788     28.192788     56.385576
     -4.169169     25.429570     25.429570     50.859140
     -4.159159     24.005539     24.005539     48.011077
     -4.149149     23.661936     23.661936     47.323872
     -4.139139     24.019156     24.019156     48.038313
     -4.129129     24.788261     24.788261     49.576522
     -4.119119     25.882321     25.882321     51.764642
     -4.109109     27.383939     27.383939     54.767878
     -4.099099     29.393262     29.393262     58.786524
     -4.089089     31.838518     31.838518     63.677037
     -4.079079     34.357668     34.357668     68.715336
     -4.069069     36.336221     36.336221     72.672442
     -4.059059     37.111084     37.111084     74.222167
     -4.049049     36.255310     36.255310     72.510620
     -4.039039     33.800618     33.800618     67.601235
     -4.029029     30.277229     30.277229     60.554457
     -4.019019     26.546740     26.546740     53.093480
     -4.009009     23.514328     23.514328     47.028656
     -3.998999     21.861762     21.861762     43.723525
     -3.988989     21.912368     21.912368     43.824735
     -3.978979     23.651441     23.651441     47.302881
     -3.968969     26.842841     26.842841     53.685683
     -3.958959     31.154236     31.154236     62.308472
     -3.948949     36.235429     36.235429     72.470858
     -3.938939     41.749934     41.749934     83.499868
     -3.928929     47.392895     47.392895     94.785791
     -3.918919     52.918009     52.918009    105.836018
     -3.908909     58.160558     58.160558    116.321116
     -3.898899     63.021528     63.021528    126.043056
     -3.888889     67.393615     67.393615    134.787230
     -3.878879     71.054793     71.054793    142.109587
     -3.868869     73.594745     73.594745    147.189490
     -3.858859     74.441565     74.441565    148.883130
     -3.848849     73.012885     73.012885    146.025769
     -3.838839     68.948115     68.948115    137.896230
     -3.828829     62.324430     62.324430    124.648860
     -3.818819     53.751152     53.751152    107.502304
     -3.808809     44.283885     44.283885     88.567770
     -3.798799     35.178443     35.178443     70.356887
     -3.788789     27.573604     27.573604     55.147207
     -3.778779     22.216042     22.216042     44.432084
     -3.768769     19.313693     19.313693     38.627387
     -3.758759     18.547440     18.547440     37.094881
     -3.748749     19.217229     19.217229     38.434458
     -3.738739     20.467478     20.467478     40.934956
     -3.728729     21.529099     21.529099     43.058199
     -3.718719     21.921904     21.921904     43.843808
     -3.708709     21.573064     21.573064     43.146129
     -3.698699     20.822650     20.822650     41.645300
     -3.688689     20.308507     20.308507     40.617013
     -3.678679     20.751801     20.751801     41.503603
     -3.668669     22.697902     22.697902     45.395804
     -3.658659     26.293710     26.293710     52.587419
     -3.648649     31.185399     31.185399     62.370798
     -3.638639     36.586840     36.586840     73.173680
     -3.628629     41.503349     41.503349     83.006698
     -3.618619     45.026344     45.026344     90.052688
     -3.608609     46.581982     46.581982     93.163963
     -3.598599     46.044051     46.044051     92.088101
     -3.588589     43.692470     43.692470     87.384939
     -3.578579     40.067464     40.067464     80.134927
     -3.568569     35.795298     35.795298     71.590595
     -3.558559     31.441188     31.441188     62.882377
     -3.548549     27.409857     27.409857     54.819715
     -3.538539     23.895826     23.895826     47.791653
     -3.528529     20.887171     20.887171     41.774343
     -3.518519     18.226998     18.226998     36.453997
     -3.508509     15.719969     15.719969     31.439939
     -3.498498     13.245531     13.245531     26.491062
     -3.488488     10.829381     10.829381     21.658762
     -3.478478      8.643524      8.643524     17.287049
     -3.468468      6.941065      6.941065     13.882129
     -3.458458      5.959562      5.959562     11.919124
     -3.448448      5.831496      5.831496     11.662991
     -3.438438      6.528100      6.528100     13.056201
     -3.428428      7.849233      7.849233     15.698467
     -3.418418      9.464456      9.464456     18.928911
     -3.408408     11.002858     11.002858     22.005715
     -3.398398     12.172986     12.172986     24.345973
     -3.388388     12.873448     12.873448     25.746896
     -3.378378     13.246202     13.246202     26.492405
     -3.368368     13.642323     13.642323     27.284645
     -3.358358     14.508974     14.508974     29.017948
     -3.348348     16.242274     16.242274     32.484548
     -3.338338     19.059254     19.059254     38.118509
     -3.328328     22.920777     22.920777     45.841554
     -3.318318     27.508210     27.508210     55.016419
     -3.308308     32.246566     32.246566     64.493133
     -3.298298     36.379581     36.379581     72.759162
     -3.288288     39.112865     39.112865     78.225729
     -3.278278     39.820732     39.820732     79.641464
     -3.268268     38.261511     38.261511     76.523021
     -3.258258     34.704644     34.704644     69.409288
     -3.248248     29.886236     29.886236     59.772471
     -3.238238     24.785042     24.785042     49.570085
     -3.228228     20.304510     20.304510     40.609020
     -3.218218     16.997188     16.997188     33.994377
     -3.208208     14.944877     14.944877     29.889753
     -3.198198     13.829703     13.829703     27.659405
     -3.188188     13.145852     13.145852     26.291704
     -3.178178     12.451393     12.451393     24.902786
     -3.168168     11.560479     11.560479     23.120957
     -3.158158     10.616945     10.616945     21.233890
     -3.148148     10.044138     10.044138     20.088276
     -3.138138     10.405728     10.405728     20.811455
     -3.128128     12.225445     12.225445     24.450890
     -3.118118     15.807259     15.807259     31.614518
     -3.108108     21.090251     21.090251     42.180502
     -3.098098     27.575594     27.575594     55.151189
     -3.088088     34.367055     34.367055     68.734110
     -3.078078     40.348354     40.348354     80.696707
     -3.068068     44.469079     44.469079     88.938159
     -3.058058     46.046051     46.046051     92.092103
     -3.048048     44.954797     44.954797     89.909595
     -3.038038     41.622179     41.622179     83.244359
     -3.028028     36.826983     36.826983     73.653966
     -3.018018     31.413750     31.413750     62.827500
     -3.008008     26.061424     26.061424     52.122848
     -2.997998     21.199969     21.199969     42.399939
     -2.987988     17.072348     17.072348     34.144696
     -2.977978     13.861955     13.861955     27.723909
     -2.967968     11.789888     11.789888     23.579777
     -2.957958     11.126248     11.126248     22.252497
     -2.947948     12.116480     12.116480     24.232959
     -2.937938     14.863129     14.863129     29.726258
     -2.927928     19.216063     19.216063     38.432126
     -2.917918     24.719022     24.719022     49.438044
     -2.907908     30.645422     30.645422     61.290844
     -2.897898     36.131132     36.131132     72.262263
     -2.887888     40.376161     40.376161     80.752322
     -2.877878     42.851438     42.851438     85.702877
     -2.867868     43.431390     43.431390     86.862780
     -2.857858     42.393737     42.393737     84.787473
     -2.847848     40.281487     40.281487     80.562974
     -2.837838     37.684328     37.684328     75.368655
     -2.827828     35.034651     35.034651     70.069301
     -2.817818     32.505480     32.505480     65.010960
     -2.807808     30.045755     30.045755     60.091511
     -2.797798     27.519253     27.519253     55.038506
     -2.787788     24.863340     24.863340     49.726679
     -2.777778     22.179518     22.179518     44.359036
     -2.767768     19.711161     19.711161     39.422322
     -2.757758     17.730451     17.730451     35.460903
     -2.747748     16.408481     16.408481     32.816962
     -2.737738     15.749511     15.749511     31.499022
     -2.727728     15.627794     15.627794     31.255589
     -2.717718     15.898288     15.898288     31.796575
     -2.707708     16.503070     16.503070     33.006140
     -2.697698     17.496919     17.496919     34.993839
     -2.687688     18.970208     18.970208     37.940417
     -2.677678     20.920798     20.920798     41.841597
     -2.667668     23.168425     23.168425     46.336850
     -2.657658     25.382898     25.382898     50.765795
     -2.647648     27.222290     27.222290     54.444579
     -2.637638     28.499579     28.499579     56.999158
     -2.627628     29.271799     29.271799     58.543598
     -2.617618     29.794345     29.794345     59.588690
     -2.607608     30.370919     30.370919     60.741838
     -2.597598     31.193181     31.193181     62.386363
     -2.587588     32.259105     32.259105     64.518210
     -2.577578     33.394948     33.394948     66.789896
     -2.567568     34.337215     34.337215     68.674430
     -2.557558     34.810624     34.810624     69.621248
     -2.547548     34.572860     34.572860     69.145719
     -2.537538     33.445822     33.445822     66.891643
     -2.527528     31.367171     31.367171     62.734342
     -2.517518     28.463516     28.463516     56.927032
     -2.507508     25.100970     25.100970     50.201941
     -2.497497     21.855716     21.855716     43.711433
     -2.487487     19.382842     19.382842     38.765685
     -2.477477     18.221746     18.221746     36.443492
     -2.467467     18.619293     18.619293     37.238586
     -2.457457     20.451316     20.451316     40.902631
     -2.447447     23.281021     23.281021     46.562042
     -2.437437     26.531920     26.531920     53.063841
     -2.427427     29.700879     29.700879     59.401759
     -2.417417     32.516900     32.516900     65.033799
     -2.407407     34.974015     34.974015     69.948030
     -2.397397     37.224957     37.224957     74.449915
     -2.387387     39.390303     39.390303     78.780606
     -2.377377     41.382350     41.382350     82.764699
     -2.367367     42.840346     42.840346     85.680692
     -2.357357     43.222556     43.222556     86.445112
     -2.347347     42.023847     42.023847     84.047695
     -2.337337     39.022210     39.022210     78.044420
     -2.327327     34.438527     34.438527     68.877055
     -2.317317     28.933399     28.933399     57.866799
     -2.307307     23.442465     23.442465     46.884930
     -2.297297     18.923858     18.923858     37.847715
     -2.287287     16.119422     16.119422     32.238844
     -2.277277     15.407181     15.407181     30.814362
     -2.267267     16.770378     16.770378     33.540757
     -2.257257     19.862213     19.862213     39.724425
     -2.247247     24.123679     24.123679     48.247358
     -2.237237     28.912133     28.912133     57.824266
     -2.227227     33.608536     33.608536     67.217071
     -2.217217     37.684856     37.684856     75.369712
     -2.207207     40.729617     40.729617     81.459233
     -2.197197     42.447760     42.447760     84.895520
     -2.187187     42.662403     42.662403     85.324807
     -2.177177     41.339337     41.339337     82.678674
     -2.167167     38.628536     38.628536     77.257072
     -2.157157     34.886278     34.886278     69.772557
     -2.147147     30.633039     30.633039     61.266077
     -2.137137     26.431583     26.431583     52.863166
     -2.127127     22.723008     22.723008     45.446017
     -2.117117     19.698022     19.698022     39.396044
     -2.107107     17.272862     17.272862     34.545725
     -2.097097     15.183719     15.183719     30.367437
     -2.087087     13.146693     13.146693     26.293386
     -2.077077     10.997561     10.997561     21.995122
     -2.067067      8.746476      8.746476     17.492953
     -2.057057      6.538362      6.538362     13.076724
     -2.047047      4.560426      4.560426      9.120852
     -2.037037      2.954624      2.954624      5.909249
     -2.027027      1.773775      1.773775      3.547550
     -2.017017      0.986532      0.986532      1.973064
     -2.007007      0.512036      0.512036      1.024073
     -1.996997      0.259763      0.259763      0.519526
     -1.986987      0.159159      0.159159      0.318317
     -1.976977      0.175958      0.175958      0.351916
     -1.966967      0.319410      0.319410      0.638821
     -1.956957      0.644940      0.644940      1.289881
     -1.946947      1.252573      1.252573      2.505145
     -1.936937      2.276984      2.276984      4.553968
     -1.926927      3.864114      3.864114      7.728227
     -1.916917      6.133399      6.133399     12.266798
     -1.906907      9.132141      9.132141     18.264283
     -1.896897     12.794621     12.794621     25.589242
     -1.886887     16.919227     16.919227     33.838455
     -1.876877     21.172472     21.172472     42.344944
     -1.866867     25.123825     25.123825     50.247651
     -1.856857     28.312488     28.312488     56.624975
     -1.846847     30.342166     30.342166     60.684333
     -1.836837     30.985860     30.985860     61.971720
     -1.826827     30.262868     30.262868     60.525737
     -1.816817     28.442881     28.442881     56.885762
     -1.806807     25.955784     25.955784     51.911568
     -1.796797     23.236527     23.236527     46.473053
     -1.786787     20.578999     20.578999     41.157998
     -1.776777     18.074011     18.074011     36.148022
     -1.766767     15.657089     15.657089     31.314178
     -1.756757     13.225508     13.225508     26.451016
     -1.746747     10.748139     10.748139     21.496278
     -1.736737      8.308730      8.308730     16.617461
     -1.726727      6.074560      6.074560     12.149120
     -1.716717      4.227873      4.227873      8.455746
     -1.706707      2.908666      2.908666      5.817332
     -1.696697      2.195124      2.195124      4.390248
     -1.686687      2.115079      2.115079      4.230159
     -1.676677      2.661814      2.661814      5.323627
     -1.666667      3.790341      3.790341      7.580683
     -1.656657      5.390678      5.390678     10.781357
     -1.646647      7.258336      7.258336     14.516672
     -1.636637      9.094211      9.094211     18.188421
     -1.626627     10.556841     10.556841     21.113682
