# EIG2DOS: Utility for SIESTA to obtain the electronic density of states
#  E. Artacho, Apr 1999, A. Garcia, Apr 2012
#  Nick R. Papior, Feb 2017
# ------------------------------------------
# Eigenvalues calculated from a non-polarized calculation
# Eigenvalues read from siesta.EIG
# Kpoint weights read from siesta.KP
# Using smearing parameter:   0.0500
# Using 1000 points in the energy range
# Selected bands: 1 to: 2981
# Emin, Emax in file for selected band(s):    -27.0922159    218.3347370
# Nbands, Nspin, Nk   =   2981     1     1
# E_F                 =    -4.2720 eV --> (shifted to ZERO)
# Broadening          =     0.0500 eV
#
#        E            N(up)  (=)   N(down)         Ntot
     -5.000000     35.528755     35.528755     71.057510
     -4.989990     38.453590     38.453590     76.907181
     -4.979980     41.165450     41.165450     82.330900
     -4.969970     43.115171     43.115171     86.230341
     -4.959960     43.863101     43.863101     87.726203
     -4.949950     43.205898     43.205898     86.411795
     -4.939940     41.234574     41.234574     82.469149
     -4.929930     38.320623     38.320623     76.641246
     -4.919920     35.053370     35.053370     70.106741
     -4.909910     32.155562     32.155562     64.311125
     -4.899900     30.385254     30.385254     60.770509
     -4.889890     30.409454     30.409454     60.818908
     -4.879880     32.636193     32.636193     65.272386
     -4.869870     37.029565     37.029565     74.059129
     -4.859860     42.985788     42.985788     85.971577
     -4.849850     49.370241     49.370241     98.740482
     -4.839840     54.767912     54.767912    109.535825
     -4.829830     57.892946     57.892946    115.785892
     -4.819820     57.999230     57.999230    115.998461
     -4.809810     55.108169     55.108169    110.216339
     -4.799800     49.950655     49.950655     99.901310
     -4.789790     43.663084     43.663084     87.326168
     -4.779780     37.392454     37.392454     74.784909
     -4.769770     31.984715     31.984715     63.969430
     -4.759760     27.854932     27.854932     55.709863
     -4.749750     25.029969     25.029969     50.059938
     -4.739740     23.283882     23.283882     46.567764
     -4.729730     22.280028     22.280028     44.560056
     -4.719720     21.670765     21.670765     43.341530
     -4.709710     21.147917     21.147917     42.295834
     -4.699700     20.462599     20.462599     40.925197
     -4.689690     19.439399     19.439399     38.878797
     -4.679680     18.002863     18.002863     36.005726
     -4.669670     16.218325     16.218325     32.436650
     -4.659660     14.330747     14.330747     28.661495
     -4.649650     12.774048     12.774048     25.548095
     -4.639640     12.126287     12.126287     24.252573
     -4.629630     13.000967     13.000967     26.001933
     -4.619620     15.884565     15.884565     31.769130
     -4.609610     20.951770     20.951770     41.903539
     -4.599600     27.912576     27.912576     55.825152
     -4.589590     35.962156     35.962156     71.924311
     -4.579580     43.895849     43.895849     87.791698
     -4.569570     50.400824     50.400824    100.801648
     -4.559560     54.452209     54.452209    108.904417
     -4.549550     55.667928     55.667928    111.335856
     -4.539540     54.464723     54.464723    108.929446
     -4.529530     51.928605     51.928605    103.857209
     -4.519520     49.435434     49.435434     98.870867
     -4.509510     48.167314     48.167314     96.334628
     -4.499499     48.712377     48.712377     97.424754
     -4.489489     50.893738     50.893738    101.787475
     -4.479479     53.874873     53.874873    107.749746
     -4.469469     56.481198     56.481198    112.962395
     -4.459459     57.604480     57.604480    115.208960
     -4.449449     56.541688     56.541688    113.083377
     -4.439439     53.162744     53.162744    106.325487
     -4.429429     47.880587     47.880587     95.761173
     -4.419419     41.475425     41.475425     82.950849
     -4.409409     34.866794     34.866794     69.733589
     -4.399399     28.916538     28.916538     57.833077
     -4.389389     24.299105     24.299105     48.598210
     -4.379379     21.430247     21.430247     42.860495
     -4.369369     20.431367     20.431367     40.862734
     -4.359359     21.124482     21.124482     42.248964
     -4.349349     23.074888     23.074888     46.149777
     -4.339339     25.697127     25.697127     51.394254
     -4.329329     28.410930     28.410930     56.821860
     -4.319319     30.799592     30.799592     61.599184
     -4.309309     32.711377     32.711377     65.422753
     -4.299299     34.264845     34.264845     68.529689
     -4.289289     35.757560     35.757560     71.515119
     -4.279279     37.511520     37.511520     75.023040
     -4.269269     39.705585     39.705585     79.411171
     -4.259259     42.248288     42.248288     84.496575
     -4.249249     44.740150     44.740150     89.480300
     -4.239239     46.558633     46.558633     93.117266
     -4.229229     47.060265     47.060265     94.120530
     -4.219219     45.836502     45.836502     91.673005
     -4.209209     42.912783     42.912783     85.825567
     -4.199199     38.785225     38.785225     77.570451
     -4.189189     34.260967     34.260967     68.521935
     -4.179179     30.171091     30.171091     60.342182
     -4.169169     27.094249     27.094249     54.188498
     -4.159159     25.218851     25.218851     50.437703
     -4.149149     24.391006     24.391006     48.782011
     -4.139139     24.297972     24.297972     48.595943
     -4.129129     24.678107     24.678107     49.356214
     -4.119119     25.449949     25.449949     50.899898
     -4.109109     26.702095     26.702095     53.404190
     -4.099099     28.554750     28.554750     57.109500
     -4.089089     30.967828     30.967828     61.935655
     -4.079079     33.605723     33.605723     67.211446
     -4.069069     35.853538     35.853538     71.707076
     -4.059059     37.007974     37.007974     74.015948
     -4.049049     36.567031     36.567031     73.134063
     -4.039039     34.474298     34.474298     68.948596
     -4.029029     31.186201     31.186201     62.372402
     -4.019019     27.524144     27.524144     55.048287
     -4.009009     24.390575     24.390575     48.781150
     -3.998999     22.493443     22.493443     44.986886
     -3.988989     22.198993     22.198993     44.397986
     -3.978979     23.543295     23.543295     47.086590
     -3.968969     26.343519     26.343519     52.687038
     -3.958959     30.317308     30.317308     60.634616
     -3.948949     35.151877     35.151877     70.303755
     -3.938939     40.525621     40.525621     81.051242
     -3.928929     46.122124     46.122124     92.244247
     -3.918919     51.664684     51.664684    103.329369
     -3.908909     56.957272     56.957272    113.914544
     -3.898899     61.888081     61.888081    123.776162
     -3.888889     66.364912     66.364912    132.729824
     -3.878879     70.201123     70.201123    140.402246
     -3.868869     73.020311     73.020311    146.040621
     -3.858859     74.258517     74.258517    148.517034
     -3.848849     73.301252     73.301252    146.602503
     -3.838839     69.719316     69.719316    139.438631
     -3.828829     63.504191     63.504191    127.008381
     -3.818819     55.188888     55.188888    110.377777
     -3.808809     45.785144     45.785144     91.570288
     -3.798799     36.549374     36.549374     73.098748
     -3.788789     28.663666     28.663666     57.327333
     -3.778779     22.947093     22.947093     45.894186
     -3.768769     19.688799     19.688799     39.377598
     -3.758759     18.639139     18.639139     37.278278
     -3.748749     19.140365     19.140365     38.280730
     -3.738739     20.344859     20.344859     40.689718
     -3.728729     21.458787     21.458787     42.917574
     -3.718719     21.953608     21.953608     43.907216
     -3.708709     21.698602     21.698602     43.397204
     -3.698699     20.982313     20.982313     41.964627
     -3.688689     20.411734     20.411734     40.823468
     -3.678679     20.707014     20.707014     41.414028
     -3.668669     22.443381     22.443381     44.886762
     -3.658659     25.820093     25.820093     51.640186
     -3.648649     30.542113     30.542113     61.084225
     -3.638639     35.870034     35.870034     71.740068
     -3.628629     40.830054     40.830054     81.660107
     -3.618619     44.505032     44.505032     89.010065
     -3.608609     46.290097     46.290097     92.580194
     -3.598599     46.018019     46.018019     92.036038
     -3.588589     43.928859     43.928859     87.857718
     -3.578579     40.530116     40.530116     81.060231
     -3.568569     36.424289     36.424289     72.848577
     -3.558559     32.162890     32.162890     64.325780
     -3.548549     28.148960     28.148960     56.297920
     -3.538539     24.588395     24.588395     49.176790
     -3.528529     21.490954     21.490954     42.981909
     -3.518519     18.724763     18.724763     37.449527
     -3.508509     16.114710     16.114710     32.229420
     -3.498498     13.550605     13.550605     27.101209
     -3.488488     11.058810     11.058810     22.117620
     -3.478478      8.806509      8.806509     17.613018
     -3.468468      7.041689      7.041689     14.083377
     -3.458458      6.000051      6.000051     12.000101
     -3.448448      5.816453      5.816453     11.632906
     -3.438438      6.467534      6.467534     12.935068
     -3.428428      7.758936      7.758936     15.517871
     -3.418418      9.363073      9.363073     18.726146
     -3.408408     10.906055     10.906055     21.812110
     -3.398398     12.086592     12.086592     24.173183
     -3.388388     12.788636     12.788636     25.577272
     -3.378378     13.139531     13.139531     26.279062
     -3.368368     13.481432     13.481432     26.962864
     -3.358358     14.262044     14.262044     28.524088
     -3.348348     15.887828     15.887828     31.775655
     -3.338338     18.593624     18.593624     37.187249
     -3.328328     22.362542     22.362542     44.725084
     -3.318318     26.899671     26.899671     53.799341
     -3.308308     31.650403     31.650403     63.300806
     -3.298298     35.865713     35.865713     71.731426
     -3.288288     38.730276     38.730276     77.460553
     -3.278278     39.554523     39.554523     79.109047
     -3.268268     37.985358     37.985358     75.970715
     -3.258258     34.147742     34.147742     68.295485
     -3.248248     28.636164     28.636164     57.272327
     -3.238238     22.341468     22.341468     44.682937
     -3.228228     16.184407     16.184407     32.368813
     -3.218218     10.872850     10.872850     21.745700
     -3.208208      6.776405      6.776405     13.552809
     -3.198198      3.942527      3.942527      7.885054
     -3.188188      2.212185      2.212185      4.424369
     -3.178178      1.366391      1.366391      2.732782
     -3.168168      1.248215      1.248215      2.496429
     -3.158158      1.833873      1.833873      3.667745
     -3.148148      3.247307      3.247307      6.494615
     -3.138138      5.718441      5.718441     11.436882
     -3.128128      9.486242      9.486242     18.972485
     -3.118118     14.658529     14.658529     29.317057
     -3.108108     21.065580     21.065580     42.131160
     -3.098098     28.171149     28.171149     56.342297
     -3.088088     35.107426     35.107426     70.214853
     -3.078078     40.861567     40.861567     81.723134
     -3.068068     44.568344     44.568344     89.136688
     -3.058058     45.794495     45.794495     91.588990
     -3.048048     44.682652     44.682652     89.365303
     -3.038038     41.878592     41.878592     83.757184
     -3.028028     38.270182     38.270182     76.540364
     -3.018018     34.660438     34.660438     69.320875
     -3.008008     31.525292     31.525292     63.050584
     -2.997998     28.954984     28.954984     57.909968
     -2.987988     26.780609     26.780609     53.561219
     -2.977978     24.800457     24.800457     49.600914
     -2.967968     22.985763     22.985763     45.971526
     -2.957958     21.569695     21.569695     43.139390
     -2.947948     20.984862     20.984862     41.969723
     -2.937938     21.681889     21.681889     43.363778
     -2.927928     23.909144     23.909144     47.818288
     -2.917918     27.547895     27.547895     55.095790
     -2.907908     32.075796     32.075796     64.151591
     -2.897898     36.682216     36.682216     73.364432
     -2.887888     40.498531     40.498531     80.997062
     -2.877878     42.857927     42.857927     85.715855
     -2.867868     43.483861     43.483861     86.967721
     -2.857858     42.533499     42.533499     85.066998
     -2.847848     40.483166     40.483166     80.966333
     -2.837838     37.910835     37.910835     75.821670
     -2.827828     35.274304     35.274304     70.548609
     -2.817818     32.781117     32.781117     65.562234
     -2.807808     30.397944     30.397944     60.795887
     -2.797798     27.976798     27.976798     55.953597
     -2.787788     25.418919     25.418919     50.837838
     -2.777778     22.783817     22.783817     45.567634
     -2.767768     20.287572     20.287572     40.575144
     -2.757758     18.200428     18.200428     36.400857
     -2.747748     16.711928     16.711928     33.423856
     -2.737738     15.848638     15.848638     31.697276
     -2.727728     15.494654     15.494654     30.989307
     -2.717718     15.498763     15.498763     30.997526
     -2.707708     15.795120     15.795120     31.590239
     -2.697698     16.453526     16.453526     32.907053
     -2.687688     17.620275     17.620275     35.240549
     -2.677678     19.384090     19.384090     38.768179
     -2.667668     21.656164     21.656164     43.312328
     -2.657658     24.150266     24.150266     48.300533
     -2.647648     26.486841     26.486841     52.973681
     -2.637638     28.363126     28.363126     56.726252
     -2.627628     29.685500     29.685500     59.371000
     -2.617618     30.583886     30.583886     61.167771
     -2.607608     31.305749     31.305749     62.611498
     -2.597598     32.063155     32.063155     64.126309
     -2.587588     32.926110     32.926110     65.852220
     -2.577578     33.809071     33.809071     67.618142
     -2.567568     34.527391     34.527391     69.054782
     -2.557558     34.864605     34.864605     69.729211
     -2.547548     34.612819     34.612819     69.225638
     -2.537538     33.597425     33.597425     67.194851
     -2.527528     31.721852     31.721852     63.443704
     -2.517518     29.043551     29.043551     58.087102
     -2.507508     25.843563     25.843563     51.687125
     -2.497497     22.627244     22.627244     45.254487
     -2.487487     20.020100     20.020100     40.040199
     -2.477477     18.583475     18.583475     37.166950
     -2.467467     18.627252     18.627252     37.254504
     -2.457457     20.106652     20.106652     40.213304
     -2.447447     22.653487     22.653487     45.306975
     -2.437437     25.730193     25.730193     51.460387
     -2.427427     28.838157     28.838157     57.676315
     -2.417417     31.685878     31.685878     63.371757
     -2.407407     34.239651     34.239651     68.479301
     -2.397397     36.634094     36.634094     73.268187
     -2.387387     38.988301     38.988301     77.976602
     -2.377377     41.223118     41.223118     82.446236
     -2.367367     42.980220     42.980220     85.960440
     -2.357357     43.698574     43.698574     87.397148
     -2.347347     42.827370     42.827370     85.654739
     -2.337337     40.083186     40.083186     80.166372
     -2.327327     35.631049     35.631049     71.262097
     -2.317317     30.102113     30.102113     60.204226
     -2.307307     24.438771     24.438771     48.877543
     -2.297297     19.636914     19.636914     39.273828
     -2.287287     16.491491     16.491491     32.982981
     -2.277277     15.431830     15.431830     30.863661
     -2.267267     16.479675     16.479675     32.959349
     -2.257257     19.311626     19.311626     38.623252
     -2.247247     23.381320     23.381320     46.762640
     -2.237237     28.054605     28.054605     56.109209
     -2.227227     32.721482     32.721482     65.442964
     -2.217217     36.863545     36.863545     73.727090
     -2.207207     40.074304     40.074304     80.148609
     -2.197197     42.050627     42.050627     84.101253
     -2.187187     42.587329     42.587329     85.174657
     -2.177177     41.601130     41.601130     83.202259
     -2.167167     39.181574     39.181574     78.363148
     -2.157157     35.631086     35.631086     71.262173
     -2.147147     31.442397     31.442397     62.884794
     -2.137137     27.188041     27.188041     54.376081
     -2.127127     23.352608     23.352608     46.705217
     -2.117117     20.185550     20.185550     40.371100
     -2.107107     17.652678     17.652678     35.305356
     -2.097097     15.512489     15.512489     31.024979
     -2.087087     13.472761     13.472761     26.945522
     -2.077077     11.341425     11.341425     22.682850
     -2.067067      9.098849      9.098849     18.197699
     -2.057057      6.872248      6.872248     13.744497
     -2.047047      4.847701      4.847701      9.695403
     -2.037037      3.178177      3.178177      6.356354
     -2.027027      1.931260      1.931260      3.862520
     -2.017017      1.087115      1.087115      2.174230
     -2.007007      0.570122      0.570122      1.140244
     -1.996997      0.289305      0.289305      0.578610
     -1.986987      0.170138      0.170138      0.340276
     -1.976977      0.172731      0.172731      0.345462
     -1.966967      0.299626      0.299626      0.599252
     -1.956957      0.597484      0.597484      1.194967
     -1.946947      1.152983      1.152983      2.305965
     -1.936937      2.078761      2.078761      4.157521
     -1.926927      3.484641      3.484641      6.969281
     -1.916917      5.434950      5.434950     10.869899
     -1.906907      7.902721      7.902721     15.805441
     -1.896897     10.739868     10.739868     21.479737
     -1.886887     13.681870     13.681870     27.363740
     -1.876877     16.393708     16.393708     32.787416
     -1.866867     18.546505     18.546505     37.093010
     -1.856857     19.901411     19.901411     39.802822
     -1.846847     20.374963     20.374963     40.749926
     -1.836837     20.066269     20.066269     40.132538
     -1.826827     19.235651     19.235651     38.471302
     -1.816817     18.235401     18.235401     36.470802
     -1.806807     17.408433     17.408433     34.816866
     -1.796797     16.987277     16.987277     33.974553
     -1.786787     17.032454     17.032454     34.064907
     -1.776777     17.434540     17.434540     34.869080
     -1.766767     17.972321     17.972321     35.944642
     -1.756757     18.391951     18.391951     36.783902
     -1.746747     18.470117     18.470117     36.940235
     -1.736737     18.047691     18.047691     36.095383
     -1.726727     17.046484     17.046484     34.092967
     -1.716717     15.486940     15.486940     30.973880
     -1.706707     13.507249     13.507249     27.014498
     -1.696697     11.364564     11.364564     22.729129
     -1.686687      9.397644      9.397644     18.795287
     -1.676677      7.948962      7.948962     15.897925
     -1.666667      7.267720      7.267720     14.535441
     -1.656657      7.427268      7.427268     14.854535
     -1.646647      8.287638      8.287638     16.575277
     -1.636637      9.521258      9.521258     19.042516
     -1.626627     10.702145     10.702145     21.404290
