# EIG2DOS: Utility for SIESTA to obtain the electronic density of states
#  E. Artacho, Apr 1999, A. Garcia, Apr 2012
#  Nick R. Papior, Feb 2017
# ------------------------------------------
# Eigenvalues calculated from a non-polarized calculation
# Eigenvalues read from siesta.EIG
# Kpoint weights read from siesta.KP
# Using smearing parameter:   0.0500
# Using 1000 points in the energy range
# Selected bands: 1 to: 2981
# Emin, Emax in file for selected band(s):    -27.0243089    218.3098590
# Nbands, Nspin, Nk   =   2981     1     1
# E_F                 =    -4.2977 eV --> (shifted to ZERO)
# Broadening          =     0.0500 eV
#
#        E            N(up)  (=)   N(down)         Ntot
     -5.000000     44.793358     44.793358     89.586716
     -4.989990     48.911852     48.911852     97.823705
     -4.979980     51.508442     51.508442    103.016884
     -4.969970     52.277944     52.277944    104.555887
     -4.959960     51.201649     51.201649    102.403297
     -4.949950     48.539577     48.539577     97.079155
     -4.939940     44.761077     44.761077     89.522153
     -4.929930     40.456822     40.456822     80.913643
     -4.919920     36.271392     36.271392     72.542783
     -4.909910     32.866003     32.866003     65.732006
     -4.899900     30.884911     30.884911     61.769823
     -4.889890     30.880509     30.880509     61.761017
     -4.879880     33.170171     33.170171     66.340343
     -4.869870     37.652758     37.652758     75.305517
     -4.859860     43.675659     43.675659     87.351317
     -4.849850     50.065426     50.065426    100.130851
     -4.839840     55.380878     55.380878    110.761756
     -4.829830     58.331509     58.331509    116.663018
     -4.819820     58.194164     58.194164    116.388327
     -4.809810     55.036054     55.036054    110.072107
     -4.799800     49.640665     49.640665     99.281330
     -4.789790     43.184382     43.184382     86.368763
     -4.779780     36.829487     36.829487     73.658974
     -4.769770     31.413264     31.413264     62.826529
     -4.759760     27.328826     27.328826     54.657652
     -4.749750     24.580195     24.580195     49.160391
     -4.739740     22.924886     22.924886     45.849773
     -4.729730     22.016429     22.016429     44.032858
     -4.719720     21.500862     21.500862     43.001724
     -4.709710     21.064439     21.064439     42.128878
     -4.699700     20.452892     20.452892     40.905783
     -4.689690     19.486348     19.486348     38.972697
     -4.679680     18.086127     18.086127     36.172254
     -4.669670     16.314831     16.314831     32.629663
     -4.659660     14.414247     14.414247     28.828494
     -4.649650     12.814849     12.814849     25.629699
     -4.639640     12.093011     12.093011     24.186021
     -4.629630     12.865790     12.865790     25.731580
     -4.619620     15.631945     15.631945     31.263890
     -4.609610     20.588296     20.588296     41.176593
     -4.599600     27.473093     27.473093     54.946187
     -4.589590     35.506040     35.506040     71.012079
     -4.579580     43.489099     43.489099     86.978198
     -4.569570     50.084703     50.084703    100.169406
     -4.559560     54.205556     54.205556    108.411113
     -4.549550     55.374430     55.374430    110.748859
     -4.539540     53.896233     53.896233    107.792466
     -4.529530     50.752251     50.752251    101.504502
     -4.519520     47.248734     47.248734     94.497468
     -4.509510     44.563273     44.563273     89.126545
     -4.499499     43.372654     43.372654     86.745307
     -4.489489     43.698421     43.698421     87.396842
     -4.479479     45.002713     45.002713     90.005426
     -4.469469     46.463032     46.463032     92.926064
     -4.459459     47.296963     47.296963     94.593925
     -4.449449     47.012564     47.012564     94.025127
     -4.439439     45.512304     45.512304     91.024608
     -4.429429     43.047073     43.047073     86.094147
     -4.419419     40.072010     40.072010     80.144021
     -4.409409     37.079394     37.079394     74.158788
     -4.399399     34.472345     34.472345     68.944689
     -4.389389     32.507484     32.507484     65.014968
     -4.379379     31.295692     31.295692     62.591384
     -4.369369     30.828568     30.828568     61.657136
     -4.359359     31.003369     31.003369     62.006737
     -4.349349     31.642042     31.642042     63.284085
     -4.339339     32.519429     32.519429     65.038859
     -4.329329     33.414810     33.414810     66.829620
     -4.319319     34.180766     34.180766     68.361533
     -4.309309     34.801482     34.801482     69.602965
     -4.299299     35.407804     35.407804     70.815608
     -4.289289     36.232123     36.232123     72.464246
     -4.279279     37.510755     37.510755     75.021510
     -4.269269     39.361650     39.361650     78.723301
     -4.259259     41.677447     41.677447     83.354894
     -4.249249     44.079758     44.079758     88.159515
     -4.239239     45.974908     45.974908     91.949815
     -4.229229     46.721716     46.721716     93.443432
     -4.219219     45.866938     45.866938     91.733875
     -4.209209     43.349890     43.349890     86.699780
     -4.199199     39.567939     39.567939     79.135877
     -4.189189     35.252561     35.252561     70.505122
     -4.179179     31.205635     31.205635     62.411270
     -4.169169     28.023938     28.023938     56.047877
     -4.159159     25.943496     25.943496     51.886992
     -4.149149     24.863773     24.863773     49.727546
     -4.139139     24.514006     24.514006     49.028012
     -4.129129     24.658174     24.658174     49.316348
     -4.119119     25.229044     25.229044     50.458087
     -4.109109     26.326438     26.326438     52.652875
     -4.099099     28.084133     28.084133     56.168266
     -4.089089     30.476886     30.476886     60.953772
     -4.079079     33.178540     33.178540     66.357081
     -4.069069     35.570295     35.570295     71.140589
     -4.059059     36.927581     36.927581     73.855161
     -4.049049     36.712736     36.712736     73.425472
     -4.039039     34.828072     34.828072     69.656144
     -4.029029     31.693232     31.693232     63.386464
     -4.019019     28.104245     28.104245     56.208489
     -4.009009     24.951883     24.951883     49.903765
     -3.998999     22.945643     22.945643     45.891286
     -3.988989     22.465842     22.465842     44.931685
     -3.978979     23.574525     23.574525     47.149050
     -3.968969     26.124071     26.124071     52.248141
     -3.958959     29.869769     29.869769     59.739539
     -3.948949     34.528806     34.528806     69.057612
     -3.938939     39.792523     39.792523     79.585046
     -3.928929     45.337047     45.337047     90.674094
     -3.918919     50.863527     50.863527    101.727054
     -3.908909     56.152803     56.152803    112.305605
     -3.898899     61.084977     61.084977    122.169955
     -3.888889     65.584492     65.584492    131.168984
     -3.878879     69.501917     69.501917    139.003834
     -3.868869     72.499357     72.499357    144.998713
     -3.858859     74.026478     74.026478    148.052955
     -3.848849     73.439353     73.439353    146.878706
     -3.838839     70.238902     70.238902    140.477804
     -3.828829     64.330956     64.330956    128.661912
     -3.818819     56.181344     56.181344    112.362689
     -3.808809     46.778431     46.778431     93.556862
     -3.798799     37.403195     37.403195     74.806390
     -3.788789     29.294156     29.294156     58.588312
     -3.778779     23.334069     23.334069     46.668138
     -3.768769     19.862898     19.862898     39.725795
     -3.758759     18.659993     18.659993     37.319986
     -3.748749     19.075726     19.075726     38.151452
     -3.738739     20.255255     20.255255     40.510511
     -3.728729     21.387797     21.387797     42.775593
     -3.718719     21.922328     21.922328     43.844657
     -3.708709     21.703776     21.703776     43.407552
     -3.698699     20.998825     20.998825     41.997650
     -3.688689     20.400313     20.400313     40.800626
     -3.678679     20.626637     20.626637     41.253273
     -3.668669     22.265674     22.265674     44.531347
     -3.658659     25.541295     25.541295     51.082591
     -3.648649     30.188043     30.188043     60.376087
     -3.638639     35.491591     35.491591     70.983182
     -3.628629     40.490469     40.490469     80.980938
     -3.618619     44.263559     44.263559     88.527118
     -3.608609     46.188059     46.188059     92.376117
     -3.598599     46.071458     46.071458     92.142916
     -3.588589     44.128585     44.128585     88.257170
     -3.578579     40.847057     40.847057     81.694115
     -3.568569     36.817194     36.817194     73.634389
     -3.558559     32.586270     32.586270     65.172540
     -3.548549     28.560310     28.560310     57.120619
     -3.538539     24.954131     24.954131     49.908262
     -3.528529     21.790273     21.790273     43.580546
     -3.518519     18.950662     18.950662     37.901324
     -3.508509     16.272077     16.272077     32.544153
     -3.498498     13.652274     13.652274     27.304549
     -3.488488     11.121073     11.121073     22.242145
     -3.478478      8.845383      8.845383     17.690766
     -3.468468      7.070540      7.070540     14.141079
     -3.458458      6.028380      6.028380     12.056759
     -3.448448      5.849339      5.849339     11.698678
     -3.438438      6.505369      6.505369     13.010738
     -3.428428      7.797512      7.797512     15.595024
     -3.418418      9.394344      9.394344     18.788689
     -3.408408     10.919784     10.919784     21.839567
     -3.398398     12.072626     12.072626     24.145252
     -3.388388     12.739097     12.739097     25.478195
     -3.378378     13.050097     13.050097     26.100194
     -3.368368     13.351285     13.351285     26.702571
     -3.358358     14.092705     14.092705     28.185409
     -3.348348     15.681709     15.681709     31.363418
     -3.338338     18.353529     18.353529     36.707057
     -3.328328     22.093177     22.093177     44.186354
     -3.318318     26.611379     26.611379     53.222758
     -3.308308     31.363578     31.363578     62.727157
     -3.298298     35.612670     35.612670     71.225340
     -3.288288     38.551237     38.551237     77.102474
     -3.278278     39.486964     39.486964     78.973928
     -3.268268     38.050294     38.050294     76.100587
     -3.258258     34.339662     34.339662     68.679325
     -3.248248     28.922434     28.922434     57.844867
     -3.238238     22.672147     22.672147     45.344295
     -3.228228     16.507679     16.507679     33.015357
     -3.218218     11.148496     11.148496     22.296992
     -3.208208      6.981269      6.981269     13.962538
     -3.198198      4.065894      4.065894      8.131788
     -3.188188      2.242243      2.242243      4.484486
     -3.178178      1.269894      1.269894      2.539788
     -3.168168      0.945096      0.945096      1.890192
     -3.158158      1.169696      1.169696      2.339391
     -3.148148      1.970988      1.970988      3.941976
     -3.138138      3.479620      3.479620      6.959241
     -3.128128      5.870888      5.870888     11.741776
     -3.118118      9.275509      9.275509     18.551018
     -3.108108     13.676986     13.676986     27.353972
     -3.098098     18.830280     18.830280     37.660560
     -3.088088     24.246688     24.246688     48.493377
     -3.078078     29.276742     29.276742     58.553484
     -3.068068     33.282099     33.282099     66.564197
     -3.058058     35.834985     35.834985     71.669970
     -3.048048     36.852132     36.852132     73.704265
     -3.038038     36.588534     36.588534     73.177067
     -3.028028     35.485721     35.485721     70.971442
     -3.018018     33.953355     33.953355     67.906710
     -3.008008     32.207209     32.207209     64.414419
     -2.997998     30.256762     30.256762     60.513525
     -2.987988     28.046005     28.046005     56.092009
     -2.977978     25.657902     25.657902     51.315804
     -2.967968     23.454461     23.454461     46.908922
     -2.957958     22.060463     22.060463     44.120927
     -2.947948     22.182229     22.182229     44.364457
     -2.937938     24.334086     24.334086     48.668172
     -2.927928     28.587473     28.587473     57.174946
     -2.917918     34.450466     34.450466     68.900932
     -2.907908     40.938188     40.938188     81.876375
     -2.897898     46.824077     46.824077     93.648154
     -2.887888     50.990407     50.990407    101.980815
     -2.877878     52.751240     52.751240    105.502480
     -2.867868     52.026025     52.026025    104.052051
     -2.857858     49.301091     49.301091     98.602181
     -2.847848     45.404354     45.404354     90.808709
     -2.837838     41.193755     41.193755     82.387510
     -2.827828     37.287360     37.287360     74.574719
     -2.817818     33.933739     33.933739     67.867479
     -2.807808     31.052837     31.052837     62.105674
     -2.797798     28.402770     28.402770     56.805539
     -2.787788     25.778880     25.778880     51.557760
     -2.777778     23.147520     23.147520     46.295040
     -2.767768     20.658624     20.658624     41.317247
     -2.757758     18.547757     18.547757     37.095514
     -2.747748     16.996520     16.996520     33.993039
     -2.737738     16.038872     16.038872     32.077745
     -2.727728     15.568909     15.568909     31.137818
     -2.717718     15.440312     15.440312     30.880623
     -2.707708     15.588096     15.588096     31.176192
     -2.697698     16.087180     16.087180     32.174361
     -2.687688     17.102122     17.102122     34.204243
     -2.677678     18.754621     18.754621     37.509242
     -2.667668     20.993719     20.993719     41.987438
     -2.657658     23.558058     23.558058     47.116115
     -2.647648     26.063987     26.063987     52.127973
     -2.637638     28.171991     28.171991     56.343983
     -2.627628     29.731355     29.731355     59.462711
     -2.617618     30.816666     30.816666     61.633331
     -2.607608     31.641476     31.641476     63.282952
     -2.597598     32.412981     32.412981     64.825963
     -2.587588     33.220138     33.220138     66.440277
     -2.577578     34.008942     34.008942     68.017883
     -2.567568     34.629198     34.629198     69.258396
     -2.557558     34.895949     34.895949     69.791898
     -2.547548     34.625092     34.625092     69.250184
     -2.537538     33.651954     33.651954     67.303909
     -2.527528     31.870489     31.870489     63.740979
     -2.517518     29.309343     29.309343     58.618686
     -2.507508     26.210050     26.210050     52.420100
     -2.497497     23.042002     23.042002     46.084003
     -2.487487     20.410888     20.410888     40.821775
     -2.477477     18.879051     18.879051     37.758102
     -2.467467     18.773738     18.773738     37.547475
     -2.457457     20.074362     20.074362     40.148725
     -2.447447     22.434932     22.434932     44.869864
     -2.437437     25.333887     25.333887     50.667774
     -2.427427     28.283421     28.283421     56.566842
     -2.417417     31.001705     31.001705     62.003410
     -2.407407     33.467651     33.467651     66.935301
     -2.397397     35.832905     35.832905     71.665811
     -2.387387     38.235468     38.235468     76.470937
     -2.377377     40.610528     40.610528     81.221055
     -2.367367     42.600918     42.600918     85.201836
     -2.357357     43.626116     43.626116     87.252232
     -2.347347     43.093107     43.093107     86.186215
     -2.337337     40.660190     40.660190     81.320380
     -2.327327     36.433060     36.433060     72.866120
     -2.317317     31.000794     31.000794     62.001588
     -2.307307     25.294465     25.294465     50.588930
     -2.297297     20.331705     20.331705     40.663411
     -2.287287     16.952501     16.952501     33.905002
     -2.277277     15.637750     15.637750     31.275499
     -2.267267     16.451319     16.451319     32.902639
     -2.257257     19.093706     19.093706     38.187412
     -2.247247     23.024968     23.024968     46.049937
     -2.237237     27.608131     27.608131     55.216261
     -2.227227     32.231382     32.231382     64.462764
     -2.217217     36.381432     36.381432     72.762864
     -2.207207     39.661452     39.661452     79.322903
     -2.197197     41.772970     41.772970     83.545939
     -2.187187     42.499940     42.499940     84.999879
     -2.177177     41.728742     41.728742     83.457485
     -2.167167     39.505733     39.505733     79.011466
     -2.157157     36.092178     36.092178     72.184355
     -2.147147     31.957486     31.957486     63.914973
     -2.137137     27.677396     27.677396     55.354793
     -2.127127     23.763477     23.763477     47.526953
     -2.117117     20.503308     20.503308     41.006617
     -2.107107     17.895889     17.895889     35.791779
     -2.097097     15.716105     15.716105     31.432209
     -2.087087     13.668684     13.668684     27.337369
     -2.077077     11.545446     11.545446     23.090893
     -2.067067      9.308250      9.308250     18.616499
     -2.057057      7.072339      7.072339     14.144677
     -2.047047      5.021760      5.021760     10.043520
     -2.037037      3.315236      3.315236      6.630472
     -2.027027      2.029013      2.029013      4.058025
     -2.017017      1.150457      1.150457      2.300914
     -2.007007      0.607653      0.607653      1.215306
     -1.996997      0.310072      0.310072      0.620145
     -1.986987      0.181809      0.181809      0.363617
     -1.976977      0.181244      0.181244      0.362487
     -1.966967      0.309717      0.309717      0.619435
     -1.956957      0.613338      0.613338      1.226676
     -1.946947      1.178356      1.178356      2.356713
     -1.936937      2.116201      2.116201      4.232402
     -1.926927      3.533843      3.533843      7.067686
     -1.916917      5.490918      5.490918     10.981836
     -1.906907      7.954972      7.954972     15.909943
     -1.896897     10.774010     10.774010     21.548020
     -1.886887     13.684036     13.684036     27.368072
     -1.876877     16.356667     16.356667     32.713334
     -1.866867     18.474590     18.474590     36.949180
     -1.856857     19.810827     19.810827     39.621653
     -1.846847     20.286998     20.286998     40.573997
     -1.836837     19.992941     19.992941     39.985882
     -1.826827     19.159103     19.159103     38.318206
     -1.816817     18.083478     18.083478     36.166957
     -1.806807     17.030088     17.030088     34.060175
     -1.796797     16.134336     16.134336     32.268672
     -1.786787     15.358960     15.358960     30.717920
     -1.776777     14.528218     14.528218     29.056436
     -1.766767     13.429082     13.429082     26.858164
     -1.756757     11.929521     11.929521     23.859042
     -1.746747     10.053679     10.053679     20.107359
     -1.736737      7.981039      7.981039     15.962077
     -1.726727      5.982419      5.982419     11.964838
     -1.716717      4.338143      4.338143      8.676286
     -1.706707      3.282908      3.282908      6.565817
     -1.696697      2.992938      2.992938      5.985876
     -1.686687      3.596559      3.596559      7.193117
     -1.676677      5.172503      5.172503     10.345006
     -1.666667      7.711044      7.711044     15.422088
     -1.656657     11.045308     11.045308     22.090616
     -1.646647     14.794911     14.794911     29.589821
     -1.636637     18.377903     18.377903     36.755807
     -1.626627     21.124404     21.124404     42.248807
