# EIG2DOS: Utility for SIESTA to obtain the electronic density of states
#  E. Artacho, Apr 1999, A. Garcia, Apr 2012
#  Nick R. Papior, Feb 2017
# ------------------------------------------
# Eigenvalues calculated from a non-polarized calculation
# Eigenvalues read from siesta.EIG
# Kpoint weights read from siesta.KP
# Using smearing parameter:   0.0500
# Using 1000 points in the energy range
# Selected bands: 1 to: 2981
# Emin, Emax in file for selected band(s):    -27.0333533    218.3117450
# Nbands, Nspin, Nk   =   2981     1     1
# E_F                 =    -4.3066 eV --> (shifted to ZERO)
# Broadening          =     0.0500 eV
#
#        E            N(up)  (=)   N(down)         Ntot
     -5.000000     44.298736     44.298736     88.597472
     -4.989990     48.492150     48.492150     96.984299
     -4.979980     51.198721     51.198721    102.397442
     -4.969970     52.100389     52.100389    104.200779
     -4.959960     51.163082     51.163082    102.326164
     -4.949950     48.633574     48.633574     97.267148
     -4.939940     44.970955     44.970955     89.941910
     -4.929930     40.755739     40.755739     81.511479
     -4.919920     36.619540     36.619540     73.239080
     -4.909910     33.209335     33.209335     66.418669
     -4.899900     31.161641     31.161641     62.323281
     -4.889890     31.038683     31.038683     62.077367
     -4.879880     33.192291     33.192291     66.384583
     -4.869870     37.575433     37.575433     75.150867
     -4.859860     43.589700     43.589700     87.179400
     -4.849850     50.089081     50.089081    100.178162
     -4.839840     55.613956     55.613956    111.227912
     -4.829830     58.811490     58.811490    117.622980
     -4.819820     58.876802     58.876802    117.753604
     -4.809810     55.810206     55.810206    111.620411
     -4.799800     50.368524     50.368524    100.737048
     -4.789790     43.746571     43.746571     87.493142
     -4.779780     37.156137     37.156137     74.312273
     -4.769770     31.493484     31.493484     62.986967
     -4.759760     27.202337     27.202337     54.404674
     -4.749750     24.319644     24.319644     48.639288
     -4.739740     22.615810     22.615810     45.231621
     -4.729730     21.738722     21.738722     43.477445
     -4.719720     21.314208     21.314208     42.628416
     -4.709710     21.000132     21.000132     42.000264
     -4.699700     20.513412     20.513412     41.026824
     -4.689690     19.651250     19.651250     39.302499
     -4.679680     18.320142     18.320142     36.640283
     -4.669670     16.573819     16.573819     33.147639
     -4.659660     14.647074     14.647074     29.294148
     -4.649650     12.962687     12.962687     25.925373
     -4.639640     12.089893     12.089893     24.179786
     -4.629630     12.644718     12.644718     25.289436
     -4.619620     15.139358     15.139358     30.278717
     -4.609610     19.806095     19.806095     39.612190
     -4.599600     26.441686     26.441686     52.883371
     -4.589590     34.336317     34.336317     68.672634
     -4.579580     42.350357     42.350357     84.700713
     -4.569570     49.163338     49.163338     98.326677
     -4.559560     53.644573     53.644573    107.289147
     -4.549550     55.218191     55.218191    110.436381
     -4.539540     54.068095     54.068095    108.136189
     -4.529530     51.080024     51.080024    102.160048
     -4.519520     47.530146     47.530146     95.060293
     -4.509510     44.643720     44.643720     89.287439
     -4.499499     43.201701     43.201701     86.403402
     -4.489489     43.342004     43.342004     86.684007
     -4.479479     44.607864     44.607864     89.215728
     -4.469469     46.191141     46.191141     92.382282
     -4.459459     47.252685     47.252685     94.505369
     -4.449449     47.196351     47.196351     94.392703
     -4.439439     45.816130     45.816130     91.632260
     -4.429429     43.297439     43.297439     86.594879
     -4.419419     40.105340     40.105340     80.210679
     -4.409409     36.818832     36.818832     73.637664
     -4.399399     33.970454     33.970454     67.940909
     -4.389389     31.932124     31.932124     63.864249
     -4.379379     30.863141     30.863141     61.726282
     -4.369369     30.715036     30.715036     61.430073
     -4.359359     31.276965     31.276965     62.553931
     -4.349349     32.244630     32.244630     64.489261
     -4.339339     33.299777     33.299777     66.599555
     -4.329329     34.189108     34.189108     68.378217
     -4.319319     34.788607     34.788607     69.577214
     -4.309309     35.136287     35.136287     70.272574
     -4.299299     35.419918     35.419918     70.839837
     -4.289289     35.917539     35.917539     71.835079
     -4.279279     36.901785     36.901785     73.803569
     -4.269269     38.528643     38.528643     77.057286
     -4.259259     40.738345     40.738345     81.476689
     -4.249249     43.203922     43.203922     86.407845
     -4.239239     45.365753     45.365753     90.731506
     -4.229229     46.572320     46.572320     93.144639
     -4.219219     46.300148     46.300148     92.600297
     -4.209209     44.368781     44.368781     88.737562
     -4.199199     41.042756     41.042756     82.085512
     -4.189189     36.954072     36.954072     73.908143
     -4.179179     32.871527     32.871527     65.743054
     -4.169169     29.429318     29.429318     58.858637
     -4.159159     26.947402     26.947402     53.894803
     -4.149149     25.418399     25.418399     50.836799
     -4.139139     24.641855     24.641855     49.283709
     -4.129129     24.415101     24.415101     48.830203
     -4.119119     24.674066     24.674066     49.348132
     -4.109109     25.512790     25.512790     51.025581
     -4.099099     27.073508     27.073508     54.147016
     -4.089089     29.364782     29.364782     58.729564
     -4.079079     32.109921     32.109921     64.219843
     -4.069069     34.727423     34.727423     69.454846
     -4.059059     36.486798     36.486798     72.973597
     -4.049049     36.786467     36.786467     73.572933
     -4.039039     35.419905     35.419905     70.839810
     -4.029029     32.688984     32.688984     65.377968
     -4.019019     29.303145     29.303145     58.606289
     -4.009009     26.121979     26.121979     52.243957
     -3.998999     23.878909     23.878909     47.757819
     -3.988989     23.014651     23.014651     46.029302
     -3.978979     23.664907     23.664907     47.329814
     -3.968969     25.751976     25.751976     51.503951
     -3.958959     29.088815     29.088815     58.177629
     -3.948949     33.434002     33.434002     66.868003
     -3.938939     38.500389     38.500389     77.000777
     -3.928929     43.962755     43.962755     87.925509
     -3.918919     49.499808     49.499808     98.999616
     -3.908909     54.859054     54.859054    109.718109
     -3.898899     59.893630     59.893630    119.787261
     -3.888889     64.523934     64.523934    129.047868
     -3.878879     68.624608     68.624608    137.249216
     -3.868869     71.897140     71.897140    143.794281
     -3.858859     73.818494     73.818494    147.636989
     -3.848849     73.731728     73.731728    147.463456
     -3.838839     71.072548     71.072548    142.145096
     -3.828829     65.643572     65.643572    131.287143
     -3.818819     57.804910     57.804910    115.609819
     -3.808809     48.476331     48.476331     96.952663
     -3.798799     38.932036     38.932036     77.864072
     -3.788789     30.465500     30.465500     60.931001
     -3.778779     24.054801     24.054801     48.109602
     -3.768769     20.144978     20.144978     40.289956
     -3.758759     18.602547     18.602547     37.205093
     -3.748749     18.829210     18.829210     37.658420
     -3.738739     19.978705     19.978705     39.957410
     -3.728729     21.208715     21.208715     42.417430
     -3.718719     21.907050     21.907050     43.814099
     -3.708709     21.844329     21.844329     43.688658
     -3.698699     21.219613     21.219613     42.439226
     -3.688689     20.583724     20.583724     41.167448
     -3.678679     20.651536     20.651536     41.303073
     -3.668669     22.048076     22.048076     44.096152
     -3.658659     25.064366     25.064366     50.128733
     -3.648649     29.510840     29.510840     59.021679
     -3.638639     34.733003     34.733003     69.466006
     -3.628629     39.794430     39.794430     79.588861
     -3.618619     43.759093     43.759093     87.518186
     -3.608609     45.958739     45.958739     91.917478
     -3.598599     46.142774     46.142774     92.285548
     -3.588589     44.472661     44.472661     88.945322
     -3.578579     41.398075     41.398075     82.796149
     -3.568569     37.490443     37.490443     74.980886
     -3.558559     33.296790     33.296790     66.593581
     -3.548549     29.239203     29.239203     58.478407
     -3.538539     25.560039     25.560039     51.120078
     -3.528529     22.312444     22.312444     44.624887
     -3.518519     19.401644     19.401644     38.803288
     -3.508509     16.672676     16.672676     33.345352
     -3.498498     14.015703     14.015703     28.031406
     -3.488488     11.443615     11.443615     22.887230
     -3.478478      9.107029      9.107029     18.214057
     -3.468468      7.243829      7.243829     14.487658
     -3.458458      6.090650      6.090650     12.181299
     -3.448448      5.793618      5.793618     11.587236
     -3.438438      6.346755      6.346755     12.693510
     -3.428428      7.573121      7.573121     15.146241
     -3.418418      9.155733      9.155733     18.311467
     -3.408408     10.718424     10.718424     21.436847
     -3.398398     11.942056     11.942056     23.884112
     -3.388388     12.680316     12.680316     25.360631
     -3.378378     13.026828     13.026828     26.053656
     -3.368368     13.297941     13.297941     26.595881
     -3.358358     13.932222     13.932222     27.864443
     -3.348348     15.346830     15.346830     30.693659
     -3.338338     17.805759     17.805759     35.611517
     -3.328328     21.337058     21.337058     42.674117
     -3.318318     25.703683     25.703683     51.407367
     -3.308308     30.415099     30.415099     60.830198
     -3.298298     34.776815     34.776815     69.553630
     -3.288288     37.994329     37.994329     75.988659
     -3.278278     39.343421     39.343421     78.686841
     -3.268268     38.377713     38.377713     76.755426
     -3.258258     35.094823     35.094823     70.189647
     -3.248248     29.972242     29.972242     59.944484
     -3.238238     23.836346     23.836346     47.672691
     -3.228228     17.613865     17.613865     35.227731
     -3.218218     12.075482     12.075482     24.150964
     -3.208208      7.675859      7.675859     15.351717
     -3.198198      4.533248      4.533248      9.066495
     -3.188188      2.521058      2.521058      5.042115
     -3.178178      1.405857      1.405857      2.811714
     -3.168168      0.971425      0.971425      1.942849
     -3.158158      1.097406      1.097406      2.194812
     -3.148148      1.787967      1.787967      3.575934
     -3.138138      3.157223      3.157223      6.314446
     -3.128128      5.377736      5.377736     10.755472
     -3.118118      8.597976      8.597976     17.195952
     -3.108108     12.843321     12.843321     25.686642
     -3.098098     17.931390     17.931390     35.862781
     -3.088088     23.443791     23.443791     46.887582
     -3.078078     28.787047     28.787047     57.574094
     -3.068068     33.339307     33.339307     66.678613
     -3.058058     36.630010     36.630010     73.260020
     -3.048048     38.468034     38.468034     76.936068
     -3.038038     38.949466     38.949466     77.898932
     -3.028028     38.341098     38.341098     76.682196
     -3.018018     36.913527     36.913527     73.827053
     -3.008008     34.833336     34.833336     69.666671
     -2.997998     32.185469     32.185469     64.370937
     -2.987988     29.106329     29.106329     58.212657
     -2.977978     25.928453     25.928453     51.856906
     -2.967968     23.225025     23.225025     46.450049
     -2.957958     21.703034     21.703034     43.406067
     -2.947948     21.982743     21.982743     43.965485
     -2.937938     24.361641     24.361641     48.723281
     -2.927928     28.665211     28.665211     57.330423
     -2.917918     34.244878     34.244878     68.489755
     -2.907908     40.124606     40.124606     80.249213
     -2.897898     45.247226     45.247226     90.494452
     -2.887888     48.742515     48.742515     97.485029
     -2.877878     50.135394     50.135394    100.270788
     -2.867868     49.433009     49.433009     98.866018
     -2.857858     47.068201     47.068201     94.136403
     -2.847848     43.723093     43.723093     87.446186
     -2.837838     40.096026     40.096026     80.192052
     -2.827828     36.694290     36.694290     73.388579
     -2.817818     33.725005     33.725005     67.450010
     -2.807808     31.117568     31.117568     62.235137
     -2.797798     28.656157     28.656157     57.312315
     -2.787788     26.153068     26.153068     52.306136
     -2.777778     23.577085     23.577085     47.154170
     -2.767768     21.076798     21.076798     42.153597
     -2.757758     18.896125     18.896125     37.792251
     -2.747748     17.238590     17.238590     34.477180
     -2.737738     16.164504     16.164504     32.329008
     -2.727728     15.583450     15.583450     31.166900
     -2.717718     15.344290     15.344290     30.688580
     -2.707708     15.362013     15.362013     30.724025
     -2.697698     15.694850     15.694850     31.389700
     -2.687688     16.514824     16.514824     33.029647
     -2.677678     17.983520     17.983520     35.967040
     -2.667668     20.109424     20.109424     40.218848
     -2.657658     22.680728     22.680728     45.361455
     -2.647648     25.323963     25.323963     50.647926
     -2.637638     27.659742     27.659742     55.319483
     -2.627628     29.463784     29.463784     58.927568
     -2.617618     30.737910     30.737910     61.475820
     -2.607608     31.655601     31.655601     63.311203
     -2.597598     32.428077     32.428077     64.856153
     -2.587588     33.180660     33.180660     66.361320
     -2.577578     33.905930     33.905930     67.811860
     -2.567568     34.493992     34.493992     68.987984
     -2.557558     34.788933     34.788933     69.577866
     -2.547548     34.624351     34.624351     69.248702
     -2.537538     33.837289     33.837289     67.674579
     -2.527528     32.297733     32.297733     64.595467
     -2.517518     29.979978     29.979978     59.959955
     -2.507508     27.051847     27.051847     54.103694
     -2.497497     23.916385     23.916385     47.832770
     -2.487487     21.149806     21.149806     42.299612
     -2.477477     19.337290     19.337290     38.674581
     -2.467467     18.873507     18.873507     37.747014
     -2.457457     19.823015     19.823015     39.646031
     -2.447447     21.910291     21.910291     43.820581
     -2.437437     24.646636     24.646636     49.293271
     -2.427427     27.535187     27.535187     55.070374
     -2.417417     30.257431     30.257431     60.514862
     -2.407407     32.752620     32.752620     65.505240
     -2.397397     35.152609     35.152609     70.305218
     -2.387387     37.605977     37.605977     75.211954
     -2.377377     40.082671     40.082671     80.165343
     -2.367367     42.264604     42.264604     84.529208
     -2.357357     43.589861     43.589861     87.179721
     -2.347347     43.444992     43.444992     86.889984
     -2.337337     41.425921     41.425921     82.851842
     -2.327327     37.550301     37.550301     75.100601
     -2.317317     32.323416     32.323416     64.646832
     -2.307307     26.627230     26.627230     53.254459
     -2.297297     21.481649     21.481649     42.963298
     -2.287287     17.776104     17.776104     35.552208
     -2.277277     16.066674     16.066674     32.133348
     -2.267267     16.490991     16.490991     32.981981
     -2.257257     18.801269     18.801269     37.602539
     -2.247247     22.480257     22.480257     44.960513
     -2.237237     26.891351     26.891351     53.782702
     -2.227227     31.415516     31.415516     62.831033
     -2.217217     35.538636     35.538636     71.077272
     -2.207207     38.874579     38.874579     77.749158
     -2.197197     41.139710     41.139710     82.279421
     -2.187187     42.120592     42.120592     84.241185
     -2.177177     41.678609     41.678609     83.357217
     -2.167167     39.804368     39.804368     79.608735
     -2.157157     36.687177     36.687177     73.374355
     -2.147147     32.735481     32.735481     65.470962
     -2.137137     28.501056     28.501056     57.002113
     -2.127127     24.518481     24.518481     49.036961
     -2.117117     21.132833     21.132833     42.265666
     -2.107107     18.406809     18.406809     36.813618
     -2.097097     16.156830     16.156830     32.313660
     -2.087087     14.093427     14.093427     28.186853
     -2.077077     11.984677     11.984677     23.969354
     -2.067067      9.758338      9.758338     19.516677
     -2.057057      7.504635      7.504635     15.009270
     -2.047047      5.401369      5.401369     10.802739
     -2.037037      3.617606      3.617606      7.235213
     -2.027027      2.247257      2.247257      4.494515
     -2.017017      1.293259      1.293259      2.586518
     -2.007007      0.692029      0.692029      1.384058
     -1.996997      0.353783      0.353783      0.707567
     -1.986987      0.198139      0.198139      0.396278
     -1.976977      0.176490      0.176490      0.352979
     -1.966967      0.282523      0.282523      0.565045
     -1.956957      0.555117      0.555117      1.110233
     -1.946947      1.074851      1.074851      2.149702
     -1.936937      1.950831      1.950831      3.901662
     -1.926927      3.293249      3.293249      6.586499
     -1.916917      5.171895      5.171895     10.343789
     -1.906907      7.570432      7.570432     15.140864
     -1.896897     10.354908     10.354908     20.709817
     -1.886887     13.275186     13.275186     26.550373
     -1.876877     16.006917     16.006917     32.013834
     -1.866867     18.224390     18.224390     36.448780
     -1.856857     19.681370     19.681370     39.362741
     -1.846847     20.274461     20.274461     40.548923
     -1.836837     20.069774     20.069774     40.139548
     -1.826827     19.282669     19.282669     38.565338
     -1.816817     18.210392     18.210392     36.420785
     -1.806807     17.132074     17.132074     34.264148
     -1.796797     16.209205     16.209205     32.418410
     -1.786787     15.430777     15.430777     30.861553
     -1.776777     14.635210     14.635210     29.270420
     -1.766767     13.604555     13.604555     27.209110
     -1.756757     12.185542     12.185542     24.371084
     -1.746747     10.376098     10.376098     20.752196
     -1.736737      8.338000      8.338000     16.676000
     -1.726727      6.341227      6.341227     12.682453
     -1.716717      4.681561      4.681561      9.363122
     -1.706707      3.617194      3.617194      7.234388
     -1.696697      3.344165      3.344165      6.688331
     -1.686687      3.996402      3.996402      7.992805
     -1.676677      5.638311      5.638311     11.276621
     -1.666667      8.227737      8.227737     16.455475
     -1.656657     11.557822     11.557822     23.115644
     -1.646647     15.217654     15.217654     30.435307
     -1.636637     18.620827     18.620827     37.241655
     -1.626627     21.125865     21.125865     42.251729
