# EIG2DOS: Utility for SIESTA to obtain the electronic density of states
#  E. Artacho, Apr 1999, A. Garcia, Apr 2012
#  Nick R. Papior, Feb 2017
# ------------------------------------------
# Eigenvalues calculated from a non-polarized calculation
# Eigenvalues read from siesta.EIG
# Kpoint weights read from siesta.KP
# Using smearing parameter:   0.0500
# Using 1000 points in the energy range
# Selected bands: 1 to: 2981
# Emin, Emax in file for selected band(s):    -27.1170464    218.3349560
# Nbands, Nspin, Nk   =   2981     1     1
# E_F                 =    -4.2715 eV --> (shifted to ZERO)
# Broadening          =     0.0500 eV
#
#        E            N(up)  (=)   N(down)         Ntot
     -5.000000     41.324440     41.324440     82.648879
     -4.989990     42.884762     42.884762     85.769523
     -4.979980     43.974053     43.974053     87.948107
     -4.969970     44.339667     44.339667     88.679334
     -4.959960     43.766677     43.766677     87.533354
     -4.949950     42.182081     42.182081     84.364163
     -4.939940     39.713221     39.713221     79.426441
     -4.929930     36.693524     36.693524     73.387048
     -4.919920     33.631445     33.631445     67.262891
     -4.909910     31.157417     31.157417     62.314833
     -4.899900     29.944429     29.944429     59.888859
     -4.889890     30.582259     30.582259     61.164517
     -4.879880     33.398009     33.398009     66.796017
     -4.869870     38.262350     38.262350     76.524700
     -4.859860     44.473918     44.473918     88.947836
     -4.849850     50.824999     50.824999    101.649998
     -4.839840     55.888052     55.888052    111.776104
     -4.829830     58.445812     58.445812    116.891625
     -4.819820     57.888965     57.888965    115.777930
     -4.809810     54.398306     54.398306    108.796613
     -4.799800     48.829744     48.829744     97.659488
     -4.789790     42.370767     42.370767     84.741535
     -4.779780     36.141060     36.141060     72.282119
     -4.769770     30.907904     30.907904     61.815808
     -4.759760     26.995713     26.995713     53.991426
     -4.749750     24.360298     24.360298     48.720596
     -4.739740     22.738626     22.738626     45.477251
     -4.729730     21.790116     21.790116     43.580233
     -4.719720     21.187151     21.187151     42.374302
     -4.709710     20.653483     20.653483     41.306966
     -4.699700     19.972338     19.972338     39.944676
     -4.689690     18.991907     18.991907     37.983813
     -4.679680     17.648791     17.648791     35.297582
     -4.669670     16.012042     16.012042     32.024083
     -4.659660     14.328228     14.328228     28.656456
     -4.649650     13.033963     13.033963     26.067926
     -4.639640     12.706173     12.706173     25.412346
     -4.629630     13.940498     13.940498     27.880997
     -4.619620     17.175201     17.175201     34.350402
     -4.609610     22.503870     22.503870     45.007740
     -4.599600     29.540527     29.540527     59.081055
     -4.589590     37.406781     37.406781     74.813563
     -4.579580     44.887892     44.887892     89.775784
     -4.569570     50.745715     50.745715    101.491430
     -4.559560     54.099196     54.099196    108.198393
     -4.549550     54.729205     54.729205    109.458409
     -4.539540     53.173696     53.173696    106.347392
     -4.529530     50.557414     50.557414    101.114828
     -4.519520     48.210968     48.210968     96.421935
     -4.509510     47.221315     47.221315     94.442630
     -4.499499     48.078972     48.078972     96.157943
     -4.489489     50.542088     50.542088    101.084177
     -4.479479     53.750545     53.750545    107.501090
     -4.469469     56.532837     56.532837    113.065675
     -4.459459     57.787474     57.787474    115.574947
     -4.449449     56.806809     56.806809    113.613617
     -4.439439     53.445994     53.445994    106.891987
     -4.429429     48.107198     48.107198     96.214396
     -4.419419     41.579720     41.579720     83.159441
     -4.409409     34.817870     34.817870     69.635739
     -4.399399     28.734517     28.734517     57.469034
     -4.389389     24.050977     24.050977     48.101954
     -4.379379     21.205304     21.205304     42.410608
     -4.369369     20.307554     20.307554     40.615107
     -4.359359     21.141988     21.141988     42.283977
     -4.349349     23.229376     23.229376     46.458752
     -4.339339     25.954427     25.954427     51.908853
     -4.329329     28.733732     28.733732     57.467463
     -4.319319     31.170546     31.170546     62.341091
     -4.309309     33.139309     33.139309     66.278618
     -4.299299     34.770360     34.770360     69.540721
     -4.289289     36.346045     36.346045     72.692091
     -4.279279     38.149083     38.149083     76.298165
     -4.269269     40.312435     40.312435     80.624869
     -4.259259     42.715222     42.715222     85.430444
     -4.249249     44.962313     44.962313     89.924625
     -4.239239     46.472777     46.472777     92.945555
     -4.229229     46.670651     46.670651     93.341301
     -4.219219     45.219454     45.219454     90.438909
     -4.209209     42.197876     42.197876     84.395753
     -4.199199     38.119118     38.119118     76.238236
     -4.189189     33.765908     33.765908     67.531817
     -4.179179     29.912171     29.912171     59.824343
     -4.169169     27.066382     27.066382     54.132764
     -4.159159     25.357160     25.357160     50.714320
     -4.149149     24.599834     24.599834     49.199669
     -4.139139     24.487630     24.487630     48.975260
     -4.129129     24.796309     24.796309     49.592618
     -4.119119     25.496582     25.496582     50.993165
     -4.109109     26.721024     26.721024     53.442047
     -4.099099     28.604806     28.604806     57.209613
     -4.089089     31.085310     31.085310     62.170619
     -4.079079     33.777601     33.777601     67.555202
     -4.069069     36.017992     36.017992     72.035984
     -4.059059     37.085034     37.085034     74.170069
     -4.049049     36.503749     36.503749     73.007498
     -4.039039     34.278166     34.278166     68.556333
     -4.029029     30.926187     30.926187     61.852373
     -4.019019     27.298144     27.298144     54.596289
     -4.009009     24.278636     24.278636     48.557272
     -3.998999     22.523737     22.523737     45.047475
     -3.988989     22.343818     22.343818     44.687636
     -3.978979     23.742848     23.742848     47.485696
     -3.968969     26.539823     26.539823     53.079646
     -3.958959     30.478764     30.478764     60.957529
     -3.948949     35.279377     35.279377     70.558754
     -3.938939     40.644136     40.644136     81.288272
     -3.928929     46.267644     46.267644     92.535288
     -3.918919     51.873157     51.873157    103.746315
     -3.908909     57.255557     57.255557    114.511114
     -3.898899     62.284070     62.284070    124.568140
     -3.888889     66.836886     66.836886    133.673772
     -3.878879     70.691198     70.691198    141.382397
     -3.868869     73.438266     73.438266    146.876532
     -3.858859     74.498802     74.498802    148.997604
     -3.848849     73.270043     73.270043    146.540086
     -3.838839     69.363680     69.363680    138.727361
     -3.828829     62.833653     62.833653    125.667306
     -3.818819     54.281147     54.281147    108.562295
     -3.808809     44.772017     44.772017     89.544034
     -3.798799     35.585441     35.585441     71.170881
     -3.788789     27.886625     27.886625     55.773249
     -3.778779     22.442587     22.442587     44.885174
     -3.768769     19.471245     19.471245     38.942490
     -3.758759     18.654293     18.654293     37.308585
     -3.748749     19.287817     19.287817     38.575634
     -3.738739     20.512517     20.512517     41.025034
     -3.728729     21.558599     21.558599     43.117198
     -3.718719     21.948269     21.948269     43.896539
     -3.708709     21.611850     21.611850     43.223701
     -3.698699     20.889659     20.889659     41.779319
     -3.688689     20.413529     20.413529     40.827059
     -3.678679     20.891158     20.891158     41.782317
     -3.668669     22.849570     22.849570     45.699140
     -3.658659     26.419059     26.419059     52.838118
     -3.648649     31.239474     31.239474     62.478947
     -3.638639     36.534853     36.534853     73.069706
     -3.628629     41.336753     41.336753     82.673506
     -3.618619     44.770471     44.770471     89.540942
     -3.608609     46.290514     46.290514     92.581029
     -3.598599     45.782025     45.782025     91.564050
     -3.588589     43.515274     43.515274     87.030548
     -3.578579     40.004816     40.004816     80.009631
     -3.568569     35.845803     35.845803     71.691607
     -3.558559     31.577459     31.577459     63.154917
     -3.548549     27.589915     27.589915     55.179829
     -3.538539     24.075604     24.075604     48.151207
     -3.528529     21.030626     21.030626     42.061252
     -3.518519     18.312565     18.312565     36.625131
     -3.508509     15.743316     15.743316     31.486632
     -3.498498     13.218821     13.218821     26.437642
     -3.488488     10.777394     10.777394     21.554788
     -3.478478      8.597412      8.597412     17.194825
     -3.468468      6.930972      6.930972     13.861944
     -3.458458      6.007342      6.007342     12.014683
     -3.448448      5.944524      5.944524     11.889048
     -3.438438      6.695283      6.695283     13.390567
     -3.428428      8.040759      8.040759     16.081517
     -3.418418      9.636885      9.636885     19.273769
     -3.408408     11.109806     11.109806     22.219613
     -3.398398     12.179098     12.179098     24.358196
     -3.388388     12.767178     12.767178     25.534356
     -3.378378     13.046805     13.046805     26.093610
     -3.368368     13.398542     13.398542     26.797084
     -3.358358     14.289699     14.289699     28.579399
     -3.348348     16.121055     16.121055     32.242110
     -3.338338     19.095071     19.095071     38.190142
     -3.328328     23.138227     23.138227     46.276454
     -3.318318     27.882150     27.882150     55.764300
     -3.308308     32.697374     32.697374     65.394748
     -3.298298     36.782485     36.782485     73.564970
     -3.288288     39.317316     39.317316     78.634632
     -3.278278     39.667621     39.667621     79.335242
     -3.268268     37.584475     37.584475     75.168950
     -3.258258     33.311463     33.311463     66.622926
     -3.248248     27.534273     27.534273     55.068547
     -3.238238     21.179799     21.179799     42.359597
     -3.228228     15.149906     15.149906     30.299811
     -3.218218     10.104770     10.104770     20.209540
     -3.208208      6.374309      6.374309     12.748618
     -3.198198      4.003241      4.003241      8.006482
     -3.188188      2.874238      2.874238      5.748476
     -3.178178      2.834849      2.834849      5.669699
     -3.168168      3.775017      3.775017      7.550033
     -3.158158      5.640355      5.640355     11.280710
     -3.148148      8.399059      8.399059     16.798119
     -3.138138     11.995021     11.995021     23.990042
     -3.128128     16.314965     16.314965     32.629930
     -3.118118     21.179737     21.179737     42.359475
     -3.108108     26.351550     26.351550     52.703100
     -3.098098     31.542709     31.542709     63.085418
     -3.088088     36.421021     36.421021     72.842042
     -3.078078     40.622483     40.622483     81.244966
     -3.068068     43.786091     43.786091     87.572183
     -3.058058     45.611296     45.611296     91.222592
     -3.048048     45.917363     45.917363     91.834725
     -3.038038     44.676569     44.676569     89.353138
     -3.028028     42.008887     42.008887     84.017774
     -3.018018     38.151662     38.151662     76.303324
     -3.008008     33.430673     33.430673     66.861345
     -2.997998     28.248086     28.248086     56.496171
     -2.987988     23.079776     23.079776     46.159552
     -2.977978     18.460352     18.460352     36.920704
     -2.967968     14.939356     14.939356     29.878712
     -2.957958     13.008633     13.008633     26.017266
     -2.947948     13.014178     13.014178     26.028355
     -2.937938     15.070103     15.070103     30.140206
     -2.927928     18.993461     18.993461     37.986921
     -2.917918     24.282663     24.282663     48.565325
     -2.907908     30.164872     30.164872     60.329743
     -2.897898     35.726804     35.726804     71.453608
     -2.887888     40.112862     40.112862     80.225724
     -2.877878     42.735517     42.735517     85.471033
     -2.867868     43.419838     43.419838     86.839675
     -2.857858     42.417811     42.417811     84.835623
     -2.847848     40.278962     40.278962     80.557924
     -2.837838     37.628416     37.628416     75.256832
     -2.827828     34.947540     34.947540     69.895080
     -2.817818     32.450469     32.450469     64.900938
     -2.807808     30.101311     30.101311     60.202622
     -2.797798     27.746316     27.746316     55.492632
     -2.787788     25.279858     25.279858     50.559716
     -2.777778     22.752153     22.752153     45.504305
     -2.767768     20.365572     20.365572     40.731145
     -2.757758     18.373084     18.373084     36.746167
     -2.747748     16.948822     16.948822     33.897643
     -2.737738     16.114136     16.114136     32.228272
     -2.727728     15.764235     15.764235     31.528471
     -2.717718     15.773619     15.773619     31.547238
     -2.707708     16.104931     16.104931     32.209863
     -2.697698     16.841663     16.841663     33.683326
     -2.687688     18.115574     18.115574     36.231148
     -2.677678     19.973454     19.973454     39.946908
     -2.667668     22.275210     22.275210     44.550421
     -2.657658     24.701370     24.701370     49.402739
     -2.647648     26.878345     26.878345     53.756690
     -2.637638     28.549774     28.549774     57.099549
     -2.627628     29.687857     29.687857     59.375714
     -2.617618     30.476286     30.476286     60.952572
     -2.607608     31.180650     31.180650     62.361301
     -2.597598     31.992292     31.992292     63.984583
     -2.587588     32.937442     32.937442     65.874883
     -2.577578     33.885800     33.885800     67.771600
     -2.567568     34.622035     34.622035     69.244069
     -2.557558     34.916759     34.916759     69.833517
     -2.547548     34.564527     34.564527     69.129054
     -2.537538     33.407305     33.407305     66.814610
     -2.527528     31.380347     31.380347     62.760694
     -2.517518     28.586220     28.586220     57.172440
     -2.507508     25.353570     25.353570     50.707140
     -2.497497     22.219236     22.219236     44.438472
     -2.487487     19.806278     19.806278     39.612556
     -2.477477     18.633361     18.633361     37.266722
     -2.467467     18.938171     18.938171     37.876342
     -2.457457     20.598763     20.598763     41.197526
     -2.447447     23.192909     23.192909     46.385819
     -2.437437     26.171527     26.171527     52.343054
     -2.427427     29.069384     29.069384     58.138769
     -2.417417     31.658197     31.658197     63.316394
     -2.407407     33.972402     33.972402     67.944804
     -2.397397     36.196357     36.196357     72.392714
     -2.387387     38.467892     38.467892     76.935784
     -2.377377     40.696507     40.696507     81.393013
     -2.367367     42.493515     42.493515     84.987029
     -2.357357     43.263468     43.263468     86.526935
     -2.347347     42.430093     42.430093     84.860186
     -2.337337     39.700600     39.700600     79.401199
     -2.327327     35.246464     35.246464     70.492927
     -2.317317     29.714645     29.714645     59.429290
     -2.307307     24.063775     24.063775     48.127550
     -2.297297     19.299664     19.299664     38.599328
     -2.287287     16.219007     16.219007     32.438013
     -2.277277     15.247073     15.247073     30.494146
     -2.267267     16.399191     16.399191     32.798383
     -2.257257     19.344893     19.344893     38.689787
     -2.247247     23.529513     23.529513     47.059027
     -2.237237     28.308137     28.308137     56.616275
     -2.227227     33.057602     33.057602     66.115204
     -2.217217     37.245999     37.245999     74.491999
     -2.207207     40.456475     40.456475     80.912949
     -2.197197     42.382470     42.382470     84.764939
     -2.187187     42.825359     42.825359     85.650719
     -2.177177     41.719345     41.719345     83.438690
     -2.167167     39.179570     39.179570     78.359141
     -2.157157     35.534905     35.534905     71.069810
     -2.147147     31.295521     31.295521     62.591041
     -2.137137     27.034681     27.034681     54.069361
     -2.127127     23.220425     23.220425     46.440849
     -2.117117     20.076467     20.076467     40.152935
     -2.107107     17.546620     17.546620     35.093241
     -2.097097     15.381672     15.381672     30.763344
     -2.087087     13.298347     13.298347     26.596693
     -2.077077     11.123672     11.123672     22.247344
     -2.067067      8.856513      8.856513     17.713026
     -2.057057      6.633394      6.633394     13.266788
     -2.047047      4.638137      4.638137      9.276274
     -2.037037      3.013421      3.013421      6.026842
     -2.027027      1.814602      1.814602      3.629203
     -2.017017      1.012677      1.012677      2.025354
     -2.007007      0.528058      0.528058      1.056115
     -1.996997      0.270608      0.270608      0.541216
     -1.986987      0.169988      0.169988      0.339976
     -1.976977      0.192495      0.192495      0.384991
     -1.966967      0.347928      0.347928      0.695856
     -1.956957      0.690171      0.690171      1.380343
     -1.946947      1.310987      1.310987      2.621973
     -1.936937      2.322598      2.322598      4.645196
     -1.926927      3.825412      3.825412      7.650824
     -1.916917      5.864072      5.864072     11.728143
     -1.906907      8.385147      8.385147     16.770295
     -1.896897     11.216099     11.216099     22.432199
     -1.886887     14.081155     14.081155     28.162310
     -1.876877     16.655290     16.655290     33.310579
     -1.866867     18.640639     18.640639     37.281278
     -1.856857     19.840645     19.840645     39.681289
     -1.846847     20.209706     20.209706     40.419413
     -1.836837     19.864837     19.864837     39.729673
     -1.826827     19.054433     19.054433     38.108866
     -1.816817     18.088132     18.088132     36.176264
     -1.806807     17.245083     17.245083     34.490166
     -1.796797     16.693222     16.693222     33.386444
     -1.786787     16.455596     16.455596     32.911192
     -1.776777     16.439625     16.439625     32.879251
     -1.766767     16.508397     16.508397     33.016794
     -1.756757     16.546387     16.546387     33.092775
     -1.746747     16.479780     16.479780     32.959560
     -1.736737     16.250897     16.250897     32.501793
     -1.726727     15.785660     15.785660     31.571320
     -1.716717     14.998709     14.998709     29.997418
     -1.706707     13.847270     13.847270     27.694540
     -1.696697     12.399949     12.399949     24.799897
     -1.686687     10.866684     10.866684     21.733369
     -1.676677      9.555909      9.555909     19.111817
     -1.666667      8.768246      8.768246     17.536491
     -1.656657      8.673185      8.673185     17.346370
     -1.646647      9.225863      9.225863     18.451726
     -1.636637     10.164218     10.164218     20.328436
     -1.626627     11.093491     11.093491     22.186982
