# EIG2DOS: Utility for SIESTA to obtain the electronic density of states
#  E. Artacho, Apr 1999, A. Garcia, Apr 2012
#  Nick R. Papior, Feb 2017
# ------------------------------------------
# Eigenvalues calculated from a non-polarized calculation
# Eigenvalues read from siesta.EIG
# Kpoint weights read from siesta.KP
# Using smearing parameter:   0.0500
# Using 1000 points in the energy range
# Selected bands: 1 to: 2981
# Emin, Emax in file for selected band(s):    -27.2006471    218.3709710
# Nbands, Nspin, Nk   =   2981     1     1
# E_F                 =    -4.2374 eV --> (shifted to ZERO)
# Broadening          =     0.0500 eV
#
#        E            N(up)  (=)   N(down)         Ntot
     -5.000000     31.671851     31.671851     63.343703
     -4.989990     36.049630     36.049630     72.099261
     -4.979980     40.172319     40.172319     80.344638
     -4.969970     43.405795     43.405795     86.811591
     -4.959960     45.177369     45.177369     90.354738
     -4.949950     45.162040     45.162040     90.324081
     -4.939940     43.400887     43.400887     86.801773
     -4.929930     40.312597     40.312597     80.625193
     -4.919920     36.609886     36.609886     73.219772
     -4.909910     33.163671     33.163671     66.327342
     -4.899900     30.852483     30.852483     61.704967
     -4.889890     30.407214     30.407214     60.814428
     -4.879880     32.246682     32.246682     64.493365
     -4.869870     36.320760     36.320760     72.641520
     -4.859860     42.020543     42.020543     84.041086
     -4.849850     48.235187     48.235187     96.470375
     -4.839840     53.595839     53.595839    107.191677
     -4.829830     56.856100     56.856100    113.712199
     -4.819820     57.269878     57.269878    114.539755
     -4.809810     54.805267     54.805267    109.610534
     -4.799800     50.102063     50.102063    100.204127
     -4.789790     44.203588     44.203588     88.407175
     -4.779780     38.195980     38.195980     76.391959
     -4.769770     32.910703     32.910703     65.821405
     -4.759760     28.785686     28.785686     57.571372
     -4.749750     25.886862     25.886862     51.773725
     -4.739740     24.024749     24.024749     48.049498
     -4.729730     22.887950     22.887950     45.775900
     -4.719720     22.143778     22.143778     44.287556
     -4.709710     21.494840     21.494840     42.989680
     -4.699700     20.707254     20.707254     41.414507
     -4.689690     19.634832     19.634832     39.269663
     -4.679680     18.255935     18.255935     36.511871
     -4.669670     16.720443     16.720443     33.440885
     -4.659660     15.382560     15.382560     30.765121
     -4.649650     14.784160     14.784160     29.568320
     -4.639640     15.562336     15.562336     31.124672
     -4.629630     18.282488     18.282488     36.564976
     -4.619620     23.233336     23.233336     46.466672
     -4.609610     30.248974     30.248974     60.497947
     -4.599600     38.633006     38.633006     77.266011
     -4.589590     47.241237     47.241237     94.482473
     -4.579580     54.730123     54.730123    109.460247
     -4.569570     59.911358     59.911358    119.822717
     -4.559560     62.097631     62.097631    124.195261
     -4.549550     61.311885     61.311885    122.623769
     -4.539540     58.274785     58.274785    116.549570
     -4.529530     54.166811     54.166811    108.333621
     -4.519520     50.247028     50.247028    100.494057
     -4.509510     47.464224     47.464224     94.928447
     -4.499499     46.196669     46.196669     92.393339
     -4.489489     46.204716     46.204716     92.409432
     -4.479479     46.796366     46.796366     93.592732
     -4.469469     47.124728     47.124728     94.249456
     -4.459459     46.492859     46.492859     92.985719
     -4.449449     44.554311     44.554311     89.108622
     -4.439439     41.357643     41.357643     82.715287
     -4.429429     37.257589     37.257589     74.515178
     -4.419419     32.765936     32.765936     65.531873
     -4.409409     28.418511     28.418511     56.837022
     -4.399399     24.696263     24.696263     49.392526
     -4.389389     21.988871     21.988871     43.977742
     -4.379379     20.564090     20.564090     41.128179
     -4.369369     20.520787     20.520787     41.041575
     -4.359359     21.742095     21.742095     43.484191
     -4.349349     23.892158     23.892158     47.784316
     -4.339339     26.490094     26.490094     52.980188
     -4.329329     29.052458     29.052458     58.104916
     -4.319319     31.250858     31.250858     62.501716
     -4.309309     33.015285     33.015285     66.030570
     -4.299299     34.535040     34.535040     69.070080
     -4.289289     36.152189     36.152189     72.304378
     -4.279279     38.183914     38.183914     76.367828
     -4.269269     40.736291     40.736291     81.472582
     -4.259259     43.580869     43.580869     87.161739
     -4.249249     46.155458     46.155458     92.310916
     -4.239239     47.715250     47.715250     95.430501
     -4.229229     47.599083     47.599083     95.198166
     -4.219219     45.509758     45.509758     91.019515
     -4.209209     41.678165     41.678165     83.356331
     -4.199199     36.820597     36.820597     73.641194
     -4.189189     31.897053     31.897053     63.794106
     -4.179179     27.780724     27.780724     55.561449
     -4.169169     24.991673     24.991673     49.983347
     -4.159159     23.606069     23.606069     47.212139
     -4.149149     23.356253     23.356253     46.712506
     -4.139139     23.845824     23.845824     47.691649
     -4.129129     24.763396     24.763396     49.526792
     -4.119119     25.996691     25.996691     51.993383
     -4.109109     27.604467     27.604467     55.208933
     -4.099099     29.670302     29.670302     59.340603
     -4.089089     32.118026     32.118026     64.236052
     -4.079079     34.594287     34.594287     69.188574
     -4.069069     36.501813     36.501813     73.003626
     -4.059059     37.195122     37.195122     74.390244
     -4.049049     36.258222     36.258222     72.516445
     -4.039039     33.725634     33.725634     67.451269
     -4.029029     30.127154     30.127154     60.254307
     -4.019019     26.328331     26.328331     52.656662
     -4.009009     23.246949     23.246949     46.493898
     -3.998999     21.582926     21.582926     43.165851
     -3.988989     21.673821     21.673821     43.347641
     -3.978979     23.505248     23.505248     47.010497
     -3.968969     26.823612     26.823612     53.647223
     -3.958959     31.266645     31.266645     62.533289
     -3.948949     36.453404     36.453404     72.906808
     -3.938939     42.027342     42.027342     84.054684
     -3.928929     47.679755     47.679755     95.359511
     -3.918919     53.174574     53.174574    106.349148
     -3.908909     58.364227     58.364227    116.728455
     -3.898899     63.165986     63.165986    126.331971
     -3.888889     67.483132     67.483132    134.966265
     -3.878879     71.097894     71.097894    142.195789
     -3.868869     73.600533     73.600533    147.201066
     -3.858859     74.419699     74.419699    148.839397
     -3.848849     72.975602     72.975602    145.951203
     -3.838839     68.911217     68.911217    137.822434
     -3.828829     62.304890     62.304890    124.609781
     -3.818819     53.761649     53.761649    107.523298
     -3.808809     44.327289     44.327289     88.654578
     -3.798799     35.245927     35.245927     70.491853
     -3.788789     27.648035     27.648035     55.296070
     -3.778779     22.279107     22.279107     44.558215
     -3.768769     19.353109     19.353109     38.706218
     -3.758759     18.560872     18.560872     37.121743
     -3.748749     19.211570     19.211570     38.423139
     -3.738739     20.454444     20.454444     40.908888
     -3.728729     21.519411     21.519411     43.038822
     -3.718719     21.920416     21.920416     43.840833
     -3.708709     21.576520     21.576520     43.153041
     -3.698699     20.820765     20.820765     41.641529
     -3.688689     20.288110     20.288110     40.576220
     -3.678679     20.702754     20.702754     41.405507
     -3.668669     22.618610     22.618610     45.237220
     -3.658659     26.193742     26.193742     52.387484
     -3.648649     31.083481     31.083481     62.166963
     -3.638639     36.504489     36.504489     73.008979
     -3.628629     41.456786     41.456786     82.913571
     -3.618619     45.020570     45.020570     90.041139
     -3.608609     46.609979     46.609979     93.219958
     -3.598599     46.091217     46.091217     92.182435
     -3.588589     43.743502     43.743502     87.487004
     -3.578579     40.111935     40.111935     80.223869
     -3.568569     35.829665     35.829665     71.659329
     -3.558559     31.467550     31.467550     62.935101
     -3.548549     27.433421     27.433421     54.866842
     -3.538539     23.922767     23.922767     47.845534
     -3.528529     20.923202     20.923202     41.846404
     -3.518519     18.276001     18.276001     36.552003
     -3.508509     15.782316     15.782316     31.564632
     -3.498498     13.316626     13.316626     26.633252
     -3.488488     10.899447     10.899447     21.798893
     -3.478478      8.699219      8.699219     17.398438
     -3.468468      6.968661      6.968661     13.937321
     -3.458458      5.948824      5.948824     11.897648
     -3.448448      5.779313      5.779313     11.558626
     -3.438438      6.440963      6.440963     12.881926
     -3.428428      7.743593      7.743593     15.487186
     -3.418418      9.364082      9.364082     18.728164
     -3.408408     10.933072     10.933072     21.866144
     -3.398398     12.153095     12.153095     24.306190
     -3.388388     12.910003     12.910003     25.820006
     -3.378378     13.329827     13.329827     26.659654
     -3.368368     13.749540     13.749540     27.499080
     -3.358358     14.608701     14.608701     29.217401
     -3.348348     16.305751     16.305751     32.611503
     -3.338338     19.072676     19.072676     38.145352
     -3.328328     22.900803     22.900803     45.801605
     -3.318318     27.520340     27.520340     55.040679
     -3.308308     32.423862     32.423862     64.847724
     -3.298298     36.934633     36.934633     73.869266
     -3.288288     40.330845     40.330845     80.661690
     -3.278278     42.018948     42.018948     84.037896
     -3.268268     41.705666     41.705666     83.411333
     -3.258258     39.488152     39.488152     78.976304
     -3.248248     35.805176     35.805176     71.610352
     -3.238238     31.266285     31.266285     62.532569
     -3.228228     26.448100     26.448100     52.896200
     -3.218218     21.760569     21.760569     43.521138
     -3.208208     17.431538     17.431538     34.863077
     -3.198198     13.581300     13.581300     27.162600
     -3.188188     10.317147     10.317147     20.634295
     -3.178178      7.791725      7.791725     15.583450
     -3.168168      6.211535      6.211535     12.423071
     -3.158158      5.812441      5.812441     11.624882
     -3.148148      6.819170      6.819170     13.638339
     -3.138138      9.389642      9.389642     18.779285
     -3.128128     13.538632     13.538632     27.077264
     -3.118118     19.051373     19.051373     38.102747
     -3.108108     25.424702     25.424702     50.849404
     -3.098098     31.885776     31.885776     63.771552
     -3.088088     37.517987     37.517987     75.035974
     -3.078078     41.474165     41.474165     82.948330
     -3.068068     43.204963     43.204963     86.409926
     -3.058058     42.608067     42.608067     85.216135
     -3.048048     40.030027     40.030027     80.060054
     -3.038038     36.117812     36.117812     72.235624
     -3.028028     31.588315     31.588315     63.176630
     -3.018018     27.021290     27.021290     54.042580
     -3.008008     22.762749     22.762749     45.525498
     -2.997998     18.962303     18.962303     37.924606
     -2.987988     15.697453     15.697453     31.394907
     -2.977978     13.101049     13.101049     26.202099
     -2.967968     11.420867     11.420867     22.841734
     -2.957958     10.985799     10.985799     21.971598
     -2.947948     12.099362     12.099362     24.198725
     -2.937938     14.906351     14.906351     29.812703
     -2.927928     19.281775     19.281775     38.563551
     -2.917918     24.783093     24.783093     49.566186
     -2.907908     30.692816     30.692816     61.385631
     -2.897898     36.155721     36.155721     72.311442
     -2.887888     40.381428     40.381428     80.762855
     -2.877878     42.849217     42.849217     85.698434
     -2.867868     43.437654     43.437654     86.875308
     -2.857858     42.422416     42.422416     84.844832
     -2.847848     40.338538     40.338538     80.677075
     -2.837838     37.764312     37.764312     75.528623
     -2.827828     35.121157     35.121157     70.242315
     -2.817818     32.575330     32.575330     65.150659
     -2.807808     30.075631     30.075631     60.151262
     -2.797798     27.492575     27.492575     54.985150
     -2.787788     24.775129     24.775129     49.550257
     -2.777778     22.037765     22.037765     44.075530
     -2.767768     19.534563     19.534563     39.069126
     -2.757758     17.543655     17.543655     35.087310
     -2.747748     16.236571     16.236571     32.473142
     -2.737738     15.613267     15.613267     31.226534
     -2.727728     15.540535     15.540535     31.081070
     -2.717718     15.864508     15.864508     31.729016
     -2.707708     16.518751     16.518751     33.037502
     -2.697698     17.551218     17.551218     35.102435
     -2.687688     19.048075     19.048075     38.096151
     -2.677678     21.005899     21.005899     42.011798
     -2.667668     23.245721     23.245721     46.491441
     -2.657658     25.440459     25.440459     50.880919
     -2.647648     27.252212     27.252212     54.504424
     -2.637638     28.498161     28.498161     56.996321
     -2.627628     29.239345     29.239345     58.478689
     -2.617618     29.734954     29.734954     59.469908
     -2.607608     30.292367     30.292367     60.584735
     -2.597598     31.106544     31.106544     62.213088
     -2.587588     32.177478     32.177478     64.354956
     -2.577578     33.330907     33.330907     66.661814
     -2.567568     34.299521     34.299521     68.599042
     -2.557558     34.801497     34.801497     69.602994
     -2.547548     34.587149     34.587149     69.174299
     -2.537538     33.472444     33.472444     66.944887
     -2.527528     31.391971     31.391971     62.783941
     -2.517518     28.472232     28.472232     56.944464
     -2.507508     25.081564     25.081564     50.163127
     -2.497497     21.800352     21.800352     43.600703
     -2.487487     19.290256     19.290256     38.580511
     -2.477477     18.100075     18.100075     36.200149
     -2.467467     18.488122     18.488122     36.976245
     -2.457457     20.340868     20.340868     40.681735
     -2.447447     23.227021     23.227021     46.454042
     -2.437437     26.566667     26.566667     53.133334
     -2.427427     29.843298     29.843298     59.686596
     -2.417417     32.765336     32.765336     65.530673
     -2.407407     35.304570     35.304570     70.609140
     -2.397397     37.595865     37.595865     75.191731
     -2.387387     39.750695     39.750695     79.501390
     -2.377377     41.682768     41.682768     83.365537
     -2.367367     43.042580     43.042580     86.085161
     -2.357357     43.306961     43.306961     86.613922
     -2.347347     41.992745     41.992745     83.985490
     -2.337337     38.898453     38.898453     77.796906
     -2.327327     34.259299     34.259299     68.518599
     -2.317317     28.740796     28.740796     57.481593
     -2.307307     23.273600     23.273600     46.547200
     -2.297297     18.803357     18.803357     37.606714
     -2.287287     16.056200     16.056200     32.112400
     -2.277277     15.395850     15.395850     30.791699
     -2.267267     16.796306     16.796306     33.592612
     -2.257257     19.908286     19.908286     39.816572
     -2.247247     24.176330     24.176330     48.352659
     -2.237237     28.964369     28.964369     57.928739
     -2.227227     33.658917     33.658917     67.317833
     -2.217217     37.733344     37.733344     75.466687
     -2.207207     40.773026     40.773026     81.546051
     -2.197197     42.477771     42.477771     84.955542
     -2.187187     42.667480     42.667480     85.334960
     -2.177177     41.309445     41.309445     82.618890
     -2.167167     38.559923     38.559923     77.119847
     -2.157157     34.783765     34.783765     69.567530
     -2.147147     30.508877     30.508877     61.017754
     -2.137137     26.301768     26.301768     52.603536
     -2.127127     22.602886     22.602886     45.205771
     -2.117117     19.598890     19.598890     39.197780
     -2.107107     17.200397     17.200397     34.400793
     -2.097097     15.138158     15.138158     30.276317
     -2.087087     13.124203     13.124203     26.248407
     -2.077077     10.992075     10.992075     21.984149
     -2.067067      8.751464      8.751464     17.502928
     -2.057057      6.548177      6.548177     13.096353
     -2.047047      4.571075      4.571075      9.142149
     -2.037037      2.964020      2.964020      5.928039
     -2.027027      1.781757      1.781757      3.563514
     -2.017017      0.995236      0.995236      1.990473
     -2.007007      0.527526      0.527526      1.055051
     -1.996997      0.296314      0.296314      0.592628
     -1.986987      0.247979      0.247979      0.495957
     -1.976977      0.379854      0.379854      0.759708
     -1.966967      0.752978      0.752978      1.505955
     -1.956957      1.495133      1.495133      2.990265
     -1.946947      2.787388      2.787388      5.574777
     -1.936937      4.823751      4.823751      9.647502
     -1.926927      7.739776      7.739776     15.479552
     -1.916917     11.523767     11.523767     23.047534
     -1.906907     15.945505     15.945505     31.891009
     -1.896897     20.546359     20.546359     41.092718
     -1.886887     24.717449     24.717449     49.434898
     -1.876877     27.852018     27.852018     55.704035
     -1.866867     29.517007     29.517007     59.034014
     -1.856857     29.574938     29.574938     59.149877
     -1.846847     28.210737     28.210737     56.421474
     -1.836837     25.861963     25.861963     51.723926
     -1.826827     23.086092     23.086092     46.172183
     -1.816817     20.409653     20.409653     40.819307
     -1.806807     18.198232     18.198232     36.396464
     -1.796797     16.578085     16.578085     33.156170
     -1.786787     15.432198     15.432198     30.864397
     -1.776777     14.476584     14.476584     28.953167
     -1.766767     13.392702     13.392702     26.785403
     -1.756757     11.963102     11.963102     23.926204
     -1.746747     10.152409     10.152409     20.304817
     -1.736737      8.103687      8.103687     16.207374
     -1.726727      6.065091      6.065091     12.130181
     -1.716717      4.294232      4.294232      8.588463
     -1.706707      2.988646      2.988646      5.977293
     -1.696697      2.264066      2.264066      4.528132
     -1.686687      2.168971      2.168971      4.337943
     -1.676677      2.705250      2.705250      5.410500
     -1.666667      3.829126      3.829126      7.658252
     -1.656657      5.428067      5.428067     10.856134
     -1.646647      7.293911      7.293911     14.587821
     -1.636637      9.124643      9.124643     18.249286
     -1.626627     10.577938     10.577938     21.155875
