# EIG2DOS: Utility for SIESTA to obtain the electronic density of states
#  E. Artacho, Apr 1999, A. Garcia, Apr 2012
#  Nick R. Papior, Feb 2017
# ------------------------------------------
# Eigenvalues calculated from a non-polarized calculation
# Eigenvalues read from siesta.EIG
# Kpoint weights read from siesta.KP
# Using smearing parameter:   0.0500
# Using 1000 points in the energy range
# Selected bands: 1 to: 2981
# Emin, Emax in file for selected band(s):    -27.2396381    218.3614410
# Nbands, Nspin, Nk   =   2981     1     1
# E_F                 =    -4.2497 eV --> (shifted to ZERO)
# Broadening          =     0.0500 eV
#
#        E            N(up)  (=)   N(down)         Ntot
     -5.000000     32.722928     32.722928     65.445856
     -4.989990     36.879406     36.879406     73.758812
     -4.979980     40.618826     40.618826     81.237651
     -4.969970     43.372211     43.372211     86.744422
     -4.959960     44.668716     44.668716     89.337431
     -4.949950     44.286385     44.286385     88.572770
     -4.939940     42.335058     42.335058     84.670116
     -4.929930     39.249118     39.249118     78.498235
     -4.919920     35.708912     35.708912     71.417824
     -4.909910     32.527392     32.527392     65.054784
     -4.899900     30.524837     30.524837     61.049673
     -4.889890     30.388601     30.388601     60.777202
     -4.879880     32.509027     32.509027     65.018053
     -4.869870     36.813534     36.813534     73.627068
     -4.859860     42.668520     42.668520     85.337040
     -4.849850     48.936768     48.936768     97.873536
     -4.839840     54.231818     54.231818    108.463635
     -4.829830     57.312080     57.312080    114.624159
     -4.819820     57.465438     57.465438    114.930875
     -4.809810     54.716342     54.716342    109.432684
     -4.799800     49.764741     49.764741     99.529483
     -4.789790     43.696981     43.696981     87.393963
     -4.779780     37.612696     37.612696     75.225393
     -4.769770     32.328651     32.328651     64.657301
     -4.759760     28.251973     28.251973     56.503946
     -4.749750     25.416713     25.416713     50.833426
     -4.739740     23.611395     23.611395     47.222791
     -4.729730     22.516693     22.516693     45.033387
     -4.719720     21.804334     21.804334     43.608668
     -4.709710     21.188314     21.188314     42.376628
     -4.699700     20.446170     20.446170     40.892341
     -4.689690     19.436685     19.436685     38.873369
     -4.679680     18.133056     18.133056     36.266112
     -4.669670     16.670920     16.670920     33.341839
     -4.659660     15.387214     15.387214     30.774429
     -4.649650     14.812518     14.812518     29.625035
     -4.639640     15.586806     15.586806     31.173611
     -4.629630     18.295824     18.295824     36.591648
     -4.619620     23.261385     23.261385     46.522770
     -4.609610     30.350149     30.350149     60.700299
     -4.599600     38.879521     38.879521     77.759043
     -4.589590     47.685412     47.685412     95.370825
     -4.579580     55.369155     55.369155    110.738309
     -4.569570     60.669369     60.669369    121.338737
     -4.559560     62.838611     62.838611    125.677223
     -4.549550     61.881747     61.881747    123.763494
     -4.539540     58.554123     58.554123    117.108247
     -4.529530     54.109597     54.109597    108.219195
     -4.519520     49.889086     49.889086     99.778172
     -4.509510     46.902652     46.902652     93.805304
     -4.499499     45.555200     45.555200     91.110401
     -4.489489     45.602000     45.602000     91.204000
     -4.479479     46.326019     46.326019     92.652037
     -4.469469     46.845971     46.845971     93.691943
     -4.459459     46.426322     46.426322     92.852644
     -4.449449     44.680185     44.680185     89.360369
     -4.439439     41.618276     41.618276     83.236552
     -4.429429     37.568322     37.568322     75.136643
     -4.419419     33.034703     33.034703     66.069406
     -4.409409     28.569122     28.569122     57.138245
     -4.399399     24.686856     24.686856     49.373713
     -4.389389     21.818604     21.818604     43.637209
     -4.379379     20.266805     20.266805     40.533611
     -4.369369     20.150398     20.150398     40.300796
     -4.359359     21.357062     21.357062     42.714124
     -4.349349     23.544525     23.544525     47.089051
     -4.339339     26.220080     26.220080     52.440159
     -4.329329     28.885867     28.885867     57.771734
     -4.319319     31.195887     31.195887     62.391775
     -4.309309     33.057679     33.057679     66.115358
     -4.299299     34.634336     34.634336     69.268673
     -4.289289     36.244486     36.244486     72.488972
     -4.279279     38.195888     38.195888     76.391776
     -4.269269     40.610120     40.610120     81.220240
     -4.259259     43.301999     43.301999     86.603998
     -4.249249     45.769543     45.769543     91.539087
     -4.239239     47.322312     47.322312     94.644625
     -4.229229     47.323219     47.323219     94.646438
     -4.219219     45.456257     45.456257     90.912515
     -4.209209     41.897606     41.897606     83.795212
     -4.199199     37.295634     37.295634     74.591267
     -4.189189     32.554762     32.554762     65.109525
     -4.179179     28.520361     28.520361     57.040721
     -4.169169     25.712767     25.712767     51.425534
     -4.159159     24.226395     24.226395     48.452791
     -4.149149     23.818253     23.818253     47.636505
     -4.139139     24.116751     24.116751     48.233502
     -4.129129     24.835238     24.835238     49.670476
     -4.119119     25.887817     25.887817     51.775635
     -4.109109     27.359975     27.359975     54.719951
     -4.099099     29.356213     29.356213     58.712427
     -4.089089     31.807313     31.807313     63.614626
     -4.079079     34.348447     34.348447     68.696893
     -4.069069     36.356027     36.356027     72.712054
     -4.059059     37.154334     37.154334     74.308668
     -4.049049     36.305475     36.305475     72.610950
     -4.039039     33.836618     33.836618     67.673237
     -4.029029     30.281442     30.281442     60.562884
     -4.019019     26.510898     26.510898     53.021796
     -4.009009     23.441147     23.441147     46.882294
     -3.998999     21.762572     21.762572     43.525145
     -3.988989     21.802703     21.802703     43.605407
     -3.978979     23.546788     23.546788     47.093576
     -3.968969     26.755780     26.755780     53.511560
     -3.958959     31.093048     31.093048     62.186096
     -3.948949     36.203599     36.203599     72.407198
     -3.938939     41.746121     41.746121     83.492242
     -3.928929     47.411466     47.411466     94.822932
     -3.918919     52.950401     52.950401    105.900803
     -3.908909     58.197148     58.197148    116.394296
     -3.898899     63.052901     63.052901    126.105803
     -3.888889     67.410360     67.410360    134.820720
     -3.878879     71.046588     71.046588    142.093175
     -3.868869     73.551239     73.551239    147.102478
     -3.858859     74.357087     74.357087    148.714174
     -3.848849     72.893597     72.893597    145.787194
     -3.838839     68.816452     68.816452    137.632905
     -3.828829     62.215436     62.215436    124.430871
     -3.818819     53.700093     53.700093    107.400185
     -3.808809     44.311040     44.311040     88.622079
     -3.798799     35.279822     35.279822     70.559644
     -3.788789     27.722974     27.722974     55.445949
     -3.778779     22.376650     22.376650     44.753300
     -3.768769     19.452777     19.452777     38.905554
     -3.758759     18.646375     18.646375     37.292751
     -3.748749     19.273942     19.273942     38.547884
     -3.738739     20.492254     20.492254     40.984508
     -3.728729     21.537314     21.537314     43.074628
     -3.718719     21.927131     21.927131     43.854263
     -3.708709     21.582667     21.582667     43.165335
     -3.698699     20.836552     20.836552     41.673105
     -3.688689     20.320860     20.320860     40.641720
     -3.678679     20.754567     20.754567     41.509133
     -3.668669     22.684847     22.684847     45.369694
     -3.658659     26.263195     26.263195     52.526390
     -3.648649     31.140826     31.140826     62.281652
     -3.638639     36.534781     36.534781     73.069562
     -3.628629     41.450648     41.450648     82.901296
     -3.618619     44.978035     44.978035     89.956071
     -3.608609     46.541234     46.541234     93.082468
     -3.598599     46.013782     46.013782     92.027563
     -3.588589     43.676949     43.676949     87.353897
     -3.578579     40.072180     40.072180     80.144360
     -3.568569     35.824752     35.824752     71.649504
     -3.558559     31.495973     31.495973     62.991947
     -3.548549     27.485080     27.485080     54.970161
     -3.538539     23.982060     23.982060     47.964120
     -3.528529     20.973462     20.973462     41.946924
     -3.518519     18.304273     18.304273     36.608547
     -3.508509     15.783233     15.783233     31.566466
     -3.498498     13.294221     13.294221     26.588442
     -3.488488     10.866319     10.866319     21.732637
     -3.478478      8.673332      8.673332     17.346664
     -3.468468      6.968694      6.968694     13.937388
     -3.458458      5.989099      5.989099     11.978198
     -3.448448      5.865138      5.865138     11.730276
     -3.438438      6.565296      6.565296     13.130593
     -3.428428      7.886256      7.886256     15.772511
     -3.418418      9.494818      9.494818     18.989636
     -3.408408     11.018766     11.018766     22.037531
     -3.398398     12.167547     12.167547     24.335094
     -3.388388     12.842970     12.842970     25.685940
     -3.378378     13.191948     13.191948     26.383895
     -3.368368     13.571599     13.571599     27.143197
     -3.358358     14.436282     14.436282     28.872563
     -3.348348     16.192028     16.192028     32.384057
     -3.338338     19.072174     19.072174     38.144348
     -3.328328     23.065916     23.065916     46.131832
     -3.318318     27.900898     27.900898     55.801797
     -3.308308     33.068021     33.068021     66.136042
     -3.298298     37.886616     37.886616     75.773232
     -3.288288     41.619129     41.619129     83.238258
     -3.278278     43.630846     43.630846     87.261692
     -3.268268     43.553514     43.553514     87.107028
     -3.258258     41.385198     41.385198     82.770395
     -3.248248     37.475864     37.475864     74.951729
     -3.238238     32.405854     32.405854     64.811709
     -3.228228     26.820676     26.820676     53.641352
     -3.218218     21.298089     21.298089     42.596178
     -3.208208     16.287953     16.287953     32.575907
     -3.198198     12.115515     12.115515     24.231029
     -3.188188      9.011549      9.011549     18.023098
     -3.178178      7.137408      7.137408     14.274817
     -3.168168      6.592721      6.592721     13.185441
     -3.158158      7.408775      7.408775     14.817550
     -3.148148      9.535544      9.535544     19.071087
     -3.138138     12.829746     12.829746     25.659492
     -3.128128     17.049576     17.049576     34.099151
     -3.118118     21.858943     21.858943     43.717886
     -3.108108     26.841127     26.841127     53.682254
     -3.098098     31.522452     31.522452     63.044904
     -3.088088     35.412072     35.412072     70.824144
     -3.078078     38.066662     38.066662     76.133325
     -3.068068     39.177994     39.177994     78.355988
     -3.058058     38.657425     38.657425     77.314850
     -3.048048     36.672724     36.672724     73.345448
     -3.038038     33.602658     33.602658     67.205315
     -3.028028     29.917108     29.917108     59.834217
     -3.018018     26.038685     26.038685     52.077370
     -3.008008     22.257987     22.257987     44.515974
     -2.997998     18.742542     18.742542     37.485084
     -2.987988     15.620618     15.620618     31.241235
     -2.977978     13.077389     13.077389     26.154779
     -2.967968     11.399784     11.399784     22.799569
     -2.957958     10.941213     10.941213     21.882425
     -2.947948     12.019909     12.019909     24.039818
     -2.937938     14.790915     14.790915     29.581830
     -2.927928     19.137871     19.137871     38.275742
     -2.917918     24.625092     24.625092     49.250184
     -2.907908     30.538083     30.538083     61.076165
     -2.897898     36.018682     36.018682     72.037365
     -2.887888     40.267636     40.267636     80.535271
     -2.877878     42.752533     42.752533     85.505067
     -2.867868     43.342961     43.342961     86.685923
     -2.857858     42.313740     42.313740     84.627480
     -2.847848     40.209348     40.209348     80.418696
     -2.837838     37.624871     37.624871     75.249741
     -2.827828     34.998563     34.998563     69.997126
     -2.817818     32.505255     32.505255     65.010510
     -2.807808     30.089010     30.089010     60.178020
     -2.797798     27.603191     27.603191     55.206383
     -2.787788     24.973639     24.973639     49.947278
     -2.777778     22.294395     22.294395     44.588790
     -2.767768     19.808449     19.808449     39.616898
     -2.757758     17.793959     17.793959     35.587917
     -2.747748     16.430425     16.430425     32.860850
     -2.737738     15.728088     15.728088     31.456176
     -2.727728     15.561760     15.561760     31.123519
     -2.717718     15.782448     15.782448     31.564897
     -2.707708     16.328635     16.328635     32.657270
     -2.697698     17.258221     17.258221     34.516443
     -2.687688     18.675280     18.675280     37.350560
     -2.677678     20.599723     20.599723     41.199446
     -2.667668     22.872944     22.872944     45.745888
     -2.657658     25.174529     25.174529     50.349059
     -2.647648     27.152639     27.152639     54.305278
     -2.637638     28.591672     28.591672     57.183344
     -2.627628     29.511521     29.511521     59.023042
     -2.617618     30.135879     30.135879     60.271759
     -2.607608     30.752769     30.752769     61.505537
     -2.597598     31.556657     31.556657     63.113315
     -2.587588     32.561660     32.561660     65.123321
     -2.577578     33.615150     33.615150     67.230301
     -2.567568     34.472847     34.472847     68.945693
     -2.557558     34.873453     34.873453     69.746906
     -2.547548     34.582842     34.582842     69.165683
     -2.537538     33.425631     33.425631     66.851261
     -2.527528     31.337024     31.337024     62.674049
     -2.517518     28.436615     28.436615     56.873230
     -2.507508     25.080735     25.080735     50.161469
     -2.497497     21.836138     21.836138     43.672276
     -2.487487     19.352380     19.352380     38.704760
     -2.477477     18.169671     18.169671     36.339342
     -2.467467     18.542152     18.542152     37.084304
     -2.457457     20.356833     20.356833     40.713666
     -2.447447     23.187603     23.187603     46.375205
     -2.437437     26.463702     26.463702     52.927404
     -2.427427     29.680396     29.680396     59.360791
     -2.417417     32.558721     32.558721     65.117443
     -2.407407     35.082127     35.082127     70.164254
     -2.397397     37.394194     37.394194     74.788387
     -2.387387     39.609428     39.609428     79.218855
     -2.377377     41.635600     41.635600     83.271200
     -2.367367     43.106378     43.106378     86.212756
     -2.357357     43.473136     43.473136     86.946271
     -2.347347     42.226129     42.226129     84.452258
     -2.337337     39.146261     39.146261     78.292522
     -2.327327     34.467289     34.467289     68.934578
     -2.317317     28.869352     28.869352     57.738703
     -2.307307     23.306522     23.306522     46.613043
     -2.297297     18.746684     18.746684     37.493368
     -2.287287     15.929928     15.929928     31.859856
     -2.277277     15.224138     15.224138     30.448276
     -2.267267     16.600611     16.600611     33.201221
     -2.257257     19.704747     19.704747     39.409495
     -2.247247     23.976341     23.976341     47.952681
     -2.237237     28.776662     28.776662     57.553325
     -2.227227     33.491993     33.491993     66.983986
     -2.217217     37.597439     37.597439     75.194879
     -2.207207     40.680707     40.680707     81.361414
     -2.197197     42.442318     42.442318     84.884636
     -2.187187     42.699054     42.699054     85.398109
     -2.177177     41.410419     41.410419     82.820838
     -2.167167     38.721710     38.721710     77.443421
     -2.157157     34.987142     34.987142     69.974284
     -2.147147     30.728161     30.728161     61.456322
     -2.137137     26.511244     26.511244     53.022487
     -2.127127     22.782819     22.782819     45.565639
     -2.117117     19.738880     19.738880     39.477759
     -2.107107     17.299322     17.299322     34.598644
     -2.097097     15.201579     15.201579     30.403158
     -2.087087     13.160832     13.160832     26.321665
     -2.077077     11.010784     11.010784     22.021568
     -2.067067      8.759516      8.759516     17.519033
     -2.057057      6.550645      6.550645     13.101291
     -2.047047      4.571012      4.571012      9.142024
     -2.037037      2.962872      2.962872      5.925744
     -2.027027      1.779576      1.779576      3.559153
     -2.017017      0.990219      0.990219      1.980439
     -2.007007      0.514152      0.514152      1.028304
     -1.996997      0.260890      0.260890      0.521781
     -1.986987      0.159953      0.159953      0.319905
     -1.976977      0.177560      0.177560      0.355120
     -1.966967      0.324571      0.324571      0.649141
     -1.956957      0.660355      0.660355      1.320710
     -1.946947      1.292917      1.292917      2.585835
     -1.936937      2.370515      2.370515      4.741031
     -1.926927      4.058085      4.058085      8.116169
     -1.916917      6.495148      6.495148     12.990296
     -1.906907      9.739911      9.739911     19.479822
     -1.896897     13.713465     13.713465     27.426931
     -1.886887     18.163867     18.163867     36.327735
     -1.876877     22.669586     22.669586     45.339171
     -1.866867     26.694992     26.694992     53.389983
     -1.856857     29.697382     29.697382     59.394763
     -1.846847     31.265315     31.265315     62.530630
     -1.836837     31.245589     31.245589     62.491177
     -1.826827     29.803470     29.803470     59.606940
     -1.816817     27.374646     27.374646     54.749292
     -1.806807     24.512877     24.512877     49.025754
     -1.796797     21.694381     21.694381     43.388761
     -1.786787     19.170721     19.170721     38.341443
     -1.776777     16.939566     16.939566     33.879131
     -1.766767     14.836739     14.836739     29.673478
     -1.756757     12.686377     12.686377     25.372754
     -1.746747     10.422359     10.422359     20.844719
     -1.736737      8.125033      8.125033     16.250065
     -1.726727      5.975478      5.975478     11.950955
     -1.716717      4.173970      4.173970      8.347940
     -1.706707      2.875379      2.875379      5.750758
     -1.696697      2.167563      2.167563      4.335126
     -1.686687      2.083939      2.083939      4.167878
     -1.676677      2.621420      2.621420      5.242840
     -1.666667      3.738530      3.738530      7.477060
     -1.656657      5.329514      5.329514     10.659028
     -1.646647      7.194428      7.194428     14.388856
     -1.636637      9.037589      9.037589     18.075177
     -1.626627     10.518089     10.518089     21.036177
