# EIG2DOS: Utility for SIESTA to obtain the electronic density of states
#  E. Artacho, Apr 1999, A. Garcia, Apr 2012
#  Nick R. Papior, Feb 2017
# ------------------------------------------
# Eigenvalues calculated from a non-polarized calculation
# Eigenvalues read from siesta.EIG
# Kpoint weights read from siesta.KP
# Using smearing parameter:   0.0500
# Using 1000 points in the energy range
# Selected bands: 1 to: 2981
# Emin, Emax in file for selected band(s):    -27.1790751    218.3472770
# Nbands, Nspin, Nk   =   2981     1     1
# E_F                 =    -4.2648 eV --> (shifted to ZERO)
# Broadening          =     0.0500 eV
#
#        E            N(up)  (=)   N(down)         Ntot
     -5.000000     35.274782     35.274782     70.549564
     -4.989990     38.469777     38.469777     76.939553
     -4.979980     41.464073     41.464073     82.928145
     -4.969970     43.641083     43.641083     87.282166
     -4.959960     44.508967     44.508967     89.017933
     -4.949950     43.845295     43.845295     87.690591
     -4.939940     41.759575     41.759575     83.519150
     -4.929930     38.669567     38.669567     77.339133
     -4.919920     35.220403     35.220403     70.440805
     -4.909910     32.181622     32.181622     64.363244
     -4.899900     30.336093     30.336093     60.672185
     -4.889890     30.348586     30.348586     60.697172
     -4.879880     32.600961     32.600961     65.201922
     -4.869870     37.018082     37.018082     74.036164
     -4.859860     42.960379     42.960379     85.920758
     -4.849850     49.277408     49.277408     98.554815
     -4.839840     54.566903     54.566903    109.133807
     -4.829830     57.579339     57.579339    115.158677
     -4.819820     57.611574     57.611574    115.223148
     -4.809810     54.714762     54.714762    109.429524
     -4.799800     49.624296     49.624296     99.248592
     -4.789790     43.456892     43.456892     86.913784
     -4.779780     37.326765     37.326765     74.653530
     -4.769770     32.047183     32.047183     64.094367
     -4.759760     28.009475     28.009475     56.018949
     -4.749750     25.228642     25.228642     50.457283
     -4.739740     23.477981     23.477981     46.955962
     -4.729730     22.429182     22.429182     44.858364
     -4.719720     21.749431     21.749431     43.498863
     -4.709710     21.148301     21.148301     42.296602
     -4.699700     20.393332     20.393332     40.786664
     -4.689690     19.320941     19.320941     38.641882
     -4.679680     17.862228     17.862228     35.724457
     -4.669670     16.085880     16.085880     32.171759
     -4.659660     14.240155     14.240155     28.480311
     -4.649650     12.764204     12.764204     25.528409
     -4.639640     12.242758     12.242758     24.485515
     -4.629630     13.295070     13.295070     26.590139
     -4.619620     16.410806     16.410806     32.821612
     -4.609610     21.767961     21.767961     43.535921
     -4.599600     29.089199     29.089199     58.178397
     -4.589590     37.604753     37.604753     75.209506
     -4.579580     46.174023     46.174023     92.348046
     -4.569570     53.562679     53.562679    107.125357
     -4.559560     58.793948     58.793948    117.587895
     -4.549550     61.437285     61.437285    122.874570
     -4.539540     61.708509     61.708509    123.417018
     -4.529530     60.336775     60.336775    120.673550
     -4.519520     58.260978     58.260978    116.521956
     -4.509510     56.289553     56.289553    112.579107
     -4.499499     54.857951     54.857951    109.715902
     -4.489489     53.958001     53.958001    107.916003
     -4.479479     53.233554     53.233554    106.467108
     -4.469469     52.176645     52.176645    104.353290
     -4.459459     50.336854     50.336854    100.673708
     -4.449449     47.471365     47.471365     94.942730
     -4.439439     43.600966     43.600966     87.201932
     -4.429429     38.979995     38.979995     77.959991
     -4.419419     34.018102     34.018102     68.036204
     -4.409409     29.196229     29.196229     58.392457
     -4.399399     24.999208     24.999208     49.998416
     -4.389389     21.859759     21.859759     43.719517
     -4.379379     20.096425     20.096425     40.192849
     -4.369369     19.842138     19.842138     39.684275
     -4.359359     20.988405     20.988405     41.976809
     -4.349349     23.185935     23.185935     46.371871
     -4.339339     25.926891     25.926891     51.853781
     -4.329329     28.692874     28.692874     57.385749
     -4.319319     31.113389     31.113389     62.226779
     -4.309309     33.068602     33.068602     66.137204
     -4.299299     34.694149     34.694149     69.388298
     -4.289289     36.287488     36.287488     72.574976
     -4.279279     38.151172     38.151172     76.302345
     -4.269269     40.426481     40.426481     80.852961
     -4.259259     42.974021     42.974021     85.948042
     -4.249249     45.351616     45.351616     90.703232
     -4.239239     46.919041     46.919041     93.838082
     -4.229229     47.055470     47.055470     94.110941
     -4.219219     45.416334     45.416334     90.832668
     -4.209209     42.114936     42.114936     84.229872
     -4.199199     37.729426     37.729426     75.458851
     -4.189189     33.115070     33.115070     66.230140
     -4.179179     29.104076     29.104076     58.208152
     -4.169169     26.235741     26.235741     52.471481
     -4.159159     24.639012     24.639012     49.278023
     -4.149149     24.103447     24.103447     48.206894
     -4.139139     24.278468     24.278468     48.556936
     -4.129129     24.887242     24.887242     49.774485
     -4.119119     25.848614     25.848614     51.697227
     -4.109109     27.253517     27.253517     54.507034
     -4.099099     29.214018     29.214018     58.428036
     -4.089089     31.667366     31.667366     63.334733
     -4.079079     34.249196     34.249196     68.498392
     -4.069069     36.327630     36.327630     72.655261
     -4.059059     37.211541     37.211541     74.423081
     -4.049049     36.445644     36.445644     72.891289
     -4.039039     34.043052     34.043052     68.086105
     -4.029029     30.528936     30.528936     61.057871
     -4.019019     26.769736     26.769736     53.539473
     -4.009009     23.678190     23.678190     47.356380
     -3.998999     21.941518     21.941518     43.883037
     -3.988989     21.887063     21.887063     43.774126
     -3.978979     23.507113     23.507113     47.014227
     -3.968969     26.578739     26.578739     53.157478
     -3.958959     30.787198     30.787198     61.574397
     -3.948949     35.797585     35.797585     71.595170
     -3.938939     41.279142     41.279142     82.558285
     -3.928929     46.920584     46.920584     93.841169
     -3.918919     52.461377     52.461377    104.922755
     -3.908909     57.723677     57.723677    115.447355
     -3.898899     62.604264     62.604264    125.208529
     -3.888889     67.002435     67.002435    134.004871
     -3.878879     70.708861     70.708861    141.417722
     -3.868869     73.324437     73.324437    146.648873
     -3.858859     74.281384     74.281384    148.562768
     -3.848849     72.992881     72.992881    145.985761
     -3.838839     69.086487     69.086487    138.172974
     -3.828829     62.621672     62.621672    125.243344
     -3.818819     54.185853     54.185853    108.371707
     -3.808809     44.812111     44.812111     89.624222
     -3.798799     35.739476     35.739476     71.478952
     -3.788789     28.102518     28.102518     56.205036
     -3.778779     22.659326     22.659326     45.318652
     -3.768769     19.641591     19.641591     39.283182
     -3.758759     18.758053     18.758053     37.516107
     -3.748749     19.331621     19.331621     38.663243
     -3.738739     20.518947     20.518947     41.037894
     -3.728729     21.551234     21.551234     43.102468
     -3.718719     21.939100     21.939100     43.878200
     -3.708709     21.595294     21.595294     43.190588
     -3.698699     20.844799     20.844799     41.689599
     -3.688689     20.313797     20.313797     40.627594
     -3.678679     20.718305     20.718305     41.436611
     -3.668669     22.606584     22.606584     45.213169
     -3.658659     26.135805     26.135805     52.271610
     -3.648649     30.966785     30.966785     61.933571
     -3.638639     36.327923     36.327923     72.655846
     -3.628629     41.234735     41.234735     82.469471
     -3.618619     44.782392     44.782392     89.564784
     -3.608609     46.394872     46.394872     92.789744
     -3.598599     45.939856     45.939856     91.879713
     -3.588589     43.688761     43.688761     87.377522
     -3.578579     40.171053     40.171053     80.342107
     -3.568569     35.999668     35.999668     71.999336
     -3.558559     31.725027     31.725027     63.450054
     -3.548549     27.738988     27.738988     55.477975
     -3.538539     24.229543     24.229543     48.459086
     -3.528529     21.187430     21.187430     42.374861
     -3.518519     18.467005     18.467005     36.934009
     -3.508509     15.888863     15.888863     31.777725
     -3.498498     13.347868     13.347868     26.695736
     -3.488488     10.880493     10.880493     21.760986
     -3.478478      8.663206      8.663206     17.326412
     -3.468468      6.947951      6.947951     13.895902
     -3.458458      5.967451      5.967451     11.934903
     -3.448448      5.847697      5.847697     11.695395
     -3.438438      6.553259      6.553259     13.106518
     -3.428428      7.878109      7.878109     15.756218
     -3.418418      9.487446      9.487446     18.974892
     -3.408408     11.008236     11.008236     22.016473
     -3.398398     12.149699     12.149699     24.299397
     -3.388388     12.814065     12.814065     25.628131
     -3.378378     13.149474     13.149474     26.298948
     -3.368368     13.514754     13.514754     27.029508
     -3.358358     14.364857     14.364857     28.729713
     -3.348348     16.101612     16.101612     32.203223
     -3.338338     18.943347     18.943347     37.886695
     -3.328328     22.846065     22.846065     45.692131
     -3.318318     27.479916     27.479916     54.959833
     -3.308308     32.253744     32.253744     64.507487
     -3.298298     36.391648     36.391648     72.783296
     -3.288288     39.075431     39.075431     78.150863
     -3.278278     39.647673     39.647673     79.295346
     -3.268268     37.823334     37.823334     75.646667
     -3.258258     33.820464     33.820464     67.640929
     -3.248248     28.334675     28.334675     56.669349
     -3.238238     22.351180     22.351180     44.702360
     -3.228228     16.868742     16.868742     33.737484
     -3.218218     12.646419     12.646419     25.292837
     -3.208208     10.057378     10.057378     20.114756
     -3.198198      9.072789      9.072789     18.145577
     -3.188188      9.348932      9.348932     18.697863
     -3.178178     10.375007     10.375007     20.750014
     -3.168168     11.645710     11.645710     23.291421
     -3.158158     12.826678     12.826678     25.653355
     -3.148148     13.873051     13.873051     27.746102
     -3.138138     15.055234     15.055234     30.110468
     -3.128128     16.861403     16.861403     33.722806
     -3.118118     19.788769     19.788769     39.577539
     -3.108108     24.088766     24.088766     48.177531
     -3.098098     29.567519     29.567519     59.135038
     -3.088088     35.538611     35.538611     71.077222
     -3.078078     40.972970     40.972970     81.945940
     -3.068068     44.806207     44.806207     89.612413
     -3.058058     46.283987     46.283987     92.567975
     -3.048048     45.196601     45.196601     90.393202
     -3.038038     41.900893     41.900893     83.801787
     -3.028028     37.133375     37.133375     74.266749
     -3.018018     31.722754     31.722754     63.445508
     -3.008008     26.349183     26.349183     52.698365
     -2.997998     21.449681     21.449681     42.899362
     -2.987988     17.272130     17.272130     34.544259
     -2.977978     14.000141     14.000141     28.000282
     -2.967968     11.852393     11.852393     23.704786
     -2.957958     11.098087     11.098087     22.196174
     -2.947948     11.986922     11.986922     23.973843
     -2.937938     14.632291     14.632291     29.264583
     -2.927928     18.900045     18.900045     37.800091
     -2.917918     24.350781     24.350781     48.701562
     -2.907908     30.269608     30.269608     60.539215
     -2.897898     35.793290     35.793290     71.586580
     -2.887888     40.109638     40.109638     80.219276
     -2.877878     42.667492     42.667492     85.334983
     -2.867868     43.317766     43.317766     86.635531
     -2.857858     42.323553     42.323553     84.647106
     -2.847848     40.229065     40.229065     80.458129
     -2.837838     37.640391     37.640391     75.280781
     -2.827828     35.012912     35.012912     70.025824
     -2.817818     32.536688     32.536688     65.073376
     -2.807808     30.161848     30.161848     60.323696
     -2.797798     27.735585     27.735585     55.471171
     -2.787788     25.167916     25.167916     50.335832
     -2.777778     22.534185     22.534185     45.068369
     -2.767768     20.063215     20.063215     40.126429
     -2.757758     18.027764     18.027764     36.055527
     -2.747748     16.610018     16.610018     33.220035
     -2.737738     15.826628     15.826628     31.653256
     -2.727728     15.557982     15.557982     31.115965
     -2.717718     15.658609     15.658609     31.317218
     -2.707708     16.071859     16.071859     32.143718
     -2.697698     16.867769     16.867769     33.735538
     -2.687688     18.173458     18.173458     36.346916
     -2.677678     20.039642     20.039642     40.079285
     -2.667668     22.335385     22.335385     44.670769
     -2.657658     24.750722     24.750722     49.501444
     -2.647648     26.917873     26.917873     53.835745
     -2.637638     28.581222     28.581222     57.162443
     -2.627628     29.710429     29.710429     59.420859
     -2.617618     30.486934     30.486934     60.973868
     -2.607608     31.177381     31.177381     62.354761
     -2.597598     31.977932     31.977932     63.955864
     -2.587588     32.920849     32.920849     65.841699
     -2.577578     33.879023     33.879023     67.758045
     -2.567568     34.634575     34.634575     69.269150
     -2.557558     34.950046     34.950046     69.900092
     -2.547548     34.609597     34.609597     69.219194
     -2.537538     33.446585     33.446585     66.893170
     -2.527528     31.392037     31.392037     62.784075
     -2.517518     28.548869     28.548869     57.097738
     -2.507508     25.249659     25.249659     50.499318
     -2.497497     22.038566     22.038566     44.077133
     -2.487487     19.550693     19.550693     39.101386
     -2.477477     18.322803     18.322803     36.645606
     -2.467467     18.615263     18.615263     37.230526
     -2.457457     20.327418     20.327418     40.654837
     -2.447447     23.047881     23.047881     46.095762
     -2.437437     26.220141     26.220141     52.440281
     -2.427427     29.351425     29.351425     58.702849
     -2.417417     32.171798     32.171798     64.343595
     -2.407407     34.671347     34.671347     69.342694
     -2.397397     36.999033     36.999033     73.998066
     -2.387387     39.273676     39.273676     78.547352
     -2.377377     41.404202     41.404202     82.808403
     -2.367367     43.018228     43.018228     86.036456
     -2.357357     43.550498     43.550498     87.100995
     -2.347347     42.464731     42.464731     84.929462
     -2.337337     39.511569     39.511569     79.023139
     -2.327327     34.900321     34.900321     69.800641
     -2.317317     29.300591     29.300591     58.601182
     -2.307307     23.672290     23.672290     47.344580
     -2.297297     19.001470     19.001470     38.002939
     -2.287287     16.051065     16.051065     32.102130
     -2.277277     15.209541     15.209541     30.419083
     -2.267267     16.463212     16.463212     32.926425
     -2.257257     19.467464     19.467464     38.934928
     -2.247247     23.669467     23.669467     47.338934
     -2.237237     28.437149     28.437149     56.874297
     -2.227227     33.162522     33.162522     66.325043
     -2.217217     37.323165     37.323165     74.646329
     -2.207207     40.502840     40.502840     81.005680
     -2.197197     42.389726     42.389726     84.779452
     -2.187187     42.780688     42.780688     85.561376
     -2.177177     41.611800     41.611800     83.223600
     -2.167167     39.007581     39.007581     78.015162
     -2.157157     35.310159     35.310159     70.620319
     -2.147147     31.041125     31.041125     62.082251
     -2.137137     26.778828     26.778828     53.557656
     -2.127127     22.988793     22.988793     45.977586
     -2.117117     19.886506     19.886506     39.773012
     -2.107107     17.405368     17.405368     34.810735
     -2.097097     15.286944     15.286944     30.573888
     -2.087087     13.241949     13.241949     26.483897
     -2.077077     11.095014     11.095014     22.190028
     -2.067067      8.845466      8.845466     17.690931
     -2.057057      6.631913      6.631913     13.263826
     -2.047047      4.640754      4.640754      9.281507
     -2.037037      3.016966      3.016966      6.033932
     -2.027027      1.817558      1.817558      3.635115
     -2.017017      1.014447      1.014447      2.028894
     -2.007007      0.528270      0.528270      1.056540
     -1.996997      0.268442      0.268442      0.536885
     -1.986987      0.163423      0.163423      0.326846
     -1.976977      0.177429      0.177429      0.354857
     -1.966967      0.317338      0.317338      0.634675
     -1.956957      0.633854      0.633854      1.267708
     -1.946947      1.216746      1.216746      2.433492
     -1.936937      2.179686      2.179686      4.359372
     -1.926927      3.630179      3.630179      7.260359
     -1.916917      5.626203      5.626203     11.252407
     -1.906907      8.131396      8.131396     16.262791
     -1.896897     10.988457     10.988457     21.976915
     -1.886887     13.928992     13.928992     27.857983
     -1.876877     16.625458     16.625458     33.250916
     -1.866867     18.773477     18.773477     37.546955
     -1.856857     20.179942     20.179942     40.359883
     -1.846847     20.829239     20.829239     41.658479
     -1.836837     20.903855     20.903855     41.807709
     -1.826827     20.743007     20.743007     41.486014
     -1.816817     20.736210     20.736210     41.472420
     -1.806807     21.172970     21.172970     42.345939
     -1.796797     22.100902     22.100902     44.201804
     -1.786787     23.261948     23.261948     46.523896
     -1.776777     24.156679     24.156679     48.313358
     -1.766767     24.227840     24.227840     48.455680
     -1.756757     23.086881     23.086881     46.173761
     -1.746747     20.676677     20.676677     41.353354
     -1.736737     17.294843     17.294843     34.589686
     -1.726727     13.477120     13.477120     26.954240
     -1.716717      9.810744      9.810744     19.621489
     -1.706707      6.770625      6.770625     13.541250
     -1.696697      4.639409      4.639409      9.278818
     -1.686687      3.514641      3.514641      7.029281
     -1.676677      3.361317      3.361317      6.722633
     -1.666667      4.059203      4.059203      8.118406
     -1.656657      5.418198      5.418198     10.836395
     -1.646647      7.170987      7.170987     14.341975
     -1.636637      8.976257      8.976257     17.952513
     -1.626627     10.463435     10.463435     20.926871
