# EIG2DOS: Utility for SIESTA to obtain the electronic density of states
#  E. Artacho, Apr 1999, A. Garcia, Apr 2012
#  Nick R. Papior, Feb 2017
# ------------------------------------------
# Eigenvalues calculated from a non-polarized calculation
# Eigenvalues read from siesta.EIG
# Kpoint weights read from siesta.KP
# Using smearing parameter:   0.0500
# Using 1000 points in the energy range
# Selected bands: 1 to: 2981
# Emin, Emax in file for selected band(s):    -27.3042830    218.3891300
# Nbands, Nspin, Nk   =   2981     1     1
# E_F                 =    -4.2178 eV --> (shifted to ZERO)
# Broadening          =     0.0500 eV
#
#        E            N(up)  (=)   N(down)         Ntot
     -5.000000     32.792927     32.792927     65.585853
     -4.989990     37.438835     37.438835     74.877670
     -4.979980     41.637902     41.637902     83.275803
     -4.969970     44.688118     44.688118     89.376236
     -4.959960     46.032178     46.032178     92.064355
     -4.949950     45.442624     45.442624     90.885249
     -4.939940     43.104500     43.104500     86.209001
     -4.929930     39.577015     39.577015     79.154029
     -4.919920     35.669888     35.669888     71.339777
     -4.909910     32.289138     32.289138     64.578276
     -4.899900     30.285926     30.285926     60.571851
     -4.889890     30.308691     30.308691     60.617383
     -4.879880     32.650751     32.650751     65.301501
     -4.869870     37.115909     37.115909     74.231819
     -4.859860     42.966674     42.966674     85.933349
     -4.849850     49.026962     49.026962     98.053924
     -4.839840     53.958286     53.958286    107.916572
     -4.829830     56.637082     56.637082    113.274163
     -4.819820     56.489419     56.489419    112.978837
     -4.809810     53.640928     53.640928    107.281857
     -4.799800     48.821803     48.821803     97.643606
     -4.789790     43.082705     43.082705     86.165410
     -4.779780     37.458277     37.458277     74.916555
     -4.769770     32.716551     32.716551     65.433102
     -4.759760     29.263917     29.263917     58.527834
     -4.749750     27.186934     27.186934     54.373868
     -4.739740     26.356712     26.356712     52.713424
     -4.729730     26.520436     26.520436     53.040871
     -4.719720     27.343827     27.343827     54.687655
     -4.709710     28.417441     28.417441     56.834883
     -4.699700     29.271262     29.271262     58.542524
     -4.689690     29.440787     29.440787     58.881573
     -4.679680     28.593710     28.593710     57.187420
     -4.669670     26.677741     26.677741     53.355482
     -4.659660     24.017767     24.017767     48.035533
     -4.649650     21.298678     21.298678     42.597357
     -4.639640     19.416242     19.416242     38.832484
     -4.629630     19.234277     19.234277     38.468555
     -4.619620     21.321905     21.321905     42.643810
     -4.609610     25.750007     25.750007     51.500014
     -4.599600     32.010812     32.010812     64.021623
     -4.589590     39.098248     39.098248     78.196495
     -4.579580     45.748049     45.748049     91.496098
     -4.569570     50.783813     50.783813    101.567625
     -4.559560     53.463269     53.463269    106.926539
     -4.549550     53.698427     53.698427    107.396854
     -4.539540     52.057506     52.057506    104.115013
     -4.529530     49.539265     49.539265     99.078531
     -4.519520     47.204141     47.204141     94.408282
     -4.509510     45.805728     45.805728     91.611455
     -4.499499     45.562342     45.562342     91.124684
     -4.489489     46.145082     46.145082     92.290165
     -4.479479     46.866492     46.866492     93.732983
     -4.469469     46.974912     46.974912     93.949823
     -4.459459     45.928058     45.928058     91.856116
     -4.449449     43.545895     43.545895     87.091791
     -4.439439     40.010141     40.010141     80.020282
     -4.429429     35.749415     35.749415     71.498830
     -4.419419     31.289025     31.289025     62.578049
     -4.409409     27.135590     27.135590     54.271180
     -4.399399     23.721204     23.721204     47.442408
     -4.389389     21.383617     21.383617     42.767234
     -4.379379     20.341908     20.341908     40.683815
     -4.369369     20.650525     20.650525     41.301050
     -4.359359     22.155904     22.155904     44.311808
     -4.349349     24.502295     24.502295     49.004590
     -4.339339     27.215891     27.215891     54.431783
     -4.329329     29.849850     29.849850     59.699699
     -4.319319     32.130813     32.130813     64.261626
     -4.309309     34.038862     34.038862     68.077723
     -4.299299     35.781180     35.781180     71.562360
     -4.289289     37.665829     37.665829     75.331657
     -4.279279     39.922001     39.922001     79.844002
     -4.269269     42.534579     42.534579     85.069157
     -4.259259     45.162127     45.162127     90.324254
     -4.249249     47.187824     47.187824     94.375648
     -4.239239     47.908893     47.908893     95.817785
     -4.229229     46.807881     46.807881     93.615762
     -4.219219     43.795143     43.795143     87.590286
     -4.209209     39.304147     39.304147     78.608295
     -4.199199     34.179245     34.179245     68.358489
     -4.189189     29.395939     29.395939     58.791878
     -4.179179     25.739046     25.739046     51.478091
     -4.169169     23.582368     23.582368     47.164737
     -4.159159     22.855793     22.855793     45.711586
     -4.149149     23.189886     23.189886     46.379772
     -4.139139     24.148729     24.148729     48.297459
     -4.129129     25.433976     25.433976     50.867952
     -4.119119     26.969246     26.969246     53.938492
     -4.109109     28.834705     28.834705     57.669411
     -4.099099     31.092268     31.092268     62.184536
     -4.089089     33.598017     33.598017     67.196034
     -4.079079     35.915107     35.915107     71.830213
     -4.069069     37.399684     37.399684     74.799368
     -4.059059     37.442705     37.442705     74.885410
     -4.049049     35.756494     35.756494     71.512988
     -4.039039     32.556510     32.556510     65.113020
     -4.029029     28.537614     28.537614     57.075228
     -4.019019     24.654044     24.654044     49.308089
     -4.009009     21.814024     21.814024     43.628048
     -3.998999     20.631447     20.631447     41.262894
     -3.988989     21.326689     21.326689     42.653378
     -3.978979     23.778018     23.778018     47.556036
     -3.968969     27.654548     27.654548     55.309096
     -3.958959     32.547978     32.547978     65.095956
     -3.948949     38.057053     38.057053     76.114107
     -3.938939     43.827780     43.827780     87.655559
     -3.928929     49.575413     49.575413     99.150825
     -3.918919     55.100761     55.100761    110.201522
     -3.908909     60.285691     60.285691    120.571383
     -3.898899     65.044276     65.044276    130.088551
     -3.888889     69.230921     69.230921    138.461842
     -3.878879     72.547519     72.547519    145.095038
     -3.868869     74.514218     74.514218    149.028435
     -3.858859     74.550263     74.550263    149.100526
     -3.848849     72.158182     72.158182    144.316364
     -3.838839     67.145672     67.145672    134.291345
     -3.828829     59.788670     59.788670    119.577341
     -3.818819     50.854751     50.854751    101.709501
     -3.808809     41.461895     41.461895     82.923790
     -3.798799     32.816030     32.816030     65.632061
     -3.788789     25.918101     25.918101     51.836202
     -3.778779     21.337388     21.337388     42.674777
     -3.768769     19.115353     19.115353     38.230706
     -3.758759     18.814563     18.814563     37.629126
     -3.748749     19.683862     19.683862     39.367724
     -3.738739     20.886372     20.886372     41.772745
     -3.728729     21.730853     21.730853     43.461705
     -3.718719     21.852611     21.852611     43.705222
     -3.708709     21.302336     21.302336     42.604673
     -3.698699     20.518595     20.518595     41.037190
     -3.688689     20.183665     20.183665     40.367329
     -3.678679     20.992868     20.992868     41.985735
     -3.668669     23.399483     23.399483     46.798966
     -3.658659     27.418462     27.418462     54.836925
     -3.648649     32.566398     32.566398     65.132795
     -3.638639     37.973097     37.973097     75.946194
     -3.628629     42.631776     42.631776     85.263552
     -3.618619     45.692451     45.692451     91.384903
     -3.608609     46.684239     46.684239     93.368478
     -3.598599     45.591560     45.591560     91.183121
     -3.588589     42.782730     42.782730     85.565460
     -3.578579     38.850000     38.850000     77.700000
     -3.568569     34.434831     34.434831     68.869662
     -3.558559     30.086702     30.086702     60.173404
     -3.548549     26.171368     26.171368     52.342735
     -3.538539     22.831211     22.831211     45.662422
     -3.528529     20.002850     20.002850     40.005699
     -3.518519     17.493587     17.493587     34.987174
     -3.508509     15.097477     15.097477     30.194954
     -3.498498     12.707335     12.707335     25.414670
     -3.488488     10.374941     10.374941     20.749881
     -3.478478      8.296169      8.296169     16.592337
     -3.468468      6.734552      6.734552     13.469104
     -3.458458      5.920947      5.920947     11.841895
     -3.448448      5.967629      5.967629     11.935259
     -3.438438      6.821391      6.821391     13.642782
     -3.428428      8.267303      8.267303     16.534606
     -3.418418      9.987038      9.987038     19.974075
     -3.408408     11.664990     11.664990     23.329981
     -3.398398     13.114998     13.114998     26.229996
     -3.388388     14.378217     14.378217     28.756434
     -3.378378     15.738692     15.738692     31.477383
     -3.368368     17.631263     17.631263     35.262525
     -3.358358     20.467802     20.467802     40.935604
     -3.348348     24.452068     24.452068     48.904136
     -3.338338     29.460620     29.460620     58.921239
     -3.328328     35.031940     35.031940     70.063880
     -3.318318     40.453744     40.453744     80.907487
     -3.308308     44.905660     44.905660     89.811321
     -3.298298     47.617085     47.617085     95.234170
     -3.288288     48.020482     48.020482     96.040963
     -3.278278     45.887626     45.887626     91.775252
     -3.268268     41.419986     41.419986     82.839972
     -3.258258     35.248288     35.248288     70.496577
     -3.248248     28.312172     28.312172     56.624344
     -3.238238     21.641388     21.641388     43.282777
     -3.228228     16.111056     16.111056     32.222112
     -3.218218     12.256136     12.256136     24.512271
     -3.208208     10.197631     10.197631     20.395262
     -3.198198      9.683334      9.683334     19.366667
     -3.188188     10.212351     10.212351     20.424703
     -3.178178     11.204140     11.204140     22.408280
     -3.168168     12.174772     12.174772     24.349544
     -3.158158     12.880927     12.880927     25.761853
     -3.148148     13.388491     13.388491     26.776982
     -3.138138     14.032998     14.032998     28.065995
     -3.128128     15.271845     15.271845     30.543690
     -3.118118     17.473234     17.473234     34.946467
     -3.108108     20.720948     20.720948     41.441896
     -3.098098     24.717298     24.717298     49.434597
     -3.088088     28.832894     28.832894     57.665788
     -3.078078     32.292594     32.292594     64.585187
     -3.068068     34.426137     34.426137     68.852274
     -3.058058     34.878720     34.878720     69.757440
     -3.048048     33.692253     33.692253     67.384506
     -3.038038     31.230319     31.230319     62.460637
     -3.028028     27.998261     27.998261     55.996523
     -3.018018     24.459055     24.459055     48.918111
     -3.008008     20.935528     20.935528     41.871057
     -2.997998     17.628396     17.628396     35.256793
     -2.987988     14.709196     14.709196     29.418392
     -2.977978     12.411779     12.411779     24.823558
     -2.967968     11.060400     11.060400     22.120800
     -2.957958     11.016639     11.016639     22.033279
     -2.947948     12.568886     12.568886     25.137771
     -2.937938     15.808233     15.808233     31.616467
     -2.927928     20.535556     20.535556     41.071113
     -2.917918     26.236348     26.236348     52.472695
     -2.907908     32.145911     32.145911     64.291822
     -2.897898     37.403588     37.403588     74.807176
     -2.887888     41.260789     41.260789     82.521578
     -2.877878     43.276055     43.276055     86.552109
     -2.867868     43.421400     43.421400     86.842800
     -2.857858     42.051081     42.051081     84.102162
     -2.847848     39.740281     39.740281     79.480563
     -2.837838     37.061058     37.061058     74.122116
     -2.827828     34.393712     34.393712     68.787425
     -2.817818     31.854245     31.854245     63.708489
     -2.807808     29.359253     29.359253     58.718505
     -2.797798     26.779501     26.779501     53.559003
     -2.787788     24.090754     24.090754     48.181508
     -2.777778     21.438801     21.438801     42.877601
     -2.767768     19.089609     19.089609     38.179218
     -2.757758     17.303666     17.303666     34.607332
     -2.747748     16.216247     16.216247     32.432493
     -2.737738     15.797385     15.797385     31.594770
     -2.727728     15.911449     15.911449     31.822898
     -2.717718     16.429724     16.429724     32.859449
     -2.707708     17.313519     17.313519     34.627037
     -2.697698     18.605831     18.605831     37.211662
     -2.687688     20.335631     20.335631     40.671263
     -2.677678     22.406079     22.406079     44.812158
     -2.667668     24.557461     24.557461     49.114922
     -2.657658     26.448825     26.448825     52.897650
     -2.647648     27.818689     27.818689     55.637377
     -2.637638     28.624114     28.624114     57.248229
     -2.627628     29.065248     29.065248     58.130496
     -2.617618     29.475821     29.475821     58.951642
     -2.607608     30.146473     30.146473     60.292945
     -2.597598     31.184693     31.184693     62.369386
     -2.587588     32.479547     32.479547     64.959094
     -2.577578     33.764203     33.764203     67.528406
     -2.567568     34.715055     34.715055     69.430109
     -2.557558     35.029580     35.029580     70.059160
     -2.547548     34.470989     34.470989     68.941977
     -2.537538     32.907170     32.907170     65.814341
     -2.527528     30.367862     30.367862     60.735724
     -2.517518     27.104642     27.104642     54.209285
     -2.507508     23.604345     23.604345     47.208689
     -2.497497     20.512850     20.512850     41.025701
     -2.487487     18.472198     18.472198     36.944397
     -2.477477     17.927019     17.927019     35.854039
     -2.467467     18.981393     18.981393     37.962786
     -2.457457     21.370620     21.370620     42.741241
     -2.447447     24.564582     24.564582     49.129164
     -2.437437     27.963084     27.963084     55.926167
     -2.427427     31.102477     31.102477     62.204955
     -2.417417     33.784755     33.784755     67.569510
     -2.407407     36.071759     36.071759     72.143517
     -2.397397     38.147755     38.147755     76.295511
     -2.387387     40.117548     40.117548     80.235097
     -2.377377     41.843656     41.843656     83.687312
     -2.367367     42.914142     42.914142     85.828284
     -2.357357     42.773153     42.773153     85.546305
     -2.347347     40.964392     40.964392     81.928783
     -2.337337     37.375101     37.375101     74.750202
     -2.327327     32.361629     32.361629     64.723257
     -2.317317     26.694879     26.694879     53.389758
     -2.307307     21.352816     21.352816     42.705633
     -2.297297     17.255080     17.255080     34.510159
     -2.287287     15.045259     15.045259     30.090518
     -2.277277     14.983892     14.983892     29.967784
     -2.267267     16.955682     16.955682     33.911364
     -2.257257     20.553964     20.553964     41.107927
     -2.247247     25.196184     25.196184     50.392368
     -2.237237     30.235346     30.235346     60.470692
     -2.227227     35.047985     35.047985     70.095970
     -2.217217     39.091888     39.091888     78.183777
     -2.207207     41.937488     41.937488     83.874975
     -2.197197     43.286456     43.286456     86.572913
     -2.187187     42.994314     42.994314     85.988627
     -2.177177     41.103663     41.103663     82.207326
     -2.167167     37.872272     37.872272     75.744544
     -2.157157     33.760865     33.760865     67.521730
     -2.147147     29.350311     29.350311     58.700623
     -2.137137     25.194042     25.194042     50.388084
     -2.127127     21.659306     21.659306     43.318611
     -2.117117     18.833846     18.833846     37.667693
     -2.107107     16.548968     16.548968     33.097936
     -2.097097     14.507591     14.507591     29.015181
     -2.087087     12.448086     12.448086     24.896172
     -2.077077     10.260402     10.260402     20.520804
     -2.067067      8.007070      8.007070     16.014140
     -2.057057      5.859789      5.859789     11.719579
     -2.047047      4.003484      4.003484      8.006968
     -2.037037      2.563064      2.563064      5.126129
     -2.027027      1.581257      1.581257      3.162514
     -2.017017      1.042444      1.042444      2.084888
     -2.007007      0.917196      0.917196      1.834392
     -1.996997      1.199963      1.199963      2.399925
     -1.986987      1.921782      1.921782      3.843564
     -1.976977      3.132886      3.132886      6.265771
     -1.966967      4.862754      4.862754      9.725508
     -1.956957      7.075973      7.075973     14.151946
     -1.946947      9.647436      9.647436     19.294872
     -1.936937     12.374529     12.374529     24.749059
     -1.926927     15.025677     15.025677     30.051353
     -1.916917     17.402600     17.402600     34.805201
     -1.906907     19.383235     19.383235     38.766469
     -1.896897     20.923239     20.923239     41.846479
     -1.886887     22.020676     22.020676     44.041353
     -1.876877     22.672028     22.672028     45.344057
     -1.866867     22.851867     22.851867     45.703735
     -1.856857     22.531280     22.531280     45.062560
     -1.846847     21.723787     21.723787     43.447574
     -1.836837     20.527712     20.527712     41.055423
     -1.826827     19.131277     19.131277     38.262554
     -1.816817     17.763810     17.763810     35.527619
     -1.806807     16.607324     16.607324     33.214649
     -1.796797     15.711832     15.711832     31.423664
     -1.786787     14.965061     14.965061     29.930121
     -1.776777     14.142328     14.142328     28.284657
     -1.766767     13.016520     13.016520     26.033041
     -1.756757     11.471200     11.471200     22.942401
     -1.746747      9.558093      9.558093     19.116185
     -1.736737      7.474991      7.474991     14.949982
     -1.726727      5.486571      5.486571     10.973142
     -1.716717      3.837310      3.837310      7.674621
     -1.706707      2.698656      2.698656      5.397311
     -1.696697      2.162137      2.162137      4.324274
     -1.686687      2.259674      2.259674      4.519349
     -1.676677      2.980273      2.980273      5.960545
     -1.666667      4.262797      4.262797      8.525593
     -1.656657      5.968482      5.968482     11.936965
     -1.646647      7.859024      7.859024     15.718048
     -1.636637      9.612286      9.612286     19.224572
     -1.626627     10.891800     10.891800     21.783600
