# EIG2DOS: Utility for SIESTA to obtain the electronic density of states
#  E. Artacho, Apr 1999, A. Garcia, Apr 2012
#  Nick R. Papior, Feb 2017
# ------------------------------------------
# Eigenvalues calculated from a non-polarized calculation
# Eigenvalues read from siesta.EIG
# Kpoint weights read from siesta.KP
# Using smearing parameter:   0.0500
# Using 1000 points in the energy range
# Selected bands: 1 to: 2981
# Emin, Emax in file for selected band(s):    -27.3672132    218.4066900
# Nbands, Nspin, Nk   =   2981     1     1
# E_F                 =    -4.1881 eV --> (shifted to ZERO)
# Broadening          =     0.0500 eV
#
#        E            N(up)  (=)   N(down)         Ntot
     -5.000000     33.874101     33.874101     67.748202
     -4.989990     39.013443     39.013443     78.026886
     -4.979980     43.490443     43.490443     86.980887
     -4.969970     46.484125     46.484125     92.968249
     -4.959960     47.426693     47.426693     94.853386
     -4.949950     46.195319     46.195319     92.390639
     -4.939940     43.154105     43.154105     86.308210
     -4.929930     39.051942     39.051942     78.103884
     -4.919920     34.841738     34.841738     69.683476
     -4.909910     31.492294     31.492294     62.984589
     -4.899900     29.825869     29.825869     59.651738
     -4.889890     30.375630     30.375630     60.751259
     -4.879880     33.256296     33.256296     66.512591
     -4.869870     38.077347     38.077347     76.154695
     -4.859860     43.961500     43.961500     87.923000
     -4.849850     49.718238     49.718238     99.436477
     -4.839840     54.155528     54.155528    108.311056
     -4.829830     56.430234     56.430234    112.860467
     -4.819820     56.295554     56.295554    112.591108
     -4.809810     54.135487     54.135487    108.270975
     -4.799800     50.769541     50.769541    101.539081
     -4.789790     47.115696     47.115696     94.231393
     -4.779780     43.860344     43.860344     87.720689
     -4.769770     41.270611     41.270611     82.541222
     -4.759760     39.208081     39.208081     78.416161
     -4.749750     37.305689     37.305689     74.611378
     -4.739740     35.200913     35.200913     70.401826
     -4.729730     32.708795     32.708795     65.417590
     -4.719720     29.866367     29.866367     59.732733
     -4.709710     26.856090     26.856090     53.712180
     -4.699700     23.878772     23.878772     47.757544
     -4.689690     21.064003     21.064003     42.128005
     -4.679680     18.472274     18.472274     36.944547
     -4.669670     16.180486     16.180486     32.360973
     -4.659660     14.389589     14.389589     28.779177
     -4.649650     13.478265     13.478265     26.956531
     -4.639640     13.952804     13.952804     27.905608
     -4.629630     16.291611     16.291611     32.583223
     -4.619620     20.730874     20.730874     41.461748
     -4.609610     27.071607     27.071607     54.143214
     -4.599600     34.598916     34.598916     69.197831
     -4.589590     42.180935     42.180935     84.361871
     -4.579580     48.551533     48.551533     97.103066
     -4.569570     52.694028     52.694028    105.388056
     -4.559560     54.176779     54.176779    108.353558
     -4.549550     53.292186     53.292186    106.584372
     -4.539540     50.930040     50.930040    101.860079
     -4.529530     48.235296     48.235296     96.470592
     -4.519520     46.194519     46.194519     92.389038
     -4.509510     45.317057     45.317057     90.634115
     -4.499499     45.523413     45.523413     91.046827
     -4.489489     46.258558     46.258558     92.517117
     -4.479479     46.758556     46.758556     93.517111
     -4.469469     46.350056     46.350056     92.700112
     -4.459459     44.667615     44.667615     89.335231
     -4.449449     41.724571     41.724571     83.449143
     -4.439439     37.843588     37.843588     75.687175
     -4.429429     33.510138     33.510138     67.020275
     -4.419419     29.230192     29.230192     58.460384
     -4.409409     25.446456     25.446456     50.892911
     -4.399399     22.515583     22.515583     45.031167
     -4.389389     20.707369     20.707369     41.414738
     -4.379379     20.183981     20.183981     40.367963
     -4.369369     20.952112     20.952112     41.904224
     -4.359359     22.823230     22.823230     45.646460
     -4.349349     25.430782     25.430782     50.861563
     -4.339339     28.324876     28.324876     56.649752
     -4.329329     31.114789     31.114789     62.229578
     -4.319319     33.593849     33.593849     67.187697
     -4.309309     35.784205     35.784205     71.568410
     -4.299299     37.876786     37.876786     75.753572
     -4.289289     40.089950     40.089950     80.179901
     -4.279279     42.504848     42.504848     85.009696
     -4.269269     44.946148     44.946148     89.892296
     -4.259259     46.964954     46.964954     93.929908
     -4.249249     47.949200     47.949200     95.898400
     -4.239239     47.338483     47.338483     94.676966
     -4.229229     44.867616     44.867616     89.735232
     -4.219219     40.732675     40.732675     81.465350
     -4.209209     35.591849     35.591849     71.183697
     -4.199199     30.383212     30.383212     60.766424
     -4.189189     26.029518     26.029518     52.059035
     -4.179179     23.156157     23.156157     46.312313
     -4.169169     21.940260     21.940260     43.880519
     -4.159159     22.143363     22.143363     44.286726
     -4.149149     23.294881     23.294881     46.589761
     -4.139139     24.930628     24.930628     49.861256
     -4.129129     26.773889     26.773889     53.547777
     -4.119119     28.778067     28.778067     57.556134
     -4.109109     31.016498     31.016498     62.032995
     -4.099099     33.482397     33.482397     66.964794
     -4.089089     35.916808     35.916808     71.833615
     -4.079079     37.780765     37.780765     75.561530
     -4.069069     38.417444     38.417444     76.834888
     -4.059059     37.340568     37.340568     74.681137
     -4.049049     34.501761     34.501761     69.003521
     -4.039039     30.389964     30.389964     60.779927
     -4.029029     25.905580     25.905580     51.811160
     -4.019019     22.073619     22.073619     44.147237
     -4.009009     19.736575     19.736575     39.473149
     -3.998999     19.357696     19.357696     38.715392
     -3.988989     20.988071     20.988071     41.976143
     -3.978979     24.363909     24.363909     48.727819
     -3.968969     29.054460     29.054460     58.108919
     -3.958959     34.590456     34.590456     69.180912
     -3.948949     40.544900     40.544900     81.089800
     -3.938939     46.574885     46.574885     93.149769
     -3.928929     52.440673     52.440673    104.881347
     -3.918919     58.001315     58.001315    116.002629
     -3.908909     63.171519     63.171519    126.343038
     -3.898899     67.835870     67.835870    135.671740
     -3.888889     71.750629     71.750629    143.501258
     -3.878879     74.491883     74.491883    148.983765
     -3.868869     75.502347     75.502347    151.004695
     -3.858859     74.244024     74.244024    148.488048
     -3.848849     70.405917     70.405917    140.811834
     -3.838839     64.080605     64.080605    128.161210
     -3.828829     55.830721     55.830721    111.661442
     -3.818819     46.610436     46.610436     93.220871
     -3.808809     37.563669     37.563669     75.127337
     -3.798799     29.763982     29.763982     59.527965
     -3.788789     23.976080     23.976080     47.952160
     -3.778779     20.505350     20.505350     41.010700
     -3.768769     19.170292     19.170292     38.340584
     -3.758759     19.396429     19.396429     38.792859
     -3.748749     20.400161     20.400161     40.800323
     -3.738739     21.412608     21.412608     42.825217
     -3.728729     21.887772     21.887772     43.775543
     -3.718719     21.644689     21.644689     43.289377
     -3.708709     20.907425     20.907425     41.814851
     -3.698699     20.228078     20.228078     40.456155
     -3.688689     20.305504     20.305504     40.611007
     -3.678679     21.743538     21.743538     43.487075
     -3.668669     24.819350     24.819350     49.638699
     -3.658659     29.342301     29.342301     58.684602
     -3.648649     34.663264     34.663264     69.326528
     -3.638639     39.842409     39.842409     79.684818
     -3.628629     43.918290     43.918290     87.836580
     -3.618619     46.176044     46.176044     92.352087
     -3.608609     46.315849     46.315849     92.631697
     -3.598599     44.474436     44.474436     88.948872
     -3.588589     41.120409     41.120409     82.240818
     -3.578579     36.887269     36.887269     73.774538
     -3.568569     32.407944     32.407944     64.815888
     -3.558559     28.187229     28.187229     56.374459
     -3.548549     24.524507     24.524507     49.049014
     -3.538539     21.493239     21.493239     42.986478
     -3.528529     18.984555     18.984555     37.969110
     -3.518519     16.810114     16.810114     33.620229
     -3.508509     14.832044     14.832044     29.664089
     -3.498498     13.064967     13.064967     26.129933
     -3.488488     11.699528     11.699528     23.399056
     -3.478478     11.031196     11.031196     22.062392
     -3.468468     11.322819     11.322819     22.645638
     -3.458458     12.659687     12.659687     25.319373
     -3.448448     14.858998     14.858998     29.717996
     -3.438438     17.474883     17.474883     34.949766
     -3.428428     19.905720     19.905720     39.811440
     -3.418418     21.573255     21.573255     43.146510
     -3.408408     22.113686     22.113686     44.227372
     -3.398398     21.511197     21.511197     43.022393
     -3.388388     20.122160     20.122160     40.244320
     -3.378378     18.579228     18.579228     37.158456
     -3.368368     17.610732     17.610732     35.221464
     -3.358358     17.839277     17.839277     35.678554
     -3.348348     19.620857     19.620857     39.241715
     -3.338338     22.958478     22.958478     45.916955
     -3.328328     27.493458     27.493458     54.986916
     -3.318318     32.563460     32.563460     65.126920
     -3.308308     37.320180     37.320180     74.640360
     -3.298298     40.902556     40.902556     81.805112
     -3.288288     42.642727     42.642727     85.285454
     -3.278278     42.245974     42.245974     84.491948
     -3.268268     39.865763     39.865763     79.731526
     -3.258258     36.024863     36.024863     72.049726
     -3.248248     31.409261     31.409261     62.818522
     -3.238238     26.634039     26.634039     53.268077
     -3.228228     22.093492     22.093492     44.186983
     -3.218218     17.949499     17.949499     35.898997
     -3.208208     14.226636     14.226636     28.453272
     -3.198198     10.931698     10.931698     21.863397
     -3.188188      8.127306      8.127306     16.254612
     -3.178178      5.941229      5.941229     11.882459
     -3.168168      4.538263      4.538263      9.076527
     -3.158158      4.090049      4.090049      8.180098
     -3.148148      4.755236      4.755236      9.510472
     -3.138138      6.655381      6.655381     13.310761
     -3.128128      9.825898      9.825898     19.651797
     -3.118118     14.141860     14.141860     28.283720
     -3.108108     19.250608     19.250608     38.501216
     -3.098098     24.562436     24.562436     49.124872
     -3.088088     29.337526     29.337526     58.675052
     -3.078078     32.861674     32.861674     65.723348
     -3.068068     34.648210     34.648210     69.296420
     -3.058058     34.575015     34.575015     69.150029
     -3.048048     32.888583     32.888583     65.777166
     -3.038038     30.074468     30.074468     60.148935
     -3.028028     26.665224     26.665224     53.330448
     -3.018018     23.086514     23.086514     46.173027
     -3.008008     19.610134     19.610134     39.220268
     -2.997998     16.412909     16.412909     32.825819
     -2.987988     13.680393     13.680393     27.360786
     -2.977978     11.679781     11.679781     23.359563
     -2.967968     10.756842     10.756842     21.513683
     -2.957958     11.258136     11.258136     22.516271
     -2.947948     13.412807     13.412807     26.825615
     -2.937938     17.218209     17.218209     34.436418
     -2.927928     22.369048     22.369048     44.738095
     -2.917918     28.260170     28.260170     56.520340
     -2.907908     34.078540     34.078540     68.157079
     -2.897898     38.975230     38.975230     77.950459
     -2.887888     42.275004     42.275004     84.550008
     -2.877878     43.653494     43.653494     87.306988
     -2.867868     43.209886     43.209886     86.419773
     -2.857858     41.396990     41.396990     82.793979
     -2.847848     38.830994     38.830994     77.661988
     -2.837838     36.061141     36.061141     72.122282
     -2.827828     33.401585     33.401585     66.803171
     -2.817818     30.897187     30.897187     61.794373
     -2.807808     28.425264     28.425264     56.850528
     -2.797798     25.864735     25.864735     51.729469
     -2.787788     23.233085     23.233085     46.466170
     -2.777778     20.717775     20.717775     41.435551
     -2.767768     18.595326     18.595326     37.190651
     -2.757758     17.097999     17.097999     34.195998
     -2.747748     16.314857     16.314857     32.629714
     -2.737738     16.185507     16.185507     32.371014
     -2.727728     16.579907     16.579907     33.159814
     -2.717718     17.398676     17.398676     34.797352
     -2.707708     18.615982     18.615982     37.231965
     -2.697698     20.231791     20.231791     40.463583
     -2.687688     22.172287     22.172287     44.344573
     -2.677678     24.224069     24.224069     48.448138
     -2.667668     26.071155     26.071155     52.142309
     -2.657658     27.431044     27.431044     54.862088
     -2.647648     28.208690     28.208690     56.417379
     -2.637638     28.563962     28.563962     57.127923
     -2.627628     28.839809     28.839809     57.679617
     -2.617618     29.388703     29.388703     58.777407
     -2.607608     30.398369     30.398369     60.796737
     -2.597598     31.809949     31.809949     63.619898
     -2.587588     33.354233     33.354233     66.708465
     -2.577578     34.659567     34.659567     69.319134
     -2.567568     35.360964     35.360964     70.721927
     -2.557558     35.171047     35.171047     70.342095
     -2.547548     33.921919     33.921919     67.843837
     -2.537538     31.606524     31.606524     63.213047
     -2.527528     28.425741     28.425741     56.851482
     -2.517518     24.810517     24.810517     49.621035
     -2.507508     21.376098     21.376098     42.752197
     -2.497497     18.792637     18.792637     37.585274
     -2.487487     17.604302     17.604302     35.208605
     -2.477477     18.064244     18.064244     36.128488
     -2.467467     20.054302     20.054302     40.108603
     -2.457457     23.127203     23.127203     46.254405
     -2.447447     26.660812     26.660812     53.321624
     -2.437437     30.068208     30.068208     60.136417
     -2.427427     32.981070     32.981070     65.962141
     -2.417417     35.329273     35.329273     70.658546
     -2.407407     37.279063     37.279063     74.558126
     -2.397397     39.053996     39.053996     78.107992
     -2.387387     40.722036     40.722036     81.444072
     -2.377377     42.059074     42.059074     84.118148
     -2.367367     42.572841     42.572841     85.145682
     -2.357357     41.695215     41.695215     83.390429
     -2.347347     39.059765     39.059765     78.119529
     -2.337337     34.727856     34.727856     69.455713
     -2.327327     29.248166     29.248166     58.496333
     -2.317317     23.521770     23.521770     47.043540
     -2.307307     18.543465     18.543465     37.086930
     -2.297297     15.138980     15.138980     30.277961
     -2.287287     13.795397     13.795397     27.590793
     -2.277277     14.616565     14.616565     29.233130
     -2.267267     17.375342     17.375342     34.750685
     -2.257257     21.610592     21.610592     43.221183
     -2.247247     26.726816     26.726816     53.453633
     -2.237237     32.076957     32.076957     64.153915
     -2.227227     37.026514     37.026514     74.053029
     -2.217217     41.005123     41.005123     82.010245
     -2.207207     43.553620     43.553620     87.107240
     -2.197197     44.373232     44.373232     88.746463
     -2.187187     43.377163     43.377163     86.754327
     -2.177177     40.731913     40.731913     81.463826
     -2.167167     36.861541     36.861541     73.723083
     -2.157157     32.386660     32.386660     64.773319
     -2.147147     27.992313     27.992313     55.984625
     -2.137137     24.258988     24.258988     48.517977
     -2.127127     21.522272     21.522272     43.044544
     -2.117117     19.821286     19.821286     39.642573
     -2.107107     18.951029     18.951029     37.902057
     -2.097097     18.578653     18.578653     37.157306
     -2.087087     18.358408     18.358408     36.716815
     -2.077077     18.000319     18.000319     36.000638
     -2.067067     17.292253     17.292253     34.584506
     -2.057057     16.104967     16.104967     32.209934
     -2.047047     14.404167     14.404167     28.808333
     -2.037037     12.265509     12.265509     24.531018
     -2.027027      9.869195      9.869195     19.738391
     -2.017017      7.458783      7.458783     14.917566
     -2.007007      5.274959      5.274959     10.549918
     -1.996997      3.494884      3.494884      6.989768
     -1.986987      2.205295      2.205295      4.410591
     -1.976977      1.417139      1.417139      2.834278
     -1.966967      1.107364      1.107364      2.214727
     -1.956957      1.262787      1.262787      2.525574
     -1.946947      1.903777      1.903777      3.807555
     -1.936937      3.076597      3.076597      6.153194
     -1.926927      4.816992      4.816992      9.633984
     -1.916917      7.100227      7.100227     14.200453
     -1.906907      9.800758      9.800758     19.601517
     -1.896897     12.683561     12.683561     25.367123
     -1.886887     15.437017     15.437017     30.874033
     -1.876877     17.739130     17.739130     35.478260
     -1.866867     19.334716     19.334716     38.669431
     -1.856857     20.098353     20.098353     40.196706
     -1.846847     20.064643     20.064643     40.129286
     -1.836837     19.416255     19.416255     38.832510
     -1.826827     18.428195     18.428195     36.856390
     -1.816817     17.377796     17.377796     34.755592
     -1.806807     16.446931     16.446931     32.893862
     -1.796797     15.657356     15.657356     31.314713
     -1.786787     14.875306     14.875306     29.750612
     -1.776777     13.890521     13.890521     27.781042
     -1.766767     12.533033     12.533033     25.066065
     -1.756757     10.767495     10.767495     21.534989
     -1.746747      8.718482      8.718482     17.436964
     -1.736737      6.622142      6.622142     13.244283
     -1.726727      4.740343      4.740343      9.480686
     -1.716717      3.286563      3.286563      6.573125
     -1.706707      2.394131      2.394131      4.788262
     -1.696697      2.124589      2.124589      4.249178
     -1.686687      2.489870      2.489870      4.979740
     -1.676677      3.459792      3.459792      6.919584
     -1.666667      4.944037      4.944037      9.888074
     -1.656657      6.762830      6.762830     13.525660
     -1.646647      8.637333      8.637333     17.274667
     -1.636637     10.227650     10.227650     20.455300
     -1.626627     11.222425     11.222425     22.444850
