# EIG2DOS: Utility for SIESTA to obtain the electronic density of states
#  E. Artacho, Apr 1999, A. Garcia, Apr 2012
#  Nick R. Papior, Feb 2017
# ------------------------------------------
# Eigenvalues calculated from a non-polarized calculation
# Eigenvalues read from siesta.EIG
# Kpoint weights read from siesta.KP
# Using smearing parameter:   0.0500
# Using 1000 points in the energy range
# Selected bands: 1 to: 2981
# Emin, Emax in file for selected band(s):    -27.0939177    218.3293820
# Nbands, Nspin, Nk   =   2981     1     1
# E_F                 =    -4.2800 eV --> (shifted to ZERO)
# Broadening          =     0.0500 eV
#
#        E            N(up)  (=)   N(down)         Ntot
     -5.000000     37.644578     37.644578     75.289156
     -4.989990     39.784634     39.784634     79.569268
     -4.979980     41.626346     41.626346     83.252691
     -4.969970     42.770322     42.770322     85.540645
     -4.959960     42.902736     42.902736     85.805471
     -4.949950     41.894166     41.894166     83.788332
     -4.939940     39.845068     39.845068     79.690135
     -4.929930     37.080403     37.080403     74.160805
     -4.919920     34.111823     34.111823     68.223645
     -4.909910     31.582132     31.582132     63.164264
     -4.899900     30.187888     30.187888     60.375776
     -4.889890     30.559378     30.559378     61.118756
     -4.879880     33.085971     33.085971     66.171942
     -4.869870     37.718230     37.718230     75.436459
     -4.859860     43.833787     43.833787     87.667573
     -4.849850     50.273971     50.273971    100.547943
     -4.839840     55.604858     55.604858    111.209717
     -4.829830     58.542036     58.542036    117.084073
     -4.819820     58.370191     58.370191    116.740381
     -4.809810     55.165534     55.165534    110.331067
     -4.799800     49.719334     49.719334     99.438669
     -4.789790     43.212750     43.212750     86.425500
     -4.779780     36.810056     36.810056     73.620112
     -4.769770     31.349456     31.349456     62.698912
     -4.759760     27.225359     27.225359     54.450718
     -4.749750     24.443487     24.443487     48.886974
     -4.739740     22.762540     22.762540     45.525079
     -4.729730     21.836273     21.836273     43.672546
     -4.719720     21.310706     21.310706     42.621412
     -4.709710     20.873054     20.873054     41.746107
     -4.699700     20.271619     20.271619     40.543237
     -4.689690     19.330486     19.330486     38.660971
     -4.679680     17.975954     17.975954     35.951909
     -4.669670     16.276642     16.276642     32.553285
     -4.659660     14.480892     14.480892     28.961785
     -4.649650     13.023309     13.023309     26.046619
     -4.639640     12.475289     12.475289     24.950577
     -4.629630     13.431307     13.431307     26.862615
     -4.619620     16.345476     16.345476     32.690951
     -4.609610     21.354794     21.354794     42.709589
     -4.599600     28.143975     28.143975     56.287949
     -4.589590     35.915278     35.915278     71.830556
     -4.579580     43.512085     43.512085     87.024170
     -4.569570     49.696670     49.696670     99.393341
     -4.559560     53.511757     53.511757    107.023514
     -4.549550     54.597414     54.597414    109.194828
     -4.539540     53.329785     53.329785    106.659571
     -4.529530     50.709939     50.709939    101.419877
     -4.519520     48.033627     48.033627     96.067254
     -4.509510     46.464060     46.464060     92.928119
     -4.499499     46.664972     46.664972     93.329943
     -4.489489     48.617988     48.617988     97.235977
     -4.479479     51.669472     51.669472    103.338945
     -4.469469     54.767889     54.767889    109.535778
     -4.459459     56.796670     56.796670    113.593339
     -4.449449     56.892776     56.892776    113.785551
     -4.439439     54.662566     54.662566    109.325131
     -4.429429     50.250076     50.250076    100.500152
     -4.419419     44.262506     44.262506     88.525012
     -4.409409     37.597187     37.597187     75.194374
     -4.399399     31.230758     31.230758     62.461516
     -4.389389     26.022783     26.022783     52.045565
     -4.379379     22.565030     22.565030     45.130060
     -4.369369     21.091542     21.091542     42.183084
     -4.359359     21.460348     21.460348     42.920696
     -4.349349     23.215864     23.215864     46.431728
     -4.339339     25.727426     25.727426     51.454852
     -4.329329     28.372337     28.372337     56.744674
     -4.319319     30.707145     30.707145     61.414291
     -4.309309     32.568678     32.568678     65.137355
     -4.299299     34.072313     34.072313     68.144626
     -4.289289     35.514444     35.514444     71.028887
     -4.279279     37.217095     37.217095     74.434191
     -4.269269     39.364591     39.364591     78.729183
     -4.259259     41.880836     41.880836     83.761672
     -4.249249     44.390469     44.390469     88.780938
     -4.239239     46.294651     46.294651     92.589303
     -4.229229     46.959684     46.959684     93.919368
     -4.219219     45.962770     45.962770     91.925541
     -4.209209     43.291028     43.291028     86.582056
     -4.199199     39.389094     39.389094     78.778188
     -4.189189     35.015959     35.015959     70.031917
     -4.179179     30.972160     30.972160     61.944320
     -4.169169     27.829924     27.829924     55.659848
     -4.159159     25.793235     25.793235     51.586471
     -4.149149     24.737924     24.737924     49.475848
     -4.139139     24.385877     24.385877     48.771753
     -4.129129     24.507955     24.507955     49.015909
     -4.119119     25.049980     25.049980     50.099961
     -4.109109     26.122925     26.122925     52.245850
     -4.099099     27.865907     27.865907     55.731814
     -4.089089     30.254226     30.254226     60.508452
     -4.079079     32.961223     32.961223     65.922447
     -4.069069     35.369741     35.369741     70.739483
     -4.059059     36.759214     36.759214     73.518428
     -4.049049     36.595408     36.595408     73.190816
     -4.039039     34.779513     34.779513     69.559025
     -4.029029     31.723348     31.723348     63.446697
     -4.019019     28.209811     28.209811     56.419622
     -4.009009     25.115604     25.115604     50.231208
     -3.998999     23.140291     23.140291     46.280583
     -3.988989     22.661660     22.661660     45.323321
     -3.978979     23.746814     23.746814     47.493628
     -3.968969     26.258360     26.258360     52.516719
     -3.958959     29.963722     29.963722     59.927444
     -3.948949     34.591790     34.591790     69.183580
     -3.938939     39.844292     39.844292     79.688585
     -3.928929     45.405813     45.405813     90.811626
     -3.918919     50.981967     50.981967    101.963934
     -3.908909     56.350161     56.350161    112.700321
     -3.898899     61.375509     61.375509    122.751019
     -3.888889     65.956100     65.956100    131.912200
     -3.878879     69.911127     69.911127    139.822255
     -3.868869     72.877429     72.877429    145.754859
     -3.858859     74.296459     74.296459    148.592919
     -3.848849     73.538214     73.538214    147.076428
     -3.838839     70.136108     70.136108    140.272215
     -3.828829     64.036537     64.036537    128.073074
     -3.818819     55.741420     55.741420    111.482839
     -3.808809     46.261132     46.261132     92.522264
     -3.798799     36.880770     36.880770     73.761541
     -3.788789     28.827095     28.827095     57.654189
     -3.778779     22.961180     22.961180     45.922360
     -3.768769     19.598652     19.598652     39.197304
     -3.758759     18.498020     18.498020     36.996040
     -3.748749     18.995972     18.995972     37.991944
     -3.738739     20.232203     20.232203     40.464406
     -3.728729     21.397931     21.397931     42.795862
     -3.718719     21.949924     21.949924     43.899848
     -3.708709     21.744390     21.744390     43.488780
     -3.698699     21.059716     21.059716     42.119432
     -3.688689     20.496987     20.496987     40.993975
     -3.678679     20.775601     20.775601     41.551201
     -3.668669     22.475227     22.475227     44.950453
     -3.658659     25.803947     25.803947     51.607893
     -3.648649     30.478457     30.478457     60.956913
     -3.638639     35.771949     35.771949     71.543898
     -3.628629     40.721389     40.721389     81.442778
     -3.618619     44.415394     44.415394     88.830788
     -3.608609     46.247062     46.247062     92.494124
     -3.598599     46.038516     46.038516     92.077033
     -3.588589     44.012995     44.012995     88.025990
     -3.578579     40.660555     40.660555     81.321109
     -3.568569     36.572191     36.572191     73.144382
     -3.558559     32.298204     32.298204     64.596407
     -3.548549     28.250534     28.250534     56.501068
     -3.538539     24.649518     24.649518     49.299037
     -3.528529     21.518464     21.518464     43.036927
     -3.518519     18.733211     18.733211     37.466423
     -3.508509     16.119156     16.119156     32.238313
     -3.498498     13.561461     13.561461     27.122921
     -3.488488     11.080313     11.080313     22.160626
     -3.478478      8.838241      8.838241     17.676482
     -3.468468      7.081272      7.081272     14.162545
     -3.458458      6.045155      6.045155     12.090311
     -3.448448      5.865191      5.865191     11.730383
     -3.438438      6.517480      6.517480     13.034960
     -3.428428      7.805787      7.805787     15.611573
     -3.418418      9.400082      9.400082     18.800165
     -3.408408     10.924839     10.924839     21.849677
     -3.398398     12.079076     12.079076     24.158152
     -3.388388     12.749272     12.749272     25.498543
     -3.378378     13.066777     13.066777     26.133554
     -3.368368     13.377938     13.377938     26.755876
     -3.358358     14.133614     14.133614     28.267229
     -3.348348     15.741764     15.741764     31.483527
     -3.338338     18.437287     18.437287     36.874574
     -3.328328     22.202892     22.202892     44.405784
     -3.318318     26.744165     26.744165     53.488331
     -3.308308     31.508793     31.508793     63.017585
     -3.298298     35.751338     35.751338     71.502677
     -3.288288     38.659101     38.659101     77.318202
     -3.278278     39.541110     39.541110     79.082220
     -3.268268     38.037042     38.037042     76.074083
     -3.258258     34.260023     34.260023     68.520046
     -3.248248     28.792238     28.792238     57.584476
     -3.238238     22.516677     22.516677     45.033353
     -3.228228     16.353554     16.353554     32.707108
     -3.218218     11.016898     11.016898     22.033796
     -3.208208      6.885745      6.885745     13.771490
     -3.198198      4.016163      4.016163      8.032326
     -3.188188      2.254087      2.254087      4.508174
     -3.178178      1.381010      1.381010      2.762020
     -3.168168      1.236718      1.236718      2.473437
     -3.158158      1.791891      1.791891      3.583782
     -3.148148      3.164561      3.164561      6.329121
     -3.138138      5.580679      5.580679     11.161358
     -3.128128      9.280111      9.280111     18.560221
     -3.118118     14.379705     14.379705     28.759409
     -3.108108     20.729543     20.729543     41.459086
     -3.098098     27.824496     27.824496     55.648991
     -3.088088     34.836392     34.836392     69.672784
     -3.078078     40.793931     40.793931     81.587863
     -3.068068     44.865056     44.865056     89.730113
     -3.058058     46.627549     46.627549     93.255098
     -3.048048     46.196365     46.196365     92.392731
     -3.038038     44.134889     44.134889     88.269777
     -3.028028     41.187750     41.187750     82.375500
     -3.018018     37.971313     37.971313     75.942626
     -3.008008     34.781150     34.781150     69.562300
     -2.997998     31.606102     31.606102     63.212204
     -2.987988     28.318618     28.318618     56.637237
     -2.977978     24.915954     24.915954     49.831907
     -2.967968     21.671432     21.671432     43.342864
     -2.957958     19.118657     19.118657     38.237315
     -2.947948     17.885183     17.885183     35.770365
     -2.937938     18.459293     18.459293     36.918586
     -2.927928     20.988404     20.988404     41.976808
     -2.917918     25.181295     25.181295     50.362589
     -2.907908     30.344739     30.344739     60.689479
     -2.897898     35.544764     35.544764     71.089528
     -2.887888     39.847244     39.847244     79.694488
     -2.877878     42.564588     42.564588     85.129177
     -2.867868     43.425338     43.425338     86.850676
     -2.857858     42.604236     42.604236     85.208473
     -2.847848     40.601697     40.601697     81.203394
     -2.837838     38.024165     38.024165     76.048329
     -2.827828     35.359836     35.359836     70.719672
     -2.817818     32.843888     32.843888     65.687776
     -2.807808     30.461783     30.461783     60.923567
     -2.797798     28.070782     28.070782     56.141563
     -2.787788     25.563363     25.563363     51.126726
     -2.777778     22.981127     22.981127     45.962254
     -2.767768     20.521392     20.521392     41.042783
     -2.757758     18.442585     18.442585     36.885170
     -2.747748     16.932957     16.932957     33.865914
     -2.737738     16.026503     16.026503     32.053006
     -2.727728     15.618229     15.618229     31.236457
     -2.717718     15.566162     15.566162     31.132324
     -2.707708     15.809702     15.809702     31.619403
     -2.697698     16.420792     16.420792     32.841584
     -2.687688     17.547126     17.547126     35.094252
     -2.677678     19.279551     19.279551     38.559102
     -2.667668     21.531417     21.531417     43.062834
     -2.657658     24.016532     24.016532     48.033064
     -2.647648     26.351685     26.351685     52.703371
     -2.637638     28.227556     28.227556     56.455113
     -2.627628     29.544207     29.544207     59.088414
     -2.617618     30.429034     30.429034     60.858067
     -2.607608     31.132221     31.132221     62.264442
     -2.597598     31.872244     31.872244     63.744488
     -2.587588     32.726137     32.726137     65.452274
     -2.577578     33.613955     33.613955     67.227910
     -2.567568     34.355393     34.355393     68.710786
     -2.557558     34.738029     34.738029     69.476058
     -2.547548     34.556898     34.556898     69.113796
     -2.537538     33.635768     33.635768     67.271537
     -2.527528     31.868152     31.868152     63.736304
     -2.517518     29.293037     29.293037     58.586073
     -2.507508     26.169462     26.169462     52.338925
     -2.497497     22.985306     22.985306     45.970611
     -2.487487     20.359414     20.359414     40.718829
     -2.477477     18.858147     18.858147     37.716295
     -2.467467     18.803521     18.803521     37.607043
     -2.457457     20.163539     20.163539     40.327078
     -2.447447     22.579218     22.579218     45.158435
     -2.437437     25.518694     25.518694     51.037388
     -2.427427     28.488923     28.488923     56.977846
     -2.417417     31.207602     31.207602     62.415205
     -2.407407     33.655384     33.655384     67.310769
     -2.397397     35.984894     35.984894     71.969788
     -2.387387     38.333270     38.333270     76.666540
     -2.377377     40.635089     40.635089     81.270178
     -2.367367     42.536923     42.536923     85.073846
     -2.357357     43.469281     43.469281     86.938562
     -2.347347     42.856282     42.856282     85.712564
     -2.337337     40.373780     40.373780     80.747560
     -2.327327     36.138249     36.138249     72.276497
     -2.317317     30.738365     30.738365     61.476730
     -2.307307     25.094678     25.094678     50.189356
     -2.297297     20.209774     20.209774     40.419548
     -2.287287     16.910597     16.910597     33.821194
     -2.277277     15.670732     15.670732     31.341464
     -2.267267     16.551865     16.551865     33.103730
     -2.257257     19.253739     19.253739     38.507478
     -2.247247     23.233077     23.233077     46.466154
     -2.237237     27.845296     27.845296     55.690593
     -2.227227     32.468581     32.468581     64.937162
     -2.217217     36.581997     36.581997     73.163994
     -2.207207     39.788806     39.788806     79.577611
     -2.197197     41.801402     41.801402     83.602804
     -2.187187     42.423946     42.423946     84.847891
     -2.177177     41.566409     41.566409     83.132818
     -2.167167     39.294009     39.294009     78.588018
     -2.157157     35.875517     35.875517     71.751034
     -2.147147     31.774348     31.774348     63.548696
     -2.137137     27.549838     27.549838     55.099676
     -2.127127     23.693404     23.693404     47.386807
     -2.117117     20.475908     20.475908     40.951816
     -2.107107     17.887953     17.887953     35.775907
     -2.097097     15.705480     15.705480     31.410961
     -2.087087     13.641308     13.641308     27.282616
     -2.077077     11.497940     11.497940     22.995879
     -2.067067      9.246133      9.246133     18.492266
     -2.057057      7.005596      7.005596     14.011192
     -2.047047      4.960141      4.960141      9.920282
     -2.037037      3.265146      3.265146      6.530293
     -2.027027      1.992635      1.992635      3.985271
     -2.017017      1.126618      1.126618      2.253236
     -2.007007      0.593403      0.593403      1.186807
     -1.996997      0.302085      0.302085      0.604169
     -1.986987      0.177154      0.177154      0.354308
     -1.976977      0.177545      0.177545      0.355090
     -1.966967      0.304934      0.304934      0.609869
     -1.956957      0.605489      0.605489      1.210977
     -1.946947      1.165448      1.165448      2.330895
     -1.936937      2.096543      2.096543      4.193086
     -1.926927      3.506755      3.506755      7.013510
     -1.916917      5.457581      5.457581     10.915163
     -1.906907      7.918952      7.918952     15.837904
     -1.896897     10.740901     10.740901     21.481802
     -1.886887     13.659982     13.659982     27.319964
     -1.876877     16.346103     16.346103     32.692206
     -1.866867     18.478135     18.478135     36.956271
     -1.856857     19.824514     19.824514     39.649028
     -1.846847     20.303798     20.303798     40.607596
     -1.836837     20.007105     20.007105     40.014210
     -1.826827     19.173637     19.173637     38.347274
     -1.816817     18.121250     18.121250     36.242499
     -1.806807     17.149255     17.149255     34.298511
     -1.796797     16.447971     16.447971     32.895943
     -1.786787     16.055767     16.055767     32.111534
     -1.776777     15.885904     15.885904     31.771809
     -1.766767     15.806092     15.806092     31.612185
     -1.756757     15.719200     15.719200     31.438400
     -1.746747     15.593121     15.593121     31.186241
     -1.736737     15.426620     15.426620     30.853239
     -1.726727     15.188371     15.188371     30.376741
     -1.716717     14.788394     14.788394     29.576788
     -1.706707     14.116123     14.116123     28.232245
     -1.696697     13.126196     13.126196     26.252392
     -1.686687     11.912621     11.912621     23.825241
     -1.676677     10.713740     10.713740     21.427480
     -1.666667      9.831707      9.831707     19.663414
     -1.656657      9.501535      9.501535     19.003071
     -1.646647      9.774696      9.774696     19.549392
     -1.636637     10.476580     10.476580     20.953159
     -1.626627     11.262573     11.262573     22.525147
