# EIG2DOS: Utility for SIESTA to obtain the electronic density of states
#  E. Artacho, Apr 1999, A. Garcia, Apr 2012
#  Nick R. Papior, Feb 2017
# ------------------------------------------
# Eigenvalues calculated from a non-polarized calculation
# Eigenvalues read from siesta.EIG
# Kpoint weights read from siesta.KP
# Using smearing parameter:   0.0500
# Using 1000 points in the energy range
# Selected bands: 1 to: 2981
# Emin, Emax in file for selected band(s):    -27.0819671    218.3307830
# Nbands, Nspin, Nk   =   2981     1     1
# E_F                 =    -4.2786 eV --> (shifted to ZERO)
# Broadening          =     0.0500 eV
#
#        E            N(up)  (=)   N(down)         Ntot
     -5.000000     37.216927     37.216927     74.433854
     -4.989990     39.617117     39.617117     79.234234
     -4.979980     41.584810     41.584810     83.169620
     -4.969970     42.719485     42.719485     85.438971
     -4.959960     42.750681     42.750681     85.501362
     -4.949950     41.610187     41.610187     83.220373
     -4.939940     39.453386     39.453386     78.906772
     -4.929930     36.640783     36.640783     73.281567
     -4.919920     33.698939     33.698939     67.397877
     -4.909910     31.270353     31.270353     62.540706
     -4.899900     30.041122     30.041122     60.082244
     -4.889890     30.621320     30.621320     61.242641
     -4.879880     33.367347     33.367347     66.734693
     -4.869870     38.183487     38.183487     76.366975
     -4.859860     44.395786     44.395786     88.791572
     -4.849850     50.805937     50.805937    101.611875
     -4.839840     55.971836     55.971836    111.943673
     -4.829830     58.642500     58.642500    117.285000
     -4.819820     58.170067     58.170067    116.340135
     -4.809810     54.708353     54.708353    109.416707
     -4.799800     49.107598     49.107598     98.215197
     -4.789790     42.569942     42.569942     85.139884
     -4.779780     36.240895     36.240895     72.481789
     -4.769770     30.913891     30.913891     61.827782
     -4.759760     26.932548     26.932548     53.865096
     -4.749750     24.262528     24.262528     48.525056
     -4.739740     22.641968     22.641968     45.283936
     -4.729730     21.724448     21.724448     43.448897
     -4.719720     21.171527     21.171527     42.343054
     -4.709710     20.693793     20.693793     41.387585
     -4.699700     20.061879     20.061879     40.123757
     -4.689690     19.113863     19.113863     38.227726
     -4.679680     17.778560     17.778560     35.557120
     -4.669670     16.117908     16.117908     32.235815
     -4.659660     14.371089     14.371089     28.742178
     -4.649650     12.969199     12.969199     25.938398
     -4.639640     12.491360     12.491360     24.982720
     -4.629630     13.550457     13.550457     27.100914
     -4.619620     16.621010     16.621010     33.242020
     -4.609610     21.847089     21.847089     43.694178
     -4.599600     28.891442     28.891442     57.782884
     -4.589590     36.899402     36.899402     73.798803
     -4.579580     44.634861     44.634861     89.269722
     -4.569570     50.788266     50.788266    101.576533
     -4.559560     54.372945     54.372945    108.745891
     -4.549550     55.061147     55.061147    110.122294
     -4.539540     53.312503     53.312503    106.625006
     -4.529530     50.227221     50.227221    100.454441
     -4.519520     47.175686     47.175686     94.351371
     -4.509510     45.350431     45.350431     90.700862
     -4.499499     45.407783     45.407783     90.815566
     -4.489489     47.312643     47.312643     94.625286
     -4.479479     50.408937     50.408937    100.817874
     -4.469469     53.658894     53.658894    107.317788
     -4.459459     55.955782     55.955782    111.911563
     -4.449449     56.417031     56.417031    112.834062
     -4.439439     54.590338     54.590338    109.180676
     -4.429429     50.537638     50.537638    101.075275
     -4.419419     44.793456     44.793456     89.586912
     -4.409409     38.221978     38.221978     76.443956
     -4.399399     31.816197     31.816197     63.632394
     -4.389389     26.487783     26.487783     52.975566
     -4.379379     22.889530     22.889530     45.779059
     -4.369369     21.301489     21.301489     42.602978
     -4.359359     21.602456     21.602456     43.204913
     -4.349349     23.336569     23.336569     46.673137
     -4.339339     25.863434     25.863434     51.726869
     -4.329329     28.551363     28.551363     57.102726
     -4.319319     30.951894     30.951894     61.903788
     -4.309309     32.896988     32.896988     65.793977
     -4.299299     34.490654     34.490654     68.981308
     -4.289289     36.007792     36.007792     72.015584
     -4.279279     37.742182     37.742182     75.484363
     -4.269269     39.852996     39.852996     79.705993
     -4.259259     42.253623     42.253623     84.507245
     -4.249249     44.579797     44.579797     89.159595
     -4.239239     46.264020     46.264020     92.528040
     -4.229229     46.715119     46.715119     93.430238
     -4.219219     45.551491     45.551491     91.102983
     -4.209209     42.789026     42.789026     85.578052
     -4.199199     38.882330     38.882330     77.764660
     -4.189189     34.580900     34.580900     69.161800
     -4.179179     30.660635     30.660635     61.321271
     -4.169169     27.661666     27.661666     55.323331
     -4.159159     25.757459     25.757459     51.514918
     -4.149149     24.803258     24.803258     49.606517
     -4.139139     24.515821     24.515821     49.031642
     -4.129129     24.676918     24.676918     49.353835
     -4.119119     25.253375     25.253375     50.506750
     -4.109109     26.375395     26.375395     52.750790
     -4.099099     28.186063     28.186063     56.372126
     -4.089089     30.641752     30.641752     61.283503
     -4.079079     33.378881     33.378881     66.757762
     -4.069069     35.743234     35.743234     71.486469
     -4.059059     36.999467     36.999467     73.998934
     -4.049049     36.634398     36.634398     73.268797
     -4.039039     34.601121     34.601121     69.202243
     -4.029029     31.372173     31.372173     62.744345
     -4.019019     27.773371     27.773371     55.546742
     -4.009009     24.690582     24.690582     49.381164
     -3.998999     22.801122     22.801122     45.602244
     -3.988989     22.445561     22.445561     44.891122
     -3.978979     23.657520     23.657520     47.315040
     -3.968969     26.280320     26.280320     52.560639
     -3.958959     30.075780     30.075780     60.151560
     -3.948949     34.774250     34.774250     69.548501
     -3.938939     40.080318     40.080318     80.160636
     -3.928929     45.681613     45.681613     91.363226
     -3.918919     51.288362     51.288362    102.576723
     -3.908909     56.683685     56.683685    113.367370
     -3.898899     61.734848     61.734848    123.469697
     -3.888889     66.332083     66.332083    132.664166
     -3.878879     70.274362     70.274362    140.548723
     -3.868869     73.172420     73.172420    146.344839
     -3.858859     74.450168     74.450168    148.900336
     -3.848849     73.483607     73.483607    146.967214
     -3.838839     69.841429     69.841429    139.682858
     -3.828829     63.525619     63.525619    127.051237
     -3.818819     55.093598     55.093598    110.187195
     -3.808809     45.589675     45.589675     91.179349
     -3.798799     36.299381     36.299381     72.598762
     -3.788789     28.418558     28.418558     56.837117
     -3.778779     22.759003     22.759003     45.518006
     -3.768769     19.585213     19.585213     39.170426
     -3.758759     18.616404     18.616404     37.232809
     -3.748749     19.169812     19.169812     38.339624
     -3.738739     20.387805     20.387805     40.775610
     -3.728729     21.483863     21.483863     42.967726
     -3.718719     21.950015     21.950015     43.900030
     -3.708709     21.681064     21.681064     43.362128
     -3.698699     20.986283     20.986283     41.972565
     -3.688689     20.480153     20.480153     40.960306
     -3.678679     20.872504     20.872504     41.745007
     -3.668669     22.711878     22.711878     45.423756
     -3.658659     26.162717     26.162717     52.325434
     -3.648649     30.900076     30.900076     61.800151
     -3.638639     36.172287     36.172287     72.344574
     -3.628629     41.016995     41.016995     82.033989
     -3.618619     44.547769     44.547769     89.095539
     -3.608609     46.196581     46.196581     92.393162
     -3.598599     45.824338     45.824338     91.648676
     -3.588589     43.681818     43.681818     87.363636
     -3.578579     40.270670     40.270670     80.541341
     -3.568569     36.178703     36.178703     72.357407
     -3.558559     31.942373     31.942373     63.884746
     -3.548549     27.953941     27.953941     55.907882
     -3.538539     24.413231     24.413231     48.826462
     -3.528529     21.327450     21.327450     42.654901
     -3.518519     18.565287     18.565287     37.130574
     -3.508509     15.955731     15.955731     31.911462
     -3.498498     13.395987     13.395987     26.791975
     -3.488488     10.921098     10.921098     21.842195
     -3.478478      8.704936      8.704936     17.409872
     -3.468468      6.997114      6.997114     13.994227
     -3.458458      6.028148      6.028148     12.056297
     -3.448448      5.920932      5.920932     11.841864
     -3.438438      6.635248      6.635248     13.270496
     -3.428428      7.958970      7.958970     15.917939
     -3.418418      9.551620      9.551620     19.103240
     -3.408408     11.037323     11.037323     22.074647
     -3.398398     12.127192     12.127192     24.254383
     -3.388388     12.730480     12.730480     25.460959
     -3.378378     13.006176     13.006176     26.012352
     -3.368368     13.325311     13.325311     26.650623
     -3.358358     14.153428     14.153428     28.306856
     -3.348348     15.898386     15.898386     31.796771
     -3.338338     18.777589     18.777589     37.555177
     -3.328328     22.738329     22.738329     45.476659
     -3.318318     27.436195     27.436195     54.872390
     -3.308308     32.264395     32.264395     64.528791
     -3.298298     36.435911     36.435911     72.871822
     -3.288288     39.128673     39.128673     78.257346
     -3.278278     39.685584     39.685584     79.371168
     -3.268268     37.817238     37.817238     75.634476
     -3.258258     33.721084     33.721084     67.442167
     -3.248248     28.046444     28.046444     56.092888
     -3.238238     21.704023     21.704023     43.408046
     -3.228228     15.598692     15.598692     31.197383
     -3.218218     10.400281     10.400281     20.800561
     -3.208208      6.436954      6.436954     12.873908
     -3.198198      3.725862      3.725862      7.451723
     -3.188188      2.094597      2.094597      4.189193
     -3.178178      1.325789      1.325789      2.651577
     -3.168168      1.273090      1.273090      2.546180
     -3.158158      1.925283      1.925283      3.850567
     -3.148148      3.414295      3.414295      6.828590
     -3.138138      5.967967      5.967967     11.935934
     -3.128128      9.810317      9.810317     19.620633
     -3.118118     15.024083     15.024083     30.048166
     -3.108108     21.414850     21.414850     42.829700
     -3.098098     28.438655     28.438655     56.877309
     -3.088088     35.252515     35.252515     70.505031
     -3.078078     40.905382     40.905382     81.810764
     -3.068068     44.616948     44.616948     89.233896
     -3.058058     46.031022     46.031022     92.062045
     -3.048048     45.321446     45.321446     90.642892
     -3.038038     43.089221     43.089221     86.178443
     -3.028028     40.093624     40.093624     80.187248
     -3.018018     36.949093     36.949093     73.898186
     -3.008008     33.938470     33.938470     67.876940
     -2.997998     31.027265     31.027265     62.054531
     -2.987988     28.051586     28.051586     56.103172
     -2.977978     24.961389     24.961389     49.922779
     -2.967968     21.981927     21.981927     43.963855
     -2.957958     19.612358     19.612358     39.224716
     -2.947948     18.469490     18.469490     36.938980
     -2.937938     19.054117     19.054117     38.108234
     -2.927928     21.539272     21.539272     43.078544
     -2.917918     25.659278     25.659278     51.318556
     -2.907908     30.737420     30.737420     61.474840
     -2.897898     35.845726     35.845726     71.691453
     -2.887888     40.050006     40.050006     80.100013
     -2.877878     42.662817     42.662817     85.325633
     -2.867868     43.417480     43.417480     86.834959
     -2.857858     42.498930     42.498930     84.997861
     -2.847848     40.420510     40.420510     80.841019
     -2.837838     37.799747     37.799747     75.599495
     -2.827828     35.129834     35.129834     70.259668
     -2.817818     32.642955     32.642955     65.285911
     -2.807808     30.314963     30.314963     60.629926
     -2.797798     27.990629     27.990629     55.981258
     -2.787788     25.551023     25.551023     51.102046
     -2.777778     23.029481     23.029481     46.058961
     -2.767768     20.617886     20.617886     41.235773
     -2.757758     18.570746     18.570746     37.141493
     -2.747748     17.073649     17.073649     34.147297
     -2.737738     16.160903     16.160903     32.321806
     -2.727728     15.733172     15.733172     31.466344
     -2.717718     15.659831     15.659831     31.319662
     -2.707708     15.893788     15.893788     31.787577
     -2.697698     16.516212     16.516212     33.032423
     -2.687688     17.674101     17.674101     35.348203
     -2.677678     19.447106     19.447106     38.894212
     -2.667668     21.732833     21.732833     43.465665
     -2.657658     24.234443     24.234443     48.468885
     -2.647648     26.570475     26.570475     53.140950
     -2.637638     28.445446     28.445446     56.890892
     -2.627628     29.776794     29.776794     59.553588
     -2.617618     30.701085     30.701085     61.402170
     -2.607608     31.462082     31.462082     62.924163
     -2.597598     32.258008     32.258008     64.516016
     -2.587588     33.141160     33.141160     66.282320
     -2.577578     34.012745     34.012745     68.025490
     -2.567568     34.684768     34.684768     69.369536
     -2.557558     34.947442     34.947442     69.894884
     -2.547548     34.605962     34.605962     69.211923
     -2.537538     33.501371     33.501371     67.002743
     -2.527528     31.553347     31.553347     63.106693
     -2.517518     28.835146     28.835146     57.670291
     -2.507508     25.640612     25.640612     51.281225
     -2.497497     22.479831     22.479831     44.959662
     -2.487487     19.969487     19.969487     39.938974
     -2.477477     18.646670     18.646670     37.293339
     -2.467467     18.786153     18.786153     37.572306
     -2.457457     20.307761     20.307761     40.615522
     -2.447447     22.820080     22.820080     45.640160
     -2.437437     25.783320     25.783320     51.566640
     -2.427427     28.718928     28.718928     57.437857
     -2.417417     31.371401     31.371401     62.742802
     -2.407407     33.748483     33.748483     67.496966
     -2.397397     36.021589     36.021589     72.043179
     -2.387387     38.334837     38.334837     76.669675
     -2.377377     40.618145     40.618145     81.236291
     -2.367367     42.504199     42.504199     85.008398
     -2.357357     43.405364     43.405364     86.810728
     -2.347347     42.731441     42.731441     85.462883
     -2.337337     40.156654     40.156654     80.313309
     -2.327327     35.812824     35.812824     71.625648
     -2.317317     30.316305     30.316305     60.632610
     -2.307307     24.615329     24.615329     49.230658
     -2.297297     19.727233     19.727233     39.454466
     -2.287287     16.475135     16.475135     32.950271
     -2.277277     15.314786     15.314786     30.629573
     -2.267267     16.287098     16.287098     32.574196
     -2.257257     19.078464     19.078464     38.156928
     -2.247247     23.143581     23.143581     46.287161
     -2.237237     27.843313     27.843313     55.686626
     -2.227227     32.560298     32.560298     65.120596
     -2.217217     36.769341     36.769341     73.538681
     -2.207207     40.058459     40.058459     80.116918
     -2.197197     42.118777     42.118777     84.237553
     -2.187187     42.737132     42.737132     85.474263
     -2.177177     41.819932     41.819932     83.639865
     -2.167167     39.446629     39.446629     78.893257
     -2.157157     35.913492     35.913492     71.826985
     -2.147147     31.713466     31.713466     63.426933
     -2.137137     27.425312     27.425312     54.850623
     -2.127127     23.543172     23.543172     47.086343
     -2.117117     20.326064     20.326064     40.652128
     -2.107107     17.747051     17.747051     35.494101
     -2.097097     15.568795     15.568795     31.137591
     -2.087087     13.500573     13.500573     27.001147
     -2.077077     11.350004     11.350004     22.700008
     -2.067067      9.096107      9.096107     18.192214
     -2.057057      6.864250      6.864250     13.728499
     -2.047047      4.838546      4.838546      9.677091
     -2.037037      3.170184      3.170184      6.340368
     -2.027027      1.925400      1.925400      3.850800
     -2.017017      1.083593      1.083593      2.167186
     -2.007007      0.569037      0.569037      1.138074
     -1.996997      0.291384      0.291384      0.582769
     -1.986987      0.177614      0.177614      0.355229
     -1.976977      0.190410      0.190410      0.380819
     -1.966967      0.335949      0.335949      0.671898
     -1.956957      0.664970      0.664970      1.329941
     -1.946947      1.266992      1.266992      2.533984
     -1.936937      2.253551      2.253551      4.507102
     -1.926927      3.726662      3.726662      7.453325
     -1.916917      5.735217      5.735217     11.470434
     -1.906907      8.232083      8.232083     16.464165
     -1.896897     11.051400     11.051400     22.102800
     -1.886887     13.922233     13.922233     27.844466
     -1.876877     16.520678     16.520678     33.041356
     -1.866867     18.545489     18.545489     37.090979
     -1.856857     19.792596     19.792596     39.585192
     -1.846847     20.205692     20.205692     40.411385
     -1.836837     19.888610     19.888610     39.777220
     -1.826827     19.073833     19.073833     38.147667
     -1.816817     18.050593     18.050593     36.101185
     -1.806807     17.070141     17.070141     34.140282
     -1.796797     16.263139     16.263139     32.526277
     -1.786787     15.610576     15.610576     31.221153
     -1.776777     14.990564     14.990564     29.981128
     -1.766767     14.281637     14.281637     28.563275
     -1.756757     13.464448     13.464448     26.928897
     -1.746747     12.658088     12.658088     25.316177
     -1.736737     12.064134     12.064134     24.128268
     -1.726727     11.849172     11.849172     23.698344
     -1.716717     12.037277     12.037277     24.074555
     -1.706707     12.480437     12.480437     24.960874
     -1.696697     12.928723     12.928723     25.857446
     -1.686687     13.161368     13.161368     26.322736
     -1.676677     13.101848     13.101848     26.203695
     -1.666667     12.848144     12.848144     25.696287
     -1.656657     12.599296     12.599296     25.198592
     -1.646647     12.521477     12.521477     25.042953
     -1.636637     12.633444     12.633444     25.266888
     -1.626627     12.780313     12.780313     25.560627
