# EIG2DOS: Utility for SIESTA to obtain the electronic density of states
#  E. Artacho, Apr 1999, A. Garcia, Apr 2012
#  Nick R. Papior, Feb 2017
# ------------------------------------------
# Eigenvalues calculated from a non-polarized calculation
# Eigenvalues read from siesta.EIG
# Kpoint weights read from siesta.KP
# Using smearing parameter:   0.0500
# Using 1000 points in the energy range
# Selected bands: 1 to: 2981
# Emin, Emax in file for selected band(s):    -27.2110112    218.3734750
# Nbands, Nspin, Nk   =   2981     1     1
# E_F                 =    -4.2299 eV --> (shifted to ZERO)
# Broadening          =     0.0500 eV
#
#        E            N(up)  (=)   N(down)         Ntot
     -5.000000     33.274305     33.274305     66.548611
     -4.989990     37.675531     37.675531     75.351063
     -4.979980     41.557992     41.557992     83.115984
     -4.969970     44.292497     44.292497     88.584994
     -4.959960     45.396970     45.396970     90.793941
     -4.949950     44.694653     44.694653     89.389305
     -4.939940     42.380180     42.380180     84.760360
     -4.929930     38.982121     38.982121     77.964242
     -4.919920     35.255824     35.255824     70.511648
     -4.909910     32.052610     32.052610     64.105219
     -4.899900     30.188540     30.188540     60.377081
     -4.889890     30.305584     30.305584     60.611169
     -4.879880     32.714878     32.714878     65.429756
     -4.869870     37.247202     37.247202     74.494405
     -4.859860     43.182292     43.182292     86.364585
     -4.849850     49.338409     49.338409     98.676818
     -4.839840     54.348796     54.348796    108.697592
     -4.829830     57.053321     57.053321    114.106641
     -4.819820     56.853352     56.853352    113.706703
     -4.809810     53.875043     53.875043    107.750087
     -4.799800     48.871783     48.871783     97.743565
     -4.789790     42.922081     42.922081     85.844162
     -4.779780     37.068791     37.068791     74.137581
     -4.769770     32.049796     32.049796     64.099593
     -4.759760     28.198468     28.198468     56.396936
     -4.749750     25.498821     25.498821     50.997642
     -4.739740     23.721181     23.721181     47.442362
     -4.729730     22.559195     22.559195     45.118391
     -4.719720     21.721242     21.721242     43.442484
     -4.709710     20.969322     20.969322     41.938644
     -4.699700     20.126968     20.126968     40.253937
     -4.689690     19.087783     19.087783     38.175566
     -4.679680     17.847022     17.847022     35.694043
     -4.669670     16.553924     16.553924     33.107848
     -4.659660     15.554386     15.554386     31.108773
     -4.649650     15.379826     15.379826     30.759652
     -4.639640     16.650482     16.650482     33.300964
     -4.629630     19.896380     19.896380     39.792759
     -4.619620     25.341058     25.341058     50.682117
     -4.609610     32.723847     32.723847     65.447693
     -4.599600     41.242191     41.242191     82.484381
     -4.589590     49.668343     49.668343     99.336686
     -4.579580     56.636153     56.636153    113.272306
     -4.569570     61.021153     61.021153    122.042306
     -4.559560     62.283338     62.283338    124.566677
     -4.549550     60.639283     60.639283    121.278565
     -4.539540     56.988374     56.988374    113.976748
     -4.529530     52.613688     52.613688    105.227375
     -4.519520     48.767123     48.767123     97.534246
     -4.509510     46.290723     46.290723     92.581445
     -4.499499     45.405412     45.405412     90.810825
     -4.489489     45.727200     45.727200     91.454401
     -4.479479     46.481264     46.481264     92.962529
     -4.469469     46.813748     46.813748     93.627496
     -4.459459     46.077126     46.077126     92.154252
     -4.449449     43.994080     43.994080     87.988159
     -4.439439     40.669485     40.669485     81.338970
     -4.429429     36.487219     36.487219     72.974437
     -4.419419     31.965739     31.965739     63.931477
     -4.409409     27.638912     27.638912     55.277825
     -4.399399     23.987444     23.987444     47.974889
     -4.389389     21.402410     21.402410     42.804821
     -4.379379     20.146751     20.146751     40.293502
     -4.369369     20.301738     20.301738     40.603475
     -4.359359     21.722747     21.722747     43.445494
     -4.349349     24.048251     24.048251     48.096502
     -4.339339     26.788044     26.788044     53.576088
     -4.329329     29.471829     29.471829     58.943658
     -4.319319     31.799161     31.799161     63.598322
     -4.309309     33.723959     33.723959     67.447919
     -4.299299     35.434932     35.434932     70.869863
     -4.289289     37.237920     37.237920     74.475840
     -4.279279     39.383686     39.383686     78.767372
     -4.269269     41.903591     41.903591     83.807181
     -4.259259     44.517067     44.517067     89.034134
     -4.249249     46.660031     46.660031     93.320063
     -4.239239     47.647877     47.647877     95.295755
     -4.229229     46.930550     46.930550     93.861101
     -4.219219     44.340640     44.340640     88.681280
     -4.209209     40.216037     40.216037     80.432074
     -4.199199     35.323380     35.323380     70.646760
     -4.189189     30.603835     30.603835     61.207670
     -4.179179     26.855015     26.855015     53.710031
     -4.169169     24.494613     24.494613     48.989225
     -4.159159     23.503749     23.503749     47.007499
     -4.149149     23.553411     23.553411     47.106823
     -4.139139     24.231557     24.231557     48.463114
     -4.129129     25.252686     25.252686     50.505372
     -4.119119     26.552752     26.552752     53.105504
     -4.109109     28.231967     28.231967     56.463933
     -4.099099     30.380650     30.380650     60.761300
     -4.089089     32.883288     32.883288     65.766577
     -4.079079     35.317462     35.317462     70.634923
     -4.069069     37.027497     37.027497     74.054994
     -4.059059     37.363434     37.363434     74.726868
     -4.049049     35.977380     35.977380     71.954760
     -4.039039     33.023685     33.023685     66.047369
     -4.029029     29.153031     29.153031     58.306062
     -4.019019     25.301266     25.301266     50.602532
     -4.009009     22.381818     22.381818     44.763636
     -3.998999     21.028889     21.028889     42.057778
     -3.988989     21.490493     21.490493     42.980987
     -3.978979     23.676459     23.676459     47.352919
     -3.968969     27.290564     27.290564     54.581128
     -3.958959     31.959619     31.959619     63.919239
     -3.948949     37.311215     37.311215     74.622429
     -3.938939     43.005613     43.005613     86.011226
     -3.928929     48.753432     48.753432     97.506864
     -3.918919     54.335834     54.335834    108.671667
     -3.908909     59.611209     59.611209    119.222419
     -3.898899     64.478702     64.478702    128.957405
     -3.888889     68.792423     68.792423    137.584847
     -3.878879     72.264583     72.264583    144.529166
     -3.868869     74.424631     74.424631    148.849262
     -3.858859     74.687983     74.687983    149.375967
     -3.848849     72.534781     72.534781    145.069561
     -3.838839     67.736008     67.736008    135.472017
     -3.828829     60.528095     60.528095    121.056190
     -3.818819     51.649547     51.649547    103.299093
     -3.808809     42.209173     42.209173     84.418347
     -3.798799     33.426335     33.426335     66.852670
     -3.788789     26.334004     26.334004     52.668008
     -3.778779     21.543523     21.543523     43.087046
     -3.768769     19.138217     19.138217     38.276433
     -3.758759     18.712993     18.712993     37.425985
     -3.748749     19.532873     19.532873     39.065746
     -3.738739     20.758126     20.758126     41.516252
     -3.728729     21.676992     21.676992     43.353984
     -3.718719     21.892060     21.892060     43.784120
     -3.708709     21.417688     21.417688     42.835376
     -3.698699     20.662367     20.662367     41.324733
     -3.688689     20.293172     20.293172     40.586345
     -3.678679     21.009841     21.009841     42.019681
     -3.668669     23.288693     23.288693     46.577387
     -3.658659     27.179444     27.179444     54.358888
     -3.648649     32.234320     32.234320     64.468640
     -3.638639     37.608659     37.608659     75.217318
     -3.628629     42.304111     42.304111     84.608223
     -3.618619     45.461434     45.461434     90.922868
     -3.608609     46.587918     46.587918     93.175837
     -3.598599     45.641314     45.641314     91.282628
     -3.588589     42.965260     42.965260     85.930519
     -3.578579     39.133590     39.133590     78.267180
     -3.568569     34.777670     34.777670     69.555340
     -3.558559     30.446010     30.446010     60.892019
     -3.548549     26.512094     26.512094     53.024189
     -3.538539     23.132275     23.132275     46.264550
     -3.528529     20.258676     20.258676     40.517352
     -3.518519     17.710246     17.710246     35.420492
     -3.508509     15.285301     15.285301     30.570602
     -3.498498     12.873703     12.873703     25.747407
     -3.488488     10.520489     10.520489     21.040978
     -3.478478      8.415408      8.415408     16.830816
     -3.468468      6.819404      6.819404     13.638808
     -3.458458      5.964452      5.964452     11.928903
     -3.448448      5.965210      5.965210     11.930419
     -3.438438      6.767633      6.767633     13.535266
     -3.428428      8.146453      8.146453     16.292907
     -3.418418      9.755740      9.755740     19.511479
     -3.408408     11.227457     11.227457     22.454914
     -3.398398     12.295192     12.295192     24.590385
     -3.388388     12.900347     12.900347     25.800694
     -3.378378     13.233419     13.233419     26.466839
     -3.368368     13.685127     13.685127     27.370254
     -3.358358     14.722372     14.722372     29.444744
     -3.348348     16.737251     16.737251     33.474502
     -3.338338     19.921972     19.921972     39.843944
     -3.328328     24.199870     24.199870     48.399740
     -3.318318     29.215327     29.215327     58.430655
     -3.308308     34.375462     34.375462     68.750923
     -3.298298     38.943367     38.943367     77.886734
     -3.288288     42.183848     42.183848     84.367697
     -3.278278     43.539725     43.539725     87.079450
     -3.268268     42.781569     42.781569     85.563138
     -3.258258     40.062516     40.062516     80.125031
     -3.248248     35.846754     35.846754     71.693507
     -3.238238     30.747110     30.747110     61.494220
     -3.228228     25.354179     25.354179     50.708359
     -3.218218     20.131099     20.131099     40.262198
     -3.208208     15.395629     15.395629     30.791259
     -3.198198     11.359521     11.359521     22.719042
     -3.188188      8.179665      8.179665     16.359330
     -3.178178      5.994242      5.994242     11.988485
     -3.168168      4.941425      4.941425      9.882851
     -3.158158      5.164900      5.164900     10.329800
     -3.148148      6.800774      6.800774     13.601549
     -3.138138      9.932999      9.932999     19.865998
     -3.128128     14.514719     14.514719     29.029438
     -3.118118     20.279134     20.279134     40.558269
     -3.108108     26.687429     26.687429     53.374858
     -3.098098     32.962496     32.962496     65.924993
     -3.088088     38.227005     38.227005     76.454010
     -3.078078     41.714223     41.714223     83.428446
     -3.068068     42.976013     42.976013     85.952026
     -3.058058     42.001156     42.001156     84.002313
     -3.048048     39.189659     39.189659     78.379319
     -3.038038     35.192514     35.192514     70.385029
     -3.028028     30.689618     30.689618     61.379236
     -3.018018     26.206166     26.206166     52.412332
     -3.008008     22.042695     22.042695     44.085391
     -2.997998     18.329842     18.329842     36.659685
     -2.987988     15.154168     15.154168     30.308336
     -2.977978     12.673221     12.673221     25.346443
     -2.967968     11.157194     11.157194     22.314389
     -2.957958     10.940843     10.940843     21.881686
     -2.947948     12.311506     12.311506     24.623012
     -2.937938     15.379030     15.379030     30.758060
     -2.927928     19.973753     19.973753     39.947506
     -2.917918     25.610245     25.610245     51.220489
     -2.907908     31.541183     31.541183     63.082366
     -2.897898     36.903180     36.903180     73.806360
     -2.887888     40.922958     40.922958     81.845916
     -2.877878     43.119115     43.119115     86.238230
     -2.867868     43.422118     43.422118     86.844237
     -2.857858     42.158265     42.158265     84.316531
     -2.847848     39.898154     39.898154     79.796309
     -2.837838     37.232034     37.232034     74.464067
     -2.827828     34.570150     34.570150     69.140301
     -2.817818     32.054061     32.054061     64.108122
     -2.807808     29.608409     29.608409     59.216817
     -2.797798     27.091056     27.091056     54.182113
     -2.787788     24.451612     24.451612     48.903224
     -2.777778     21.810652     21.810652     43.621304
     -2.767768     19.422453     19.422453     38.844906
     -2.757758     17.553361     17.553361     35.106721
     -2.747748     16.355807     16.355807     32.711614
     -2.737738     15.816375     15.816375     31.632750
     -2.727728     15.806106     15.806106     31.612212
     -2.717718     16.193285     16.193285     32.386570
     -2.707708     16.936788     16.936788     33.873575
     -2.697698     18.091087     18.091087     36.182174
     -2.687688     19.716306     19.716306     39.432612
     -2.677678     21.757476     21.757476     43.514951
     -2.667668     23.986181     23.986181     47.972363
     -2.657658     26.060628     26.060628     52.121256
     -2.647648     27.678955     27.678955     55.357910
     -2.637638     28.731804     28.731804     57.463607
     -2.627628     29.354636     29.354636     58.709271
     -2.617618     29.844421     29.844421     59.688843
     -2.607608     30.493398     30.493398     60.986795
     -2.597598     31.440738     31.440738     62.881476
     -2.587588     32.619059     32.619059     65.238119
     -2.577578     33.801055     33.801055     67.602109
     -2.567568     34.691357     34.691357     69.382714
     -2.557558     35.003432     35.003432     70.006864
     -2.547548     34.503585     34.503585     69.007169
     -2.537538     33.047189     33.047189     66.094379
     -2.527528     30.634476     30.634476     61.268953
     -2.517518     27.475663     27.475663     54.951327
     -2.507508     24.017096     24.017096     48.034192
     -2.497497     20.880336     20.880336     41.760671
     -2.487487     18.709369     18.709369     37.418739
     -2.477477     17.976785     17.976785     35.953571
     -2.467467     18.830332     18.830332     37.660664
     -2.457457     21.049243     21.049243     42.098487
     -2.447447     24.133452     24.133452     48.266905
     -2.437437     27.491336     27.491336     54.982672
     -2.427427     30.647715     30.647715     61.295430
     -2.417417     33.382241     33.382241     66.764482
     -2.407407     35.736441     35.736441     71.472883
     -2.397397     37.886523     37.886523     75.773046
     -2.387387     39.943877     39.943877     79.887753
     -2.377377     41.785317     41.785317     83.570634
     -2.367367     43.008120     43.008120     86.016239
     -2.357357     43.048975     43.048975     86.097951
     -2.347347     41.424086     41.424086     82.848172
     -2.337337     37.980682     37.980682     75.961364
     -2.327327     33.037546     33.037546     66.075092
     -2.317317     27.345024     27.345024     54.690047
     -2.307307     21.884428     21.884428     43.768856
     -2.297297     17.599480     17.599480     35.198960
     -2.287287     15.168565     15.168565     30.337130
     -2.277277     14.886750     14.886750     29.773501
     -2.267267     16.665714     16.665714     33.331427
     -2.257257     20.116036     20.116036     40.232071
     -2.247247     24.664332     24.664332     49.328664
     -2.237237     29.667838     29.667838     59.335676
     -2.227227     34.504865     34.504865     69.009730
     -2.217217     38.632945     38.632945     77.265891
     -2.207207     41.618226     41.618226     83.236453
     -2.197197     43.150627     43.150627     86.301253
     -2.187187     43.063840     43.063840     86.127681
     -2.177177     41.369586     41.369586     82.739172
     -2.167167     38.291957     38.291957     76.583913
     -2.157157     34.265598     34.265598     68.531196
     -2.147147     29.863099     29.863099     59.726197
     -2.137137     25.651777     25.651777     51.303554
     -2.127127     22.029973     22.029973     44.059945
     -2.117117     19.120898     19.120898     38.241796
     -2.107107     16.781272     16.781272     33.562545
     -2.097097     14.720743     14.720743     29.441485
     -2.087087     12.666792     12.666792     25.333583
     -2.077077     10.489785     10.489785     20.979570
     -2.067067      8.234706      8.234706     16.469413
     -2.057057      6.064144      6.064144     12.128288
     -2.047047      4.161522      4.161522      8.323043
     -2.037037      2.650797      2.650797      5.301594
     -2.027027      1.564082      1.564082      3.128163
     -2.017017      0.855413      0.855413      1.710826
     -2.007007      0.438558      0.438558      0.877115
     -1.996997      0.225541      0.225541      0.451082
     -1.986987      0.153478      0.153478      0.306955
     -1.976977      0.199085      0.199085      0.398170
     -1.966967      0.386113      0.386113      0.772226
     -1.956957      0.789717      0.789717      1.579435
     -1.946947      1.536520      1.536520      3.073041
     -1.936937      2.793746      2.793746      5.587492
     -1.926927      4.739299      4.739299      9.478598
     -1.916917      7.509390      7.509390     15.018780
     -1.906907     11.130945     11.130945     22.261891
     -1.896897     15.458507     15.458507     30.917013
     -1.886887     20.143276     20.143276     40.286553
     -1.876877     24.659582     24.659582     49.319164
     -1.866867     28.399120     28.399120     56.798239
     -1.856857     30.818319     30.818319     61.636637
     -1.846847     31.596509     31.596509     63.193017
     -1.836837     30.744688     30.744688     61.489377
     -1.826827     28.610640     28.610640     57.221281
     -1.816817     25.762752     25.762752     51.525503
     -1.806807     22.791066     22.791066     45.582133
     -1.796797     20.110242     20.110242     40.220484
     -1.786787     17.853715     17.853715     35.707431
     -1.776777     15.902500     15.902500     31.805000
     -1.766767     14.020694     14.020694     28.041389
     -1.756757     12.016965     12.016965     24.033930
     -1.746747      9.848863      9.848863     19.697725
     -1.736737      7.631561      7.631561     15.263122
     -1.726727      5.570993      5.570993     11.141987
     -1.716717      3.875862      3.875862      7.751725
     -1.706707      2.698144      2.698144      5.396289
     -1.696697      2.119648      2.119648      4.239296
     -1.686687      2.168697      2.168697      4.337393
     -1.676677      2.836179      2.836179      5.672358
     -1.666667      4.068826      4.068826      8.137651
     -1.656657      5.740879      5.740879     11.481758
     -1.646647      7.628308      7.628308     15.256617
     -1.636637      9.417981      9.417981     18.835963
     -1.626627     10.770673     10.770673     21.541347
