# EIG2DOS: Utility for SIESTA to obtain the electronic density of states
#  E. Artacho, Apr 1999, A. Garcia, Apr 2012
#  Nick R. Papior, Feb 2017
# ------------------------------------------
# Eigenvalues calculated from a non-polarized calculation
# Eigenvalues read from siesta.EIG
# Kpoint weights read from siesta.KP
# Using smearing parameter:   0.0500
# Using 1000 points in the energy range
# Selected bands: 1 to: 2981
# Emin, Emax in file for selected band(s):    -27.0404723    218.3056060
# Nbands, Nspin, Nk   =   2981     1     1
# E_F                 =    -4.3029 eV --> (shifted to ZERO)
# Broadening          =     0.0500 eV
#
#        E            N(up)  (=)   N(down)         Ntot
     -5.000000     43.195786     43.195786     86.391571
     -4.989990     48.033491     48.033491     96.066981
     -4.979980     51.563743     51.563743    103.127487
     -4.969970     53.267587     53.267587    106.535174
     -4.959960     52.908713     52.908713    105.817427
     -4.949950     50.608869     50.608869    101.217738
     -4.939940     46.823386     46.823386     93.646772
     -4.929930     42.241222     42.241222     84.482443
     -4.919920     37.662648     37.662648     75.325296
     -4.909910     33.897256     33.897256     67.794512
     -4.899900     31.684883     31.684883     63.369766
     -4.889890     31.605150     31.605150     63.210300
     -4.879880     33.942635     33.942635     67.885271
     -4.869870     38.524279     38.524279     77.048557
     -4.859860     44.612273     44.612273     89.224546
     -4.849850     50.961864     50.961864    101.923728
     -4.839840     56.098398     56.098398    112.196797
     -4.829830     58.748475     58.748475    117.496951
     -4.819820     58.250631     58.250631    116.501262
     -4.809810     54.753760     54.753760    109.507519
     -4.799800     49.110589     49.110589     98.221178
     -4.789790     42.529993     42.529993     85.059985
     -4.779780     36.164763     36.164763     72.329527
     -4.769770     30.813781     30.813781     61.627562
     -4.759760     26.823810     26.823810     53.647621
     -4.749750     24.161854     24.161854     48.323708
     -4.739740     22.565643     22.565643     45.131285
     -4.729730     21.685875     21.685875     43.371749
     -4.719720     21.178180     21.178180     42.356360
     -4.709710     20.744915     20.744915     41.489831
     -4.699700     20.148315     20.148315     40.296630
     -4.689690     19.220149     19.220149     38.440299
     -4.679680     17.885836     17.885836     35.771673
     -4.669670     16.205683     16.205683     32.411366
     -4.659660     14.416895     14.416895     28.833790
     -4.649650     12.947054     12.947054     25.894109
     -4.639640     12.371591     12.371591     24.743182
     -4.629630     13.303771     13.303771     26.607541
     -4.619620     16.228283     16.228283     32.456566
     -4.609610     21.313069     21.313069     42.626139
     -4.599600     28.256573     28.256573     56.513146
     -4.589590     36.241516     36.241516     72.483032
     -4.579580     44.054256     44.054256     88.108511
     -4.569570     50.376360     50.376360    100.752719
     -4.559560     54.173459     54.173459    108.346919
     -4.549550     55.037908     55.037908    110.075815
     -4.539540     53.335296     53.335296    106.670592
     -4.529530     50.077827     50.077827    100.155655
     -4.519520     46.567067     46.567067     93.134133
     -4.509510     43.950578     43.950578     87.901157
     -4.499499     42.867837     42.867837     85.735674
     -4.489489     43.309679     43.309679     86.619358
     -4.479479     44.715995     44.715995     89.431989
     -4.469469     46.241390     46.241390     92.482780
     -4.459459     47.069356     47.069356     94.138713
     -4.449449     46.663099     46.663099     93.326198
     -4.439439     44.888239     44.888239     89.776479
     -4.429429     41.999469     41.999469     83.998937
     -4.419419     38.525469     38.525469     77.050938
     -4.409409     35.104216     35.104216     70.208433
     -4.399399     32.317927     32.317927     64.635855
     -4.389389     30.563815     30.563815     61.127631
     -4.379379     29.982379     29.982379     59.964757
     -4.369369     30.452304     30.452304     60.904609
     -4.359359     31.648710     31.648710     63.297420
     -4.349349     33.148028     33.148028     66.296056
     -4.339339     34.550895     34.550895     69.101791
     -4.329329     35.588990     35.588990     71.177979
     -4.319319     36.186715     36.186715     72.373431
     -4.309309     36.463317     36.463317     72.926633
     -4.299299     36.679606     36.679606     73.359213
     -4.289289     37.147710     37.147710     74.295421
     -4.279279     38.126415     38.126415     76.252829
     -4.269269     39.721596     39.721596     79.443192
     -4.259259     41.810594     41.810594     83.621189
     -4.249249     44.016822     44.016822     88.033645
     -4.239239     45.766606     45.766606     91.533213
     -4.229229     46.443359     46.443359     92.886718
     -4.219219     45.606262     45.606262     91.212524
     -4.209209     43.185413     43.185413     86.370827
     -4.199199     39.548956     39.548956     79.097912
     -4.189189     35.388905     35.388905     70.777810
     -4.179179     31.469251     31.469251     62.938502
     -4.169169     28.359415     28.359415     56.718830
     -4.159159     26.282944     26.282944     52.565889
     -4.149149     25.142271     25.142271     50.284542
     -4.139139     24.683283     24.683283     49.366566
     -4.129129     24.696834     24.696834     49.393668
     -4.119119     25.147178     25.147178     50.294356
     -4.109109     26.162235     26.162235     52.324470
     -4.099099     27.891698     27.891698     55.783395
     -4.089089     30.308322     30.308322     60.616645
     -4.079079     33.067437     33.067437     66.134874
     -4.069069     35.524603     35.524603     71.049206
     -4.059059     36.935551     36.935551     73.871102
     -4.049049     36.757817     36.757817     73.515633
     -4.039039     34.902710     34.902710     69.805421
     -4.029029     31.802009     31.802009     63.604019
     -4.019019     28.254168     28.254168     56.508336
     -4.009009     25.137011     25.137011     50.274023
     -3.998999     23.137783     23.137783     46.275566
     -3.988989     22.619254     22.619254     45.238508
     -3.978979     23.643119     23.643119     47.286237
     -3.968969     26.081266     26.081266     52.162532
     -3.958959     29.719919     29.719919     59.439839
     -3.948949     34.305116     34.305116     68.610233
     -3.938939     39.544677     39.544677     79.089355
     -3.928929     45.116238     45.116238     90.232476
     -3.918919     50.711165     50.711165    101.422331
     -3.908909     56.094542     56.094542    112.189084
     -3.898899     61.128228     61.128228    122.256455
     -3.888889     65.717464     65.717464    131.434929
     -3.878879     69.694197     69.694197    139.388394
     -3.868869     72.705536     72.705536    145.411071
     -3.858859     74.193985     74.193985    148.387971
     -3.848849     73.519813     73.519813    147.039626
     -3.838839     70.200344     70.200344    140.400687
     -3.828829     64.167117     64.167117    128.334233
     -3.818819     55.914620     55.914620    111.829240
     -3.808809     46.454758     46.454758     92.909515
     -3.798799     37.079911     37.079911     74.159821
     -3.788789     29.024557     29.024557     58.049114
     -3.778779     23.153692     23.153692     46.307383
     -3.768769     19.781844     19.781844     39.563688
     -3.758759     18.663256     18.663256     37.326513
     -3.748749     19.130741     19.130741     38.261482
     -3.738739     20.323872     20.323872     40.647744
     -3.728729     21.439038     21.439038     42.878076
     -3.718719     21.942389     21.942389     43.884777
     -3.708709     21.700455     21.700455     43.400910
     -3.698699     20.998773     20.998773     41.997546
     -3.688689     20.439236     20.439236     40.878472
     -3.678679     20.734930     20.734930     41.469860
     -3.668669     22.454286     22.454286     44.908572
     -3.658659     25.793701     25.793701     51.587402
     -3.648649     30.462706     30.462706     60.925413
     -3.638639     35.734993     35.734993     71.469985
     -3.628629     40.655426     40.655426     81.310852
     -3.618619     44.324407     44.324407     88.648815
     -3.608609     46.145805     46.145805     92.291611
     -3.598599     45.947655     45.947655     91.895310
     -3.588589     43.952866     43.952866     87.905732
     -3.578579     40.645782     40.645782     81.291565
     -3.568569     36.608177     36.608177     73.216354
     -3.558559     32.379566     32.379566     64.759131
     -3.548549     28.361526     28.361526     56.723052
     -3.538539     24.766810     24.766810     49.533619
     -3.528529     21.616462     21.616462     43.232923
     -3.518519     18.791028     18.791028     37.582055
     -3.508509     16.127017     16.127017     32.254034
     -3.498498     13.524011     13.524011     27.048022
     -3.488488     11.015369     11.015369     22.030738
     -3.478478      8.771494      8.771494     17.542988
     -3.468468      7.038960      7.038960     14.077921
     -3.458458      6.046984      6.046984     12.093968
     -3.448448      5.919059      5.919059     11.838119
     -3.438438      6.616831      6.616831     13.233663
     -3.428428      7.930188      7.930188     15.860377
     -3.418418      9.519577      9.519577     19.039154
     -3.408408     11.007891     11.007891     22.015782
     -3.398398     12.102409     12.102409     24.204819
     -3.388388     12.706450     12.706450     25.412900
     -3.378378     12.972328     12.972328     25.944656
     -3.368368     13.265400     13.265400     26.530800
     -3.358358     14.048069     14.048069     28.096139
     -3.348348     15.728793     15.728793     31.457586
     -3.338338     18.530508     18.530508     37.061016
     -3.328328     22.412292     22.412292     44.824584
     -3.318318     27.048251     27.048251     54.096501
     -3.308308     31.854501     31.854501     63.709003
     -3.298298     36.064727     36.064727     72.129454
     -3.288288     38.865768     38.865768     77.731537
     -3.278278     39.589713     39.589713     79.179426
     -3.268268     37.915970     37.915970     75.831939
     -3.258258     33.999489     33.999489     67.998979
     -3.248248     28.451092     28.451092     56.902183
     -3.238238     22.160751     22.160751     44.321502
     -3.228228     16.035560     16.035560     32.071121
     -3.218218     10.765140     10.765140     21.530281
     -3.208208      6.702728      6.702728     13.405457
     -3.198198      3.882533      3.882533      7.765067
     -3.188188      2.130915      2.130915      4.261830
     -3.178178      1.204457      1.204457      2.408913
     -3.168168      0.902547      0.902547      1.805094
     -3.158158      1.132610      1.132610      2.265220
     -3.148148      1.929028      1.929028      3.858056
     -3.138138      3.433567      3.433567      6.867134
     -3.128128      5.842196      5.842196     11.684392
     -3.118118      9.322762      9.322762     18.645524
     -3.108108     13.917153     13.917153     27.834306
     -3.098098     19.456979     19.456979     38.913958
     -3.088088     25.530937     25.530937     51.061874
     -3.078078     31.531831     31.531831     63.063661
     -3.068068     36.779601     36.779601     73.559202
     -3.058058     40.678373     40.678373     81.356745
     -3.048048     42.845350     42.845350     85.690700
     -3.038038     43.164419     43.164419     86.328837
     -3.028028     41.760650     41.760650     83.521300
     -3.018018     38.934207     38.934207     77.868415
     -3.008008     35.103052     35.103052     70.206105
     -2.997998     30.777098     30.777098     61.554197
     -2.987988     26.545877     26.545877     53.091754
     -2.977978     23.041430     23.041430     46.082861
     -2.967968     20.853728     20.853728     41.707455
     -2.957958     20.413196     20.413196     40.826392
     -2.947948     21.883863     21.883863     43.767725
     -2.937938     25.110661     25.110661     50.221322
     -2.927928     29.639363     29.639363     59.278726
     -2.917918     34.798327     34.798327     69.596654
     -2.907908     39.816823     39.816823     79.633647
     -2.897898     43.957334     43.957334     87.914668
     -2.887888     46.645959     46.645959     93.291918
     -2.877878     47.582650     47.582650     95.165300
     -2.867868     46.802475     46.802475     93.604950
     -2.857858     44.655998     44.655998     89.311996
     -2.847848     41.696279     41.696279     83.392558
     -2.837838     38.499905     38.499905     76.999809
     -2.827828     35.487995     35.487995     70.975989
     -2.817818     32.822963     32.822963     65.645925
     -2.807808     30.425702     30.425702     60.851403
     -2.797798     28.099206     28.099206     56.198413
     -2.787788     25.690455     25.690455     51.380910
     -2.777778     23.204058     23.204058     46.408117
     -2.767768     20.810498     20.810498     41.620996
     -2.757758     18.753062     18.753062     37.506123
     -2.747748     17.216059     17.216059     34.432118
     -2.737738     16.237923     16.237923     32.475846
     -2.727728     15.722732     15.722732     31.445463
     -2.717718     15.539541     15.539541     31.079082
     -2.707708     15.640345     15.640345     31.280690
     -2.697698     16.112832     16.112832     32.225665
     -2.687688     17.125206     17.125206     34.250413
     -2.677678     18.792578     18.792578     37.585156
     -2.667668     21.050965     21.050965     42.101930
     -2.657658     23.626562     23.626562     47.253124
     -2.647648     26.130253     26.130253     52.260506
     -2.637638     28.226199     28.226199     56.452397
     -2.627628     29.773249     29.773249     59.546498
     -2.617618     30.854966     30.854966     61.709932
     -2.607608     31.687694     31.687694     63.375388
     -2.597598     32.473854     32.473854     64.947707
     -2.587588     33.293225     33.293225     66.586449
     -2.577578     34.083296     34.083296     68.166592
     -2.567568     34.689651     34.689651     69.379302
     -2.557558     34.928009     34.928009     69.856018
     -2.547548     34.618528     34.618528     69.237056
     -2.537538     33.603258     33.603258     67.206516
     -2.527528     31.785260     31.785260     63.570519
     -2.517518     29.204438     29.204438     58.408877
     -2.507508     26.113421     26.113421     52.226841
     -2.497497     22.987695     22.987695     45.975390
     -2.487487     20.428774     20.428774     40.857548
     -2.477477     18.982263     18.982263     37.964526
     -2.467467     18.949330     18.949330     37.898661
     -2.457457     20.282410     20.282410     40.564820
     -2.447447     22.617976     22.617976     45.235953
     -2.437437     25.433867     25.433867     50.867734
     -2.427427     28.259552     28.259552     56.519105
     -2.417417     30.842339     30.842339     61.684679
     -2.407407     33.192147     33.192147     66.384294
     -2.397397     35.484155     35.484155     70.968310
     -2.387387     37.867104     37.867104     75.734208
     -2.377377     40.273554     40.273554     80.547108
     -2.367367     42.333114     42.333114     84.666228
     -2.357357     43.445808     43.445808     86.891617
     -2.347347     42.997893     42.997893     85.995786
     -2.337337     40.630536     40.630536     81.261072
     -2.327327     36.439723     36.439723     72.879446
     -2.317317     31.013756     31.013756     62.027511
     -2.307307     25.290585     25.290585     50.581170
     -2.297297     20.299126     20.299126     40.598252
     -2.287287     16.891465     16.891465     33.782931
     -2.277277     15.558679     15.558679     31.117357
     -2.267267     16.371162     16.371162     32.742324
     -2.257257     19.031212     19.031212     38.062424
     -2.247247     22.995572     22.995572     45.991145
     -2.237237     27.619690     27.619690     55.239380
     -2.227227     32.282309     32.282309     64.564619
     -2.217217     36.462046     36.462046     72.924093
     -2.207207     39.757856     39.757856     79.515713
     -2.197197     41.871596     41.871596     83.743192
     -2.187187     42.590920     42.590920     85.181840
     -2.177177     41.807319     41.807319     83.614638
     -2.167167     39.571953     39.571953     79.143905
     -2.157157     36.149422     36.149422     72.298843
     -2.147147     32.010211     32.010211     64.020422
     -2.137137     27.728468     27.728468     55.456937
     -2.127127     23.811930     23.811930     47.623860
     -2.117117     20.543698     20.543698     41.087396
     -2.107107     17.919984     17.919984     35.839968
     -2.097097     15.716428     15.716428     31.432855
     -2.087087     13.642192     13.642192     27.284383
     -2.077077     11.495397     11.495397     22.990794
     -2.067067      9.243311      9.243311     18.486622
     -2.057057      7.003531      7.003531     14.007061
     -2.047047      4.958896      4.958896      9.917791
     -2.037037      3.264498      3.264498      6.528995
     -2.027027      1.992392      1.992392      3.984784
     -2.017017      1.126756      1.126756      2.253512
     -2.007007      0.594190      0.594190      1.188379
     -1.996997      0.304323      0.304323      0.608646
     -1.986987      0.182638      0.182638      0.365276
     -1.976977      0.189733      0.189733      0.379465
     -1.966967      0.329670      0.329670      0.659341
     -1.956957      0.651315      0.651315      1.302629
     -1.946947      1.242758      1.242758      2.485515
     -1.936937      2.214879      2.214879      4.429759
     -1.926927      3.670205      3.670205      7.340411
     -1.916917      5.659567      5.659567     11.319134
     -1.906907      8.139060      8.139060     16.278121
     -1.896897     10.946698     10.946698     21.893396
     -1.886887     13.815083     13.815083     27.630167
     -1.876877     16.422552     16.422552     32.845104
     -1.866867     18.468100     18.468100     36.936201
     -1.856857     19.745552     19.745552     39.491104
     -1.846847     20.194157     20.194157     40.388315
     -1.836837     19.911366     19.911366     39.822732
     -1.826827     19.122096     19.122096     38.244191
     -1.816817     18.107309     18.107309     36.214618
     -1.806807     17.108133     17.108133     34.216266
     -1.796797     16.238950     16.238950     32.477899
     -1.786787     15.450700     15.450700     30.901400
     -1.776777     14.569477     14.569477     29.138953
     -1.766767     13.397262     13.397262     26.794524
     -1.756757     11.824897     11.824897     23.649794
     -1.746747      9.899583      9.899583     19.799167
     -1.736737      7.817921      7.817921     15.635841
     -1.726727      5.860220      5.860220     11.720440
     -1.716717      4.311143      4.311143      8.622287
     -1.706707      3.407606      3.407606      6.815212
     -1.696697      3.324931      3.324931      6.649861
     -1.686687      4.180304      4.180304      8.360609
     -1.676677      6.020948      6.020948     12.041895
     -1.666667      8.780107      8.780107     17.560215
     -1.656657     12.216898     12.216898     24.433796
     -1.646647     15.884671     15.884671     31.769343
     -1.636637     19.175401     19.175401     38.350802
     -1.626627     21.456056     21.456056     42.912112
