# EIG2DOS: Utility for SIESTA to obtain the electronic density of states
#  E. Artacho, Apr 1999, A. Garcia, Apr 2012
#  Nick R. Papior, Feb 2017
# ------------------------------------------
# Eigenvalues calculated from a non-polarized calculation
# Eigenvalues read from siesta.EIG
# Kpoint weights read from siesta.KP
# Using smearing parameter:   0.0500
# Using 1000 points in the energy range
# Selected bands: 1 to: 2981
# Emin, Emax in file for selected band(s):    -27.2611759    218.4030000
# Nbands, Nspin, Nk   =   2981     1     1
# E_F                 =    -4.1888 eV --> (shifted to ZERO)
# Broadening          =     0.0500 eV
#
#        E            N(up)  (=)   N(down)         Ntot
     -5.000000     31.813764     31.813764     63.627528
     -4.989990     37.132434     37.132434     74.264868
     -4.979980     42.134030     42.134030     84.268060
     -4.969970     45.924228     45.924228     91.848456
     -4.959960     47.768405     47.768405     95.536809
     -4.949950     47.339382     47.339382     94.678764
     -4.939940     44.830505     44.830505     89.661010
     -4.929930     40.904520     40.904520     81.809039
     -4.919920     36.523367     36.523367     73.046734
     -4.909910     32.735479     32.735479     65.470957
     -4.899900     30.476173     30.476173     60.952345
     -4.889890     30.396237     30.396237     60.792475
     -4.879880     32.717503     32.717503     65.435006
     -4.869870     37.136023     37.136023     74.272045
     -4.859860     42.824798     42.824798     85.649595
     -4.849850     48.584864     48.584864     97.169729
     -4.839840     53.138881     53.138881    106.277762
     -4.829830     55.483271     55.483271    110.966542
     -4.819820     55.166932     55.166932    110.333863
     -4.809810     52.384101     52.384101    104.768202
     -4.799800     47.849995     47.849995     95.699990
     -4.789790     42.524578     42.524578     85.049156
     -4.779780     37.308736     37.308736     74.617471
     -4.769770     32.830351     32.830351     65.660703
     -4.759760     29.377774     29.377774     58.755548
     -4.749750     26.963971     26.963971     53.927943
     -4.739740     25.454718     25.454718     50.909437
     -4.729730     24.684914     24.684914     49.369828
     -4.719720     24.512279     24.512279     49.024558
     -4.709710     24.800105     24.800105     49.600210
     -4.699700     25.362512     25.362512     50.725025
     -4.689690     25.929979     25.929979     51.859959
     -4.679680     26.185856     26.185856     52.371713
     -4.669670     25.884426     25.884426     51.768851
     -4.659660     25.005889     25.005889     50.011779
     -4.649650     23.865525     23.865525     47.731051
     -4.639640     23.098630     23.098630     46.197259
     -4.629630     23.491448     23.491448     46.982896
     -4.619620     25.698786     25.698786     51.397571
     -4.609610     29.949529     29.949529     59.899058
     -4.599600     35.865191     35.865191     71.730381
     -4.589590     42.489057     42.489057     84.978113
     -4.579580     48.546883     48.546883     97.093765
     -4.569570     52.859201     52.859201    105.718402
     -4.559560     54.745987     54.745987    109.491974
     -4.549550     54.252971     54.252971    108.505942
     -4.539540     52.100620     52.100620    104.201240
     -4.529530     49.379420     49.379420     98.758840
     -4.519520     47.125562     47.125562     94.251124
     -4.509510     45.954605     45.954605     91.909211
     -4.499499     45.891968     45.891968     91.783935
     -4.489489     46.444695     46.444695     92.889390
     -4.479479     46.856956     46.856956     93.713913
     -4.469469     46.425967     46.425967     92.851934
     -4.459459     44.748285     44.748285     89.496571
     -4.449449     41.814682     41.814682     83.629365
     -4.439439     37.948377     37.948377     75.896753
     -4.429429     33.649123     33.649123     67.298246
     -4.419419     29.433030     29.433030     58.866059
     -4.409409     25.734885     25.734885     51.469771
     -4.399399     22.884412     22.884412     45.768825
     -4.389389     21.117659     21.117659     42.235317
     -4.379379     20.573174     20.573174     41.146348
     -4.369369     21.254561     21.254561     42.509121
     -4.359359     22.988298     22.988298     45.976596
     -4.349349     25.428569     25.428569     50.857138
     -4.339339     28.139301     28.139301     56.278603
     -4.329329     30.733217     30.733217     61.466434
     -4.319319     33.005171     33.005171     66.010343
     -4.309309     34.991441     34.991441     69.982883
     -4.299299     36.919501     36.919501     73.839001
     -4.289289     39.062728     39.062728     78.125456
     -4.279279     41.556488     41.556488     83.112977
     -4.269269     44.251991     44.251991     88.503981
     -4.259259     46.678323     46.678323     93.356646
     -4.249249     48.150114     48.150114     96.300229
     -4.239239     48.001461     48.001461     96.002922
     -4.229229     45.863070     45.863070     91.726139
     -4.219219     41.861846     41.861846     83.723692
     -4.209209     36.641368     36.641368     73.282736
     -4.199199     31.179062     31.179062     62.358124
     -4.189189     26.473376     26.473376     52.946751
     -4.179179     23.236283     23.236283     46.472565
     -4.169169     21.718561     21.718561     43.437122
     -4.159159     21.726130     21.726130     43.452259
     -4.149149     22.796702     22.796702     45.593403
     -4.139139     24.441261     24.441261     48.882522
     -4.129129     26.337666     26.337666     52.675333
     -4.119119     28.393604     28.393604     56.787207
     -4.109109     30.658402     30.658402     61.316803
     -4.099099     33.136305     33.136305     66.272611
     -4.089089     35.609221     35.609221     71.218443
     -4.079079     37.583920     37.583920     75.167839
     -4.069069     38.421219     38.421219     76.842437
     -4.059059     37.603310     37.603310     75.206619
     -4.049049     35.007056     35.007056     70.014113
     -4.039039     31.035506     31.035506     62.071012
     -4.029029     26.532724     26.532724     53.065448
     -4.019019     22.523436     22.523436     45.046873
     -4.009009     19.904644     19.904644     39.809287
     -3.998999     19.222844     19.222844     38.445689
     -3.988989     20.605943     20.605943     41.211887
     -3.978979     23.833883     23.833883     47.667766
     -3.968969     28.478417     28.478417     56.956834
     -3.958959     34.040798     34.040798     68.081597
     -3.948949     40.050480     40.050480     80.100961
     -3.938939     46.124179     46.124179     92.248358
     -3.928929     51.996906     51.996906    103.993813
     -3.918919     57.524536     57.524536    115.049072
     -3.908909     62.643667     62.643667    125.287333
     -3.898899     67.283015     67.283015    134.566030
     -3.888889     71.253075     71.253075    142.506151
     -3.878879     74.172841     74.172841    148.345682
     -3.868869     75.493345     75.493345    150.986690
     -3.858859     74.637530     74.637530    149.275060
     -3.848849     71.214864     71.214864    142.429728
     -3.838839     65.223427     65.223427    130.446854
     -3.828829     57.148967     57.148967    114.297933
     -3.818819     47.911061     47.911061     95.822123
     -3.808809     38.668657     38.668657     77.337315
     -3.798799     30.550221     30.550221     61.100442
     -3.788789     24.395926     24.395926     48.791852
     -3.778779     20.586938     20.586938     41.173876
     -3.768769     19.001873     19.001873     38.003745
     -3.758759     19.100340     19.100340     38.200680
     -3.748749     20.101751     20.101751     40.203502
     -3.738739     21.209546     21.209546     42.419092
     -3.728729     21.825958     21.825958     43.651915
     -3.718719     21.707152     21.707152     43.414305
     -3.708709     21.020802     21.020802     42.041604
     -3.698699     20.287047     20.287047     40.574095
     -3.688689     20.209611     20.209611     40.419222
     -3.678679     21.435027     21.435027     42.870054
     -3.668669     24.307981     24.307981     48.615962
     -3.658659     28.706277     28.706277     57.412554
     -3.648649     34.024690     34.024690     68.049381
     -3.638639     39.327356     39.327356     78.654712
     -3.628629     43.618884     43.618884     87.237769
     -3.618619     46.130091     46.130091     92.260183
     -3.608609     46.509047     46.509047     93.018095
     -3.598599     44.858203     44.858203     89.716405
     -3.588589     41.632626     41.632626     83.265252
     -3.578579     37.466540     37.466540     74.933080
     -3.568569     32.999881     32.999881     65.999762
     -3.558559     28.746615     28.746615     57.493230
     -3.548549     25.016062     25.016062     50.032124
     -3.538539     21.888573     21.888573     43.777146
     -3.528529     19.249445     19.249445     38.498890
     -3.518519     16.878549     16.878549     33.757098
     -3.508509     14.570942     14.570942     29.141883
     -3.498498     12.242361     12.242361     24.484723
     -3.488488      9.975197      9.975197     19.950394
     -3.478478      7.988894      7.988894     15.977788
     -3.468468      6.554656      6.554656     13.109311
     -3.458458      5.894269      5.894269     11.788537
     -3.448448      6.099810      6.099810     12.199621
     -3.438438      7.096276      7.096276     14.192553
     -3.428428      8.656759      8.656759     17.313518
     -3.418418     10.471430     10.471430     20.942860
     -3.408408     12.258467     12.258467     24.516933
     -3.398398     13.883206     13.883206     27.766411
     -3.388388     15.433219     15.433219     30.866438
     -3.378378     17.202199     17.202199     34.404399
     -3.368368     19.573451     19.573451     39.146902
     -3.358358     22.846853     22.846853     45.693707
     -3.348348     27.086324     27.086324     54.172648
     -3.338338     32.052638     32.052638     64.105277
     -3.328328     37.237180     37.237180     74.474359
     -3.318318     41.963462     41.963462     83.926924
     -3.308308     45.510341     45.510341     91.020681
     -3.298298     47.234019     47.234019     94.468038
     -3.288288     46.690872     46.690872     93.381743
     -3.278278     43.756794     43.756794     87.513588
     -3.268268     38.706507     38.706507     77.413015
     -3.258258     32.198356     32.198356     64.396711
     -3.248248     25.139208     25.139208     50.278416
     -3.238238     18.467394     18.467394     36.934789
     -3.228228     12.940040     12.940040     25.880081
     -3.218218      9.005397      9.005397     18.010793
     -3.208208      6.787058      6.787058     13.574117
     -3.198198      6.148830      6.148830     12.297659
     -3.188188      6.786717      6.786717     13.573435
     -3.178178      8.313709      8.313709     16.627418
     -3.168168     10.335859     10.335859     20.671718
     -3.158158     12.531492     12.531492     25.062984
     -3.148148     14.728145     14.728145     29.456289
     -3.138138     16.943244     16.943244     33.886487
     -3.128128     19.346828     19.346828     38.693656
     -3.118118     22.135832     22.135832     44.271664
     -3.108108     25.365629     25.365629     50.731258
     -3.098098     28.826523     28.826523     57.653046
     -3.088088     32.044821     32.044821     64.089642
     -3.078078     34.426055     34.426055     68.852109
     -3.068068     35.476552     35.476552     70.953104
     -3.058058     34.990820     34.990820     69.981640
     -3.048048     33.109595     33.109595     66.219190
     -3.038038     30.227986     30.227986     60.455972
     -3.028028     26.817786     26.817786     53.635572
     -3.018018     23.269137     23.269137     46.538275
     -3.008008     19.831086     19.831086     39.662172
     -2.997998     16.660373     16.660373     33.320747
     -2.987988     13.922663     13.922663     27.845325
     -2.977978     11.869546     11.869546     23.739092
     -2.967968     10.841454     10.841454     21.682908
     -2.957958     11.193381     11.193381     22.386762
     -2.947948     13.176035     13.176035     26.352069
     -2.937938     16.817355     16.817355     33.634710
     -2.927928     21.845494     21.845494     43.690989
     -2.917918     27.684412     27.684412     55.368825
     -2.907908     33.538636     33.538636     67.077272
     -2.897898     38.559534     38.559534     77.119068
     -2.887888     42.052755     42.052755     84.105510
     -2.877878     43.658529     43.658529     87.317058
     -2.867868     43.432826     43.432826     86.865651
     -2.857858     41.789065     41.789065     83.578129
     -2.847848     39.318643     39.318643     78.637286
     -2.837838     36.566180     36.566180     73.132360
     -2.827828     33.859357     33.859357     67.718714
     -2.817818     31.266232     31.266232     62.532464
     -2.807808     28.686555     28.686555     57.373110
     -2.797798     26.013933     26.013933     52.027866
     -2.787788     23.272394     23.272394     46.544788
     -2.777778     20.652661     20.652661     41.305321
     -2.767768     18.436514     18.436514     36.873029
     -2.757758     16.864150     16.864150     33.728300
     -2.747748     16.030035     16.030035     32.060070
     -2.737738     15.869721     15.869721     31.739442
     -2.727728     16.237937     16.237937     32.475873
     -2.717718     17.016796     17.016796     34.033592
     -2.707708     18.173286     18.173286     36.346572
     -2.697698     19.722915     19.722915     39.445831
     -2.687688     21.627842     21.627842     43.255683
     -2.677678     23.712535     23.712535     47.425069
     -2.667668     25.675415     25.675415     51.350829
     -2.657658     27.209267     27.209267     54.418534
     -2.647648     28.161532     28.161532     56.323065
     -2.637638     28.628517     28.628517     57.257033
     -2.627628     28.915369     28.915369     57.830738
     -2.617618     29.380593     29.380593     58.761186
     -2.607608     30.256681     30.256681     60.513361
     -2.597598     31.545665     31.545665     63.091330
     -2.587588     33.030198     33.030198     66.060396
     -2.577578     34.366598     34.366598     68.733197
     -2.567568     35.191962     35.191962     70.383925
     -2.557558     35.199828     35.199828     70.399656
     -2.547548     34.186482     34.186482     68.372963
     -2.537538     32.095416     32.095416     64.190831
     -2.527528     29.070509     29.070509     58.141017
     -2.517518     25.491094     25.491094     50.982189
     -2.507508     21.943910     21.943910     43.887819
     -2.497497     19.108525     19.108525     38.217051
     -2.487487     17.580022     17.580022     35.160044
     -2.477477     17.692505     17.692505     35.385009
     -2.467467     19.415240     19.415240     38.830480
     -2.457457     22.367317     22.367317     44.734634
     -2.447447     25.950610     25.950610     51.901220
     -2.437437     29.553152     29.553152     59.106304
     -2.427427     32.743307     32.743307     65.486613
     -2.417417     35.373407     35.373407     70.746813
     -2.407407     37.545480     37.545480     75.090959
     -2.397397     39.452358     39.452358     78.904717
     -2.387387     41.170216     41.170216     82.340431
     -2.377377     42.511642     42.511642     85.023284
     -2.367367     43.028464     43.028464     86.056928
     -2.357357     42.181898     42.181898     84.363796
     -2.347347     39.607057     39.607057     79.214113
     -2.337337     35.340946     35.340946     70.681893
     -2.327327     29.896758     29.896758     59.793516
     -2.317317     24.147609     24.147609     48.295218
     -2.307307     19.080059     19.080059     38.160118
     -2.297297     15.531860     15.531860     31.063720
     -2.287287     14.013678     14.013678     28.027356
     -2.277277     14.653654     14.653654     29.307308
     -2.267267     17.242946     17.242946     34.485891
     -2.257257     21.332198     21.332198     42.664396
     -2.247247     26.334593     26.334593     52.669186
     -2.237237     31.612093     31.612093     63.224186
     -2.227227     36.540111     36.540111     73.080223
     -2.217217     40.556013     40.556013     81.112027
     -2.207207     43.200823     43.200823     86.401646
     -2.197197     44.163289     44.163289     88.326578
     -2.187187     43.329292     43.329292     86.658584
     -2.177177     40.825629     40.825629     81.651258
     -2.167167     37.030867     37.030867     74.061735
     -2.157157     32.521520     32.521520     65.043041
     -2.147147     27.942572     27.942572     55.885143
     -2.137137     23.833762     23.833762     47.667523
     -2.127127     20.481194     20.481194     40.962388
     -2.117117     17.865982     17.865982     35.731964
     -2.107107     15.737627     15.737627     31.475254
     -2.097097     13.774199     13.774199     27.548399
     -2.087087     11.747261     11.747261     23.494521
     -2.077077      9.615374      9.615374     19.230748
     -2.067067      7.518335      7.518335     15.036670
     -2.057057      5.699112      5.699112     11.398224
     -2.047047      4.406936      4.406936      8.813872
     -2.037037      3.823615      3.823615      7.647229
     -2.027027      4.024330      4.024330      8.048660
     -2.017017      4.961406      4.961406      9.922812
     -2.007007      6.459622      6.459622     12.919243
     -1.996997      8.227762      8.227762     16.455524
     -1.986987      9.903063      9.903063     19.806126
     -1.976977     11.137137     11.137137     22.274275
     -1.966967     11.705549     11.705549     23.411098
     -1.956957     11.597414     11.597414     23.194829
     -1.946947     11.037904     11.037904     22.075808
     -1.936937     10.422357     10.422357     20.844713
     -1.926927     10.182077     10.182077     20.364153
     -1.916917     10.634439     10.634439     21.268878
     -1.906907     11.875901     11.875901     23.751802
     -1.896897     13.755185     13.755185     27.510371
     -1.886887     15.929062     15.929062     31.858124
     -1.876877     17.972753     17.972753     35.945506
     -1.866867     19.503365     19.503365     39.006729
     -1.856857     20.279178     20.279178     40.558355
     -1.846847     20.252001     20.252001     40.504001
     -1.836837     19.563763     19.563763     39.127525
     -1.826827     18.488590     18.488590     36.977180
     -1.816817     17.332719     17.332719     34.665438
     -1.806807     16.321037     16.321037     32.642073
     -1.796797     15.513873     15.513873     31.027746
     -1.786787     14.794914     14.794914     29.589829
     -1.776777     13.941672     13.941672     27.883344
     -1.766767     12.746310     12.746310     25.492621
     -1.756757     11.125380     11.125380     22.250760
     -1.746747      9.164321      9.164321     18.328643
     -1.736737      7.082436      7.082436     14.164871
     -1.726727      5.148667      5.148667     10.297335
     -1.716717      3.598784      3.598784      7.197569
     -1.706707      2.591253      2.591253      5.182505
     -1.696697      2.206670      2.206670      4.413339
     -1.686687      2.467857      2.467857      4.935715
     -1.676677      3.350785      3.350785      6.701570
     -1.666667      4.771309      4.771309      9.542618
     -1.656657      6.557843      6.557843     13.115686
     -1.646647      8.439235      8.439235     16.878470
     -1.636637     10.077231     10.077231     20.154463
     -1.626627     11.151261     11.151261     22.302521
