# EIG2DOS: Utility for SIESTA to obtain the electronic density of states
#  E. Artacho, Apr 1999, A. Garcia, Apr 2012
#  Nick R. Papior, Feb 2017
# ------------------------------------------
# Eigenvalues calculated from a non-polarized calculation
# Eigenvalues read from siesta.EIG
# Kpoint weights read from siesta.KP
# Using smearing parameter:   0.0500
# Using 1000 points in the energy range
# Selected bands: 1 to: 2981
# Emin, Emax in file for selected band(s):    -27.0887948    218.3257760
# Nbands, Nspin, Nk   =   2981     1     1
# E_F                 =    -4.2826 eV --> (shifted to ZERO)
# Broadening          =     0.0500 eV
#
#        E            N(up)  (=)   N(down)         Ntot
     -5.000000     38.734636     38.734636     77.469272
     -4.989990     40.628385     40.628385     81.256770
     -4.979980     42.195838     42.195838     84.391676
     -4.969970     43.083022     43.083022     86.166045
     -4.959960     43.005220     43.005220     86.010440
     -4.949950     41.847200     41.847200     83.694400
     -4.939940     39.710871     39.710871     79.421742
     -4.929930     36.912597     36.912597     73.825193
     -4.919920     33.949163     33.949163     67.898326
     -4.909910     31.446768     31.446768     62.893536
     -4.899900     30.087549     30.087549     60.175099
     -4.889890     30.491709     30.491709     60.983418
     -4.879880     33.043072     33.043072     66.086145
     -4.869870     37.690243     37.690243     75.380486
     -4.859860     43.811342     43.811342     87.622683
     -4.849850     50.249835     50.249835    100.499669
     -4.839840     55.575069     55.575069    111.150137
     -4.829830     58.506462     58.506462    117.012924
     -4.819820     58.332271     58.332271    116.664541
     -4.809810     55.131148     55.131148    110.262296
     -4.799800     49.695088     49.695088     99.390176
     -4.789790     43.204168     43.204168     86.408335
     -4.779780     36.820097     36.820097     73.640195
     -4.769770     31.377595     31.377595     62.755191
     -4.759760     27.267377     27.267377     54.534754
     -4.749750     24.492139     24.492139     48.984278
     -4.739740     22.809140     22.809140     45.618280
     -4.729730     21.872901     21.872901     43.745802
     -4.719720     21.332337     21.332337     42.664674
     -4.709710     20.878789     20.878789     41.757577
     -4.699700     20.264510     20.264510     40.529020
     -4.689690     19.316087     19.316087     38.632173
     -4.679680     17.960288     17.960288     35.920576
     -4.669670     16.264475     16.264475     32.528950
     -4.659660     14.474919     14.474919     28.949839
     -4.649650     13.024333     13.024333     26.048666
     -4.639640     12.482979     12.482979     24.965958
     -4.629630     13.444941     13.444941     26.889881
     -4.619620     16.364186     16.364186     32.728373
     -4.609610     21.377243     21.377243     42.754485
     -4.599600     28.167723     28.167723     56.335446
     -4.589590     35.936346     35.936346     71.872692
     -4.579580     43.524944     43.524944     87.049889
     -4.569570     49.694409     49.694409     99.388818
     -4.559560     53.485548     53.485548    106.971095
     -4.549550     54.534346     54.534346    109.068692
     -4.539540     53.208959     53.208959    106.417918
     -4.529530     50.498597     50.498597    100.997193
     -4.519520     47.687176     47.687176     95.374351
     -4.509510     45.934614     45.934614     91.869228
     -4.499499     45.920756     45.920756     91.841512
     -4.489489     47.669952     47.669952     95.339905
     -4.479479     50.593959     50.593959    101.187918
     -4.469469     53.710099     53.710099    107.420199
     -4.459459     55.944212     55.944212    111.888425
     -4.449449     56.422486     56.422486    112.844973
     -4.439439     54.680247     54.680247    109.360494
     -4.429429     50.750827     50.750827    101.501655
     -4.419419     45.131526     45.131526     90.263051
     -4.409409     38.650776     38.650776     77.301551
     -4.399399     32.277311     32.277311     64.554622
     -4.389389     26.916243     26.916243     53.832486
     -4.379379     23.231578     23.231578     46.463156
     -4.369369     21.526638     21.526638     43.053277
     -4.359359     21.706576     21.706576     43.413153
     -4.349349     23.336036     23.336036     46.672073
     -4.339339     25.783329     25.783329     51.566658
     -4.329329     28.412647     28.412647     56.825295
     -4.319319     30.763001     30.763001     61.526002
     -4.309309     32.653712     32.653712     65.307423
     -4.299299     34.184707     34.184707     68.369414
     -4.289289     35.640140     35.640140     71.280280
     -4.279279     37.334406     37.334406     74.668812
     -4.269269     39.450413     39.450413     78.900826
     -4.259259     41.917621     41.917621     83.835242
     -4.249249     44.371798     44.371798     88.743597
     -4.239239     46.227013     46.227013     92.454027
     -4.229229     46.859456     46.859456     93.718912
     -4.219219     45.849871     45.849871     91.699742
     -4.209209     43.182536     43.182536     86.365073
     -4.199199     39.295919     39.295919     78.591837
     -4.189189     34.943468     34.943468     69.886937
     -4.179179     30.923093     30.923093     61.846186
     -4.169169     27.806789     27.806789     55.613577
     -4.159159     25.798419     25.798419     51.596838
     -4.149149     24.771909     24.771909     49.543819
     -4.139139     24.445510     24.445510     48.891021
     -4.129129     24.586554     24.586554     49.173108
     -4.119119     25.139464     25.139464     50.278928
     -4.109109     26.216491     26.216491     52.432982
     -4.099099     27.959355     27.959355     55.918709
     -4.089089     30.345095     30.345095     60.690190
     -4.079079     33.046637     33.046637     66.093274
     -4.069069     35.444858     35.444858     70.889717
     -4.059059     36.817774     36.817774     73.635548
     -4.049049     36.632237     36.632237     73.264474
     -4.039039     34.793275     34.793275     69.586550
     -4.029029     31.717475     31.717475     63.434949
     -4.019019     28.190705     28.190705     56.381410
     -4.009009     25.089146     25.089146     50.178291
     -3.998999     23.108845     23.108845     46.217690
     -3.988989     22.623485     22.623485     45.246970
     -3.978979     23.698152     23.698152     47.396304
     -3.968969     26.196806     26.196806     52.393611
     -3.958959     29.890799     29.890799     59.781597
     -3.948949     34.513354     34.513354     69.026707
     -3.938939     39.768761     39.768761     79.537523
     -3.928929     45.341359     45.341359     90.682718
     -3.918919     50.934076     50.934076    101.868152
     -3.908909     56.320486     56.320486    112.640972
     -3.898899     61.362174     61.362174    122.724348
     -3.888889     65.955021     65.955021    131.910042
     -3.878879     69.917703     69.917703    139.835406
     -3.868869     72.887975     72.887975    145.775951
     -3.858859     74.308995     74.308995    148.617989
     -3.848849     73.552482     73.552482    147.104963
     -3.838839     70.153013     70.153013    140.306027
     -3.828829     64.057366     64.057366    128.114731
     -3.818819     55.767185     55.767185    111.534370
     -3.808809     46.292251     46.292251     92.584501
     -3.798799     36.917026     36.917026     73.834052
     -3.788789     28.867687     28.867687     57.735373
     -3.778779     23.004675     23.004675     46.009350
     -3.768769     19.642812     19.642812     39.285624
     -3.758759     18.539690     18.539690     37.079380
     -3.748749     19.031305     19.031305     38.062610
     -3.738739     20.257344     20.257344     40.514688
     -3.728729     21.410008     21.410008     42.820016
     -3.718719     21.947918     21.947918     43.895836
     -3.708709     21.729436     21.729436     43.458872
     -3.698699     21.034620     21.034620     42.069240
     -3.688689     20.465169     20.465169     40.930338
     -3.678679     20.740002     20.740002     41.480004
     -3.668669     22.437795     22.437795     44.875589
     -3.658659     25.765975     25.765975     51.531950
     -3.648649     30.441514     30.441514     60.883028
     -3.638639     35.738660     35.738660     71.477320
     -3.628629     40.695352     40.695352     81.390703
     -3.618619     44.400068     44.400068     88.800135
     -3.608609     46.244221     46.244221     92.488441
     -3.598599     46.047254     46.047254     92.094507
     -3.588589     44.029940     44.029940     88.059879
     -3.578579     40.681179     40.681179     81.362359
     -3.568569     36.592426     36.592426     73.184852
     -3.558559     32.315485     32.315485     64.630970
     -3.548549     28.263925     28.263925     56.527850
     -3.538539     24.659152     24.659152     49.318305
     -3.528529     21.524856     21.524856     43.049712
     -3.518519     18.736859     18.736859     37.473719
     -3.508509     16.120511     16.120511     32.241023
     -3.498498     13.561088     13.561088     27.122175
     -3.488488     11.079013     11.079013     22.158026
     -3.478478      8.837016      8.837016     17.674032
     -3.468468      7.081143      7.081143     14.162285
     -3.458458      6.046908      6.046908     12.093816
     -3.448448      5.869133      5.869133     11.738266
     -3.438438      6.523254      6.523254     13.046508
     -3.428428      7.812323      7.812323     15.624646
     -3.418418      9.405744      9.405744     18.811487
     -3.408408     10.927808     10.927808     21.855617
     -3.398398     12.077963     12.077963     24.155927
     -3.388388     12.743835     12.743835     25.487671
     -3.378378     13.058620     13.058620     26.117240
     -3.368368     13.370973     13.370973     26.741946
     -3.358358     14.134023     14.134023     28.268046
     -3.348348     15.757099     15.757099     31.514198
     -3.338338     18.474468     18.474468     36.948936
     -3.328328     22.265288     22.265288     44.530576
     -3.318318     26.828702     26.828702     53.657405
     -3.308308     31.604605     31.604605     63.209210
     -3.298298     35.841310     35.841310     71.682620
     -3.288288     38.724456     38.724456     77.448913
     -3.278278     39.567511     39.567511     79.135022
     -3.268268     38.019509     38.019509     76.039018
     -3.258258     34.204354     34.204354     68.408708
     -3.248248     28.712335     28.712335     57.424670
     -3.238238     22.429251     22.429251     44.858502
     -3.228228     16.272724     16.272724     32.545447
     -3.218218     10.950677     10.950677     21.901354
     -3.208208      6.834855      6.834855     13.669711
     -3.198198      3.974022      3.974022      7.948044
     -3.188188      2.206072      2.206072      4.412144
     -3.178178      1.301545      1.301545      2.603090
     -3.168168      1.084278      1.084278      2.168555
     -3.158158      1.504553      1.504553      3.009106
     -3.148148      2.661476      2.661476      5.322953
     -3.138138      4.776069      4.776069      9.552138
     -3.128128      8.113458      8.113458     16.226917
     -3.118118     12.857122     12.857122     25.714244
     -3.108108     18.959259     18.959259     37.918518
     -3.098098     26.021793     26.021793     52.043585
     -3.088088     33.279313     33.279313     66.558626
     -3.078078     39.733596     39.733596     79.467192
     -3.068068     44.423823     44.423823     88.847646
     -3.058058     46.735684     46.735684     93.471368
     -3.048048     46.607775     46.607775     93.215550
     -3.038038     44.525801     44.525801     89.051603
     -3.028028     41.298110     41.298110     82.596220
     -3.018018     37.722799     37.722799     75.445598
     -3.008008     34.314049     34.314049     68.628099
     -2.997998     31.216344     31.216344     62.432688
     -2.987988     28.325616     28.325616     56.651232
     -2.977978     25.525172     25.525172     51.050344
     -2.967968     22.895022     22.895022     45.790045
     -2.957958     20.784215     20.784215     41.568429
     -2.947948     19.716882     19.716882     39.433764
     -2.937938     20.183851     20.183851     40.367703
     -2.927928     22.416240     22.416240     44.832480
     -2.917918     26.236558     26.236558     52.473115
     -2.907908     31.048018     31.048018     62.096036
     -2.897898     35.971319     35.971319     71.942637
     -2.887888     40.085324     40.085324     80.170649
     -2.877878     42.688366     42.688366     85.376733
     -2.867868     43.484965     43.484965     86.969930
     -2.857858     42.628039     42.628039     85.256077
     -2.847848     40.603706     40.603706     81.207413
     -2.837838     38.011822     38.011822     76.023644
     -2.827828     35.339272     35.339272     70.678544
     -2.817818     32.822181     32.822181     65.644362
     -2.807808     30.446765     30.446765     60.893530
     -2.797798     28.069438     28.069438     56.138876
     -2.787788     25.579967     25.579967     51.159934
     -2.777778     23.015997     23.015997     46.031994
     -2.767768     20.570746     20.570746     41.141492
     -2.757758     18.499489     18.499489     36.998979
     -2.747748     16.988994     16.988994     33.977988
     -2.737738     16.073665     16.073665     32.147329
     -2.727728     15.650565     15.650565     31.301129
     -2.717718     15.580846     15.580846     31.161692
     -2.707708     15.807313     15.807313     31.614625
     -2.697698     16.404790     16.404790     32.809579
     -2.687688     17.522714     17.522714     35.045428
     -2.677678     19.252310     19.252310     38.504620
     -2.667668     21.506140     21.506140     43.012279
     -2.657658     23.996582     23.996582     47.993163
     -2.647648     26.338962     26.338962     52.677923
     -2.637638     28.222922     28.222922     56.445843
     -2.627628     29.548067     29.548067     59.096135
     -2.617618     30.441738     30.441738     60.883476
     -2.607608     31.154045     31.154045     62.308090
     -2.597598     31.902960     31.902960     63.805920
     -2.587588     32.764408     32.764408     65.528817
     -2.577578     33.656921     33.656921     67.313843
     -2.567568     34.398741     34.398741     68.797482
     -2.557558     34.776657     34.776657     69.553313
     -2.547548     34.586078     34.586078     69.172155
     -2.537538     33.652559     33.652559     67.305119
     -2.527528     31.872678     31.872678     63.745356
     -2.517518     29.289134     29.289134     58.578267
     -2.507508     26.164203     26.164203     52.328405
     -2.497497     22.987160     22.987160     45.974320
     -2.487487     20.375370     20.375370     40.750740
     -2.477477     18.890705     18.890705     37.781410
     -2.467467     18.848837     18.848837     37.697674
     -2.457457     20.211726     20.211726     40.423452
     -2.447447     22.616994     22.616994     45.233988
     -2.437437     25.533474     25.533474     51.066948
     -2.427427     28.472737     28.472737     56.945475
     -2.417417     31.159329     31.159329     62.318659
     -2.407407     33.580688     33.580688     67.161376
     -2.397397     35.894328     35.894328     71.788655
     -2.387387     38.239586     38.239586     76.479172
     -2.377377     40.550623     40.550623     81.101247
     -2.367367     42.471404     42.471404     84.942809
     -2.357357     43.428132     43.428132     86.856263
     -2.347347     42.839633     42.839633     85.679266
     -2.337337     40.376598     40.376598     80.753197
     -2.327327     36.151779     36.151779     72.303557
     -2.317317     30.752537     30.752537     61.505073
     -2.307307     25.100640     25.100640     50.201279
     -2.297297     20.201750     20.201750     40.403500
     -2.287287     16.886751     16.886751     33.773502
     -2.277277     15.633203     15.633203     31.266407
     -2.267267     16.506274     16.506274     33.012547
     -2.257257     19.208248     19.208248     38.416495
     -2.247247     23.196918     23.196918     46.393835
     -2.237237     27.826789     27.826789     55.653578
     -2.227227     32.473033     32.473033     64.946066
     -2.217217     36.610176     36.610176     73.220352
     -2.207207     39.836621     39.836621     79.673241
     -2.197197     41.861016     41.861016     83.722032
     -2.187187     42.485977     42.485977     84.971953
     -2.177177     41.622451     41.622451     83.244902
     -2.167167     39.338603     39.338603     78.677205
     -2.157157     35.906939     35.906939     71.813878
     -2.147147     31.794062     31.794062     63.588123
     -2.137137     27.560989     27.560989     55.121977
     -2.127127     23.699096     23.699096     47.398191
     -2.117117     20.478016     20.478016     40.956032
     -2.107107     17.886891     17.886891     35.773782
     -2.097097     15.700819     15.700819     31.401637
     -2.087087     13.632730     13.632730     27.265460
     -2.077077     11.485934     11.485934     22.971868
     -2.067067      9.232091      9.232091     18.464182
     -2.057057      6.991377      6.991377     13.982754
     -2.047047      4.947437      4.947437      9.894875
     -2.037037      3.255015      3.255015      6.510030
     -2.027027      1.985370      1.985370      3.970739
     -2.017017      1.121919      1.121919      2.243838
     -2.007007      0.590689      0.590689      1.181378
     -1.996997      0.300781      0.300781      0.601563
     -1.986987      0.176894      0.176894      0.353788
     -1.976977      0.178273      0.178273      0.356547
     -1.966967      0.306951      0.306951      0.613903
     -1.956957      0.609429      0.609429      1.218858
     -1.946947      1.172158      1.172158      2.344316
     -1.936937      2.106800      2.106800      4.213601
     -1.926927      3.520825      3.520825      7.041650
     -1.916917      5.474731      5.474731     10.949462
     -1.906907      7.937167      7.937167     15.874335
     -1.896897     10.757099     10.757099     21.514199
     -1.886887     13.670837     13.670837     27.341674
     -1.876877     16.349288     16.349288     32.698575
     -1.866867     18.473459     18.473459     36.946917
     -1.856857     19.814301     19.814301     39.628603
     -1.846847     20.292038     20.292038     40.584075
     -1.836837     19.997210     19.997210     39.994420
     -1.826827     19.164965     19.164965     38.329930
     -1.816817     18.104692     18.104692     36.209383
     -1.806807     17.102488     17.102488     34.204976
     -1.796797     16.331716     16.331716     32.663432
     -1.786787     15.813692     15.813692     31.627385
     -1.776777     15.451973     15.451973     30.903946
     -1.766767     15.122591     15.122591     30.245183
     -1.756757     14.764748     14.764748     29.529496
     -1.746747     14.412703     14.412703     28.825406
     -1.736737     14.148618     14.148618     28.297237
     -1.726727     14.012753     14.012753     28.025506
     -1.716717     13.940188     13.940188     27.880376
     -1.706707     13.776546     13.776546     27.553092
     -1.696697     13.369784     13.369784     26.739567
     -1.686687     12.680313     12.680313     25.360626
     -1.676677     11.835479     11.835479     23.670958
     -1.666667     11.086978     11.086978     22.173956
     -1.656657     10.688515     10.688515     21.377031
     -1.646647     10.758733     10.758733     21.517465
     -1.636637     11.204176     11.204176     22.408352
     -1.626627     11.745909     11.745909     23.491817
