# EIG2DOS: Utility for SIESTA to obtain the electronic density of states
#  E. Artacho, Apr 1999, A. Garcia, Apr 2012
#  Nick R. Papior, Feb 2017
# ------------------------------------------
# Eigenvalues calculated from a non-polarized calculation
# Eigenvalues read from siesta.EIG
# Kpoint weights read from siesta.KP
# Using smearing parameter:   0.0500
# Using 1000 points in the energy range
# Selected bands: 1 to: 2981
# Emin, Emax in file for selected band(s):    -27.0701481    218.3319450
# Nbands, Nspin, Nk   =   2981     1     1
# E_F                 =    -4.2792 eV --> (shifted to ZERO)
# Broadening          =     0.0500 eV
#
#        E            N(up)  (=)   N(down)         Ntot
     -5.000000     38.292650     38.292650     76.585300
     -4.989990     40.371737     40.371737     80.743475
     -4.979980     42.164467     42.164467     84.328933
     -4.969970     43.268908     43.268908     86.537815
     -4.959960     43.356493     43.356493     86.712986
     -4.949950     42.285484     42.285484     84.570968
     -4.939940     40.154587     40.154587     80.309175
     -4.929930     37.297179     37.297179     74.594359
     -4.919920     34.237812     34.237812     68.475625
     -4.909910     31.630423     31.630423     63.260845
     -4.899900     30.177070     30.177070     60.354140
     -4.889890     30.507103     30.507103     61.014206
     -4.879880     33.004159     33.004159     66.008317
     -4.869870     37.611526     37.611526     75.223053
     -4.859860     43.701817     43.701817     87.403634
     -4.849850     50.116410     50.116410    100.232819
     -4.839840     55.426807     55.426807    110.853615
     -4.829830     58.356755     58.356755    116.713510
     -4.819820     58.197574     58.197574    116.395148
     -4.809810     55.027203     55.027203    110.054407
     -4.799800     49.632989     49.632989     99.265977
     -4.789790     43.188296     43.188296     86.376591
     -4.779780     36.848393     36.848393     73.696786
     -4.769770     31.443220     31.443220     62.886441
     -4.759760     27.360580     27.360580     54.721161
     -4.749750     24.601789     24.601789     49.203578
     -4.739740     22.924006     22.924006     45.848013
     -4.729730     21.982802     21.982802     43.965604
     -4.719720     21.428956     21.428956     42.857912
     -4.709710     20.955878     20.955878     41.911756
     -4.699700     20.317531     20.317531     40.635062
     -4.689690     19.341705     19.341705     38.683409
     -4.679680     17.956158     17.956158     35.912316
     -4.669670     16.229424     16.229424     32.458848
     -4.659660     14.409452     14.409452     28.818904
     -4.649650     12.931595     12.931595     25.863191
     -4.639640     12.370595     12.370595     24.741191
     -4.629630     13.327738     13.327738     26.655475
     -4.619620     16.266416     16.266416     32.532833
     -4.609610     21.331480     21.331480     42.662960
     -4.599600     28.207812     28.207812     56.415625
     -4.589590     36.084781     36.084781     72.169563
     -4.579580     43.779660     43.779660     87.559320
     -4.569570     50.022777     50.022777    100.045554
     -4.559560     53.831264     53.831264    107.662527
     -4.549550     54.835969     54.835969    109.671939
     -4.539540     53.421412     53.421412    106.842824
     -4.529530     50.606394     50.606394    101.212789
     -4.519520     47.702789     47.702789     95.405579
     -4.509510     45.884185     45.884185     91.768370
     -4.499499     45.826428     45.826428     91.652855
     -4.489489     47.539050     47.539050     95.078099
     -4.479479     50.420163     50.420163    100.840326
     -4.469469     53.484430     53.484430    106.968860
     -4.459459     55.668415     55.668415    111.336829
     -4.449449     56.116816     56.116816    112.233633
     -4.439439     54.381313     54.381313    108.762626
     -4.429429     50.500673     50.500673    101.001347
     -4.419419     44.963567     44.963567     89.927135
     -4.409409     38.579339     38.579339     77.158679
     -4.399399     32.295108     32.295108     64.590216
     -4.389389     26.999826     26.999826     53.999651
     -4.379379     23.351179     23.351179     46.702358
     -4.369369     21.655617     21.655617     43.311235
     -4.359359     21.827091     21.827091     43.654181
     -4.349349     23.440189     23.440189     46.880378
     -4.339339     25.871208     25.871208     51.742417
     -4.329329     28.489384     28.489384     56.978769
     -4.319319     30.836352     30.836352     61.672704
     -4.309309     32.732486     32.732486     65.464971
     -4.299299     34.277473     34.277473     68.554947
     -4.289289     35.753443     35.753443     71.506886
     -4.279279     37.470179     37.470179     74.940358
     -4.269269     39.603085     39.603085     79.206170
     -4.259259     42.072160     42.072160     84.144321
     -4.249249     44.504259     44.504259     89.008518
     -4.239239     46.308621     46.308621     92.617242
     -4.229229     46.863858     46.863858     93.727716
     -4.219219     45.761405     45.761405     91.522809
     -4.209209     43.002313     43.002313     86.004626
     -4.199199     39.043061     39.043061     78.086122
     -4.189189     34.650894     34.650894     69.301788
     -4.179179     30.629643     30.629643     61.259286
     -4.169169     27.548861     27.548861     55.097722
     -4.159159     25.603957     25.603957     51.207915
     -4.149149     24.658041     24.658041     49.316082
     -4.139139     24.419366     24.419366     48.838732
     -4.129129     24.647575     24.647575     49.295150
     -4.119119     25.281230     25.281230     50.562459
     -4.109109     26.426775     26.426775     52.853551
     -4.099099     28.218485     28.218485     56.436970
     -4.089089     30.624199     30.624199     61.248399
     -4.079079     33.308184     33.308184     66.616368
     -4.069069     35.647300     35.647300     71.294600
     -4.059059     36.924089     36.924089     73.848179
     -4.049049     36.619768     36.619768     73.239536
     -4.039039     34.660998     34.660998     69.321995
     -4.029029     31.487695     31.487695     62.975390
     -4.019019     27.904597     27.904597     55.809195
     -4.009009     24.797940     24.797940     49.595880
     -3.998999     22.863497     22.863497     45.726994
     -3.988989     22.465229     22.465229     44.930458
     -3.978979     23.651461     23.651461     47.302923
     -3.968969     26.265736     26.265736     52.531471
     -3.958959     30.059452     30.059452     60.118904
     -3.948949     34.750623     34.750623     69.501245
     -3.938939     40.036409     40.036409     80.072817
     -3.928929     45.603277     45.603277     91.206555
     -3.918919     51.163968     51.163968    102.327936
     -3.908909     56.505566     56.505566    113.011132
     -3.898899     61.501791     61.501791    123.003582
     -3.888889     66.054994     66.054994    132.109987
     -3.878879     69.983041     69.983041    139.966081
     -3.868869     72.917657     72.917657    145.835314
     -3.858859     74.295721     74.295721    148.591442
     -3.848849     73.487759     73.487759    146.975519
     -3.838839     70.034790     70.034790    140.069580
     -3.828829     63.895721     63.895721    127.791443
     -3.818819     55.584584     55.584584    111.169167
     -3.808809     46.117973     46.117973     92.235947
     -3.798799     36.778548     36.778548     73.557096
     -3.788789     28.782946     28.782946     57.565892
     -3.778779     22.978053     22.978053     45.956106
     -3.768769     19.665477     19.665477     39.330955
     -3.758759     18.593294     18.593294     37.186588
     -3.748749     19.093441     19.093441     38.186881
     -3.738739     20.307372     20.307372     40.614744
     -3.728729     21.434093     21.434093     42.868187
     -3.718719     21.942280     21.942280     43.884559
     -3.708709     21.701024     21.701024     43.402049
     -3.698699     20.998921     20.998921     41.997841
     -3.688689     20.441532     20.441532     40.883064
     -3.678679     20.745614     20.745614     41.491229
     -3.668669     22.481939     22.481939     44.963879
     -3.658659     25.846354     25.846354     51.692709
     -3.648649     30.544016     30.544016     61.088032
     -3.638639     35.840928     35.840928     71.681855
     -3.628629     40.773139     40.773139     81.546278
     -3.618619     44.434241     44.434241     88.868481
     -3.608609     46.225993     46.225993     92.451985
     -3.598599     45.980023     45.980023     91.960045
     -3.588589     43.927460     43.927460     87.854921
     -3.578579     40.563039     40.563039     81.126078
     -3.568569     36.478422     36.478422     72.956844
     -3.558559     32.220560     32.220560     64.441121
     -3.548549     28.194991     28.194991     56.389983
     -3.538539     24.614591     24.614591     49.229182
     -3.528529     21.496705     21.496705     42.993410
     -3.518519     18.714778     18.714778     37.429556
     -3.508509     16.095938     16.095938     32.191877
     -3.498498     13.530007     13.530007     27.060014
     -3.488488     11.042459     11.042459     22.084919
     -3.478478      8.799562      8.799562     17.599124
     -3.468468      7.048418      7.048418     14.096837
     -3.458458      6.023358      6.023358     12.046716
     -3.448448      5.856759      5.856759     11.713518
     -3.438438      6.521482      6.521482     13.042963
     -3.428428      7.818725      7.818725     15.637450
     -3.418418      9.417258      9.417258     18.834515
     -3.408408     10.942125     10.942125     21.884251
     -3.398398     12.094753     12.094753     24.189506
     -3.388388     12.765417     12.765417     25.530835
     -3.378378     13.089747     13.089747     26.179495
     -3.368368     13.417676     13.417676     26.835351
     -3.358358     14.201839     14.201839     28.403678
     -3.348348     15.849246     15.849246     31.698491
     -3.338338     18.590367     18.590367     37.180734
     -3.328328     22.399547     22.399547     44.799095
     -3.318318     26.970520     26.970520     53.941041
     -3.308308     31.737892     31.737892     63.475783
     -3.298298     35.946290     35.946290     71.892579
     -3.288288     38.781419     38.781419     77.562837
     -3.278278     39.562283     39.562283     79.124566
     -3.268268     37.948704     37.948704     75.897409
     -3.258258     34.077726     34.077726     68.155452
     -3.248248     28.550568     28.550568     57.101136
     -3.238238     22.257830     22.257830     44.515660
     -3.228228     16.114570     16.114570     32.229141
     -3.218218     10.820616     10.820616     21.641231
     -3.208208      6.737508      6.737508     13.475017
     -3.198198      3.904486      3.904486      7.808973
     -3.188188      2.151055      2.151055      4.302111
     -3.178178      1.238218      1.238218      2.476436
     -3.168168      0.975021      0.975021      1.950041
     -3.158158      1.287925      1.287925      2.575850
     -3.148148      2.243204      2.243204      4.486408
     -3.138138      4.028097      4.028097      8.056195
     -3.128128      6.891804      6.891804     13.783609
     -3.118118     11.046241     11.046241     22.092483
     -3.108108     16.538375     16.538375     33.076750
     -3.098098     23.129283     23.129283     46.258565
     -3.088088     30.235703     30.235703     60.471406
     -3.078078     36.987564     36.987564     73.975128
     -3.068068     42.417138     42.417138     84.834275
     -3.058058     45.731373     45.731373     91.462746
     -3.048048     46.562189     46.562189     93.124378
     -3.038038     45.080583     45.080583     90.161166
     -3.028028     41.916202     41.916202     83.832403
     -3.018018     37.918576     37.918576     75.837151
     -3.008008     33.873507     33.873507     67.747015
     -2.997998     30.301400     30.301400     60.602800
     -2.987988     27.410160     27.410160     54.820320
     -2.977978     25.192240     25.192240     50.384480
     -2.967968     23.591388     23.591388     47.182775
     -2.957958     22.645466     22.645466     45.290932
     -2.947948     22.534487     22.534487     45.068974
     -2.937938     23.510975     23.510975     47.021949
     -2.927928     25.744741     25.744741     51.489481
     -2.917918     29.157706     29.157706     58.315412
     -2.907908     33.337309     33.337309     66.674618
     -2.897898     37.587751     37.587751     75.175501
     -2.887888     41.115062     41.115062     82.230124
     -2.877878     43.274433     43.274433     86.548866
     -2.867868     43.772704     43.772704     87.545408
     -2.857858     42.736148     42.736148     85.472296
     -2.847848     40.616129     40.616129     81.232258
     -2.837838     37.980959     37.980959     75.961919
     -2.827828     35.293052     35.293052     70.586103
     -2.817818     32.771491     32.771491     65.542983
     -2.807808     30.392435     30.392435     60.784871
     -2.797798     28.008574     28.008574     56.017148
     -2.787788     25.510955     25.510955     51.021909
     -2.777778     22.941160     22.941160     45.882320
     -2.767768     20.496167     20.496167     40.992334
     -2.757758     18.432663     18.432663     36.865326
     -2.747748     16.935995     16.935995     33.871990
     -2.737738     16.037575     16.037575     32.075149
     -2.727728     15.631921     15.631921     31.263843
     -2.717718     15.579445     15.579445     31.158891
     -2.707708     15.823777     15.823777     31.647555
     -2.697698     16.440535     16.440535     32.881071
     -2.687688     17.578182     17.578182     35.156363
     -2.677678     19.324768     19.324768     38.649536
     -2.667668     21.588960     21.588960     43.177921
     -2.657658     24.081118     24.081118     48.162235
     -2.647648     26.418374     26.418374     52.836748
     -2.637638     28.295716     28.295716     56.591432
     -2.627628     29.618907     29.618907     59.237815
     -2.617618     30.518644     30.518644     61.037289
     -2.607608     31.243422     31.243422     62.486844
     -2.597598     32.005298     32.005298     64.010595
     -2.587588     32.872946     32.872946     65.745892
     -2.577578     33.759471     33.759471     67.518942
     -2.567568     34.480970     34.480970     68.961940
     -2.557558     34.824915     34.824915     69.649830
     -2.547548     34.589216     34.589216     69.178431
     -2.537538     33.603600     33.603600     67.207200
     -2.527528     31.771188     31.771188     63.542375
     -2.517518     29.143688     29.143688     58.287376
     -2.507508     25.993044     25.993044     51.986088
     -2.497497     22.815424     22.815424     45.630848
     -2.487487     20.229160     20.229160     40.458320
     -2.477477     18.790360     18.790360     37.580721
     -2.467467     18.804381     18.804381     37.608761
     -2.457457     20.222322     20.222322     40.444644
     -2.447447     22.674106     22.674106     45.348212
     -2.437437     25.625702     25.625702     51.251405
     -2.427427     28.589849     28.589849     57.179698
     -2.417417     31.293869     31.293869     62.587737
     -2.407407     33.727013     33.727013     67.454026
     -2.397397     36.046143     36.046143     72.092286
     -2.387387     38.387440     38.387440     76.774880
     -2.377377     40.680570     40.680570     81.361139
     -2.367367     42.565591     42.565591     85.131181
     -2.357357     43.467707     43.467707     86.935413
     -2.347347     42.809763     42.809763     85.619525
     -2.337337     40.272292     40.272292     80.544585
     -2.327327     35.982086     35.982086     71.964172
     -2.317317     30.540532     30.540532     61.081064
     -2.307307     24.878209     24.878209     49.756417
     -2.297297     20.000795     20.000795     40.001590
     -2.287287     16.730468     16.730468     33.460936
     -2.277277     15.531143     15.531143     31.062286
     -2.267267     16.455012     16.455012     32.910023
     -2.257257     19.196765     19.196765     38.393529
     -2.247247     23.213673     23.213673     46.427347
     -2.237237     27.864883     27.864883     55.729765
     -2.227227     32.531002     32.531002     65.062005
     -2.217217     36.688377     36.688377     73.376754
     -2.207207     39.931616     39.931616     79.863232
     -2.197197     41.961640     41.961640     83.923281
     -2.187187     42.573915     42.573915     85.147831
     -2.177177     41.677597     41.677597     83.355194
     -2.167167     39.346624     39.346624     78.693249
     -2.157157     35.865078     35.865078     71.730155
     -2.147147     31.712065     31.712065     63.424130
     -2.137137     27.456752     27.456752     54.913504
     -2.127127     23.591405     23.591405     47.182809
     -2.117117     20.380124     20.380124     40.760248
     -2.107107     17.803789     17.803789     35.607578
     -2.097097     15.630715     15.630715     31.261430
     -2.087087     13.570995     13.570995     27.141991
     -2.077077     11.428909     11.428909     22.857817
     -2.067067      9.178913      9.178913     18.357826
     -2.057057      6.943579      6.943579     13.887157
     -2.047047      4.907313      4.907313      9.814625
     -2.037037      3.224055      3.224055      6.448109
     -2.027027      1.963561      1.963561      3.927122
     -2.017017      1.107953      1.107953      2.215907
     -2.007007      0.582659      0.582659      1.165317
     -1.996997      0.296909      0.296909      0.593818
     -1.986987      0.176046      0.176046      0.352092
     -1.976977      0.180243      0.180243      0.360485
     -1.966967      0.312584      0.312584      0.625167
     -1.956957      0.620619      0.620619      1.241238
     -1.946947      1.191623      1.191623      2.383247
     -1.936937      2.137488      2.137488      4.274975
     -1.926927      3.564884      3.564884      7.129768
     -1.916917      5.532256      5.532256     11.064511
     -1.906907      8.005181      8.005181     16.010362
     -1.896897     10.829360     10.829360     21.658720
     -1.886887     13.738803     13.738803     27.477605
     -1.876877     16.404064     16.404064     32.808129
     -1.866867     18.508049     18.508049     37.016099
     -1.856857     19.825301     19.825301     39.650603
     -1.846847     20.280084     20.280084     40.560168
     -1.836837     19.965770     19.965770     39.931540
     -1.826827     19.117170     19.117170     38.234340
     -1.816817     18.037921     18.037921     36.075842
     -1.806807     17.000647     17.000647     34.001294
     -1.796797     16.156068     16.156068     32.312137
     -1.786787     15.495063     15.495063     30.990126
     -1.776777     14.889835     14.889835     29.779670
     -1.766767     14.198621     14.198621     28.397243
     -1.756757     13.377008     13.377008     26.754016
     -1.746747     12.528753     12.528753     25.057506
     -1.736737     11.861900     11.861900     23.723800
     -1.726727     11.573325     11.573325     23.146650
     -1.716717     11.730063     11.730063     23.460125
     -1.706707     12.219587     12.219587     24.439173
     -1.696697     12.800975     12.800975     25.601949
     -1.686687     13.228676     13.228676     26.457353
     -1.676677     13.376557     13.376557     26.753114
     -1.666667     13.288768     13.288768     26.577535
     -1.656657     13.127541     13.127541     26.255082
     -1.646647     13.050594     13.050594     26.101189
     -1.636637     13.094191     13.094191     26.188382
     -1.626627     13.134808     13.134808     26.269616
