# EIG2DOS: Utility for SIESTA to obtain the electronic density of states
#  E. Artacho, Apr 1999, A. Garcia, Apr 2012
#  Nick R. Papior, Feb 2017
# ------------------------------------------
# Eigenvalues calculated from a non-polarized calculation
# Eigenvalues read from siesta.EIG
# Kpoint weights read from siesta.KP
# Using smearing parameter:   0.0500
# Using 1000 points in the energy range
# Selected bands: 1 to: 2981
# Emin, Emax in file for selected band(s):    -27.3065066    218.4046670
# Nbands, Nspin, Nk   =   2981     1     1
# E_F                 =    -4.1935 eV --> (shifted to ZERO)
# Broadening          =     0.0500 eV
#
#        E            N(up)  (=)   N(down)         Ntot
     -5.000000     36.560950     36.560950     73.121901
     -4.989990     40.938460     40.938460     81.876920
     -4.979980     44.267456     44.267456     88.534911
     -4.969970     45.959936     45.959936     91.919871
     -4.959960     45.734796     45.734796     91.469591
     -4.949950     43.710083     43.710083     87.420167
     -4.939940     40.371693     40.371693     80.743387
     -4.929930     36.455578     36.455578     72.911156
     -4.919920     32.804830     32.804830     65.609660
     -4.909910     30.240920     30.240920     60.481839
     -4.899900     29.446576     29.446576     58.893151
     -4.889890     30.837665     30.837665     61.675329
     -4.879880     34.425100     34.425100     68.850200
     -4.869870     39.717404     39.717404     79.434809
     -4.859860     45.743625     45.743625     91.487250
     -4.849850     51.247298     51.247298    102.494596
     -4.839840     55.020402     55.020402    110.040804
     -4.829830     56.260917     56.260917    112.521833
     -4.819820     54.807297     54.807297    109.614594
     -4.809810     51.152567     51.152567    102.305134
     -4.799800     46.242236     46.242236     92.484473
     -4.789790     41.153779     41.153779     82.307559
     -4.779780     36.790091     36.790091     73.580181
     -4.769770     33.685940     33.685940     67.371880
     -4.759760     31.957736     31.957736     63.915472
     -4.749750     31.368469     31.368469     62.736939
     -4.739740     31.456439     31.456439     62.912877
     -4.729730     31.681788     31.681788     63.363577
     -4.719720     31.558350     31.558350     63.116701
     -4.709710     30.748614     30.748614     61.497228
     -4.699700     29.110650     29.110650     58.221301
     -4.689690     26.702187     26.702187     53.404374
     -4.679680     23.761787     23.761787     47.523575
     -4.669670     20.687165     20.687165     41.374331
     -4.659660     18.012772     18.012772     36.025544
     -4.649650     16.366249     16.366249     32.732498
     -4.639640     16.375539     16.375539     32.751078
     -4.629630     18.516003     18.516003     37.032006
     -4.619620     22.924869     22.924869     45.849738
     -4.609610     29.250904     29.250904     58.501808
     -4.599600     36.625652     36.625652     73.251305
     -4.589590     43.816889     43.816889     87.633777
     -4.579580     49.552189     49.552189     99.104377
     -4.569570     52.909889     52.909889    105.819779
     -4.559560     53.619491     53.619491    107.238982
     -4.549550     52.136298     52.136298    104.272596
     -4.539540     49.452148     49.452148     98.904295
     -4.529530     46.722759     46.722759     93.445519
     -4.519520     44.867267     44.867267     89.734535
     -4.509510     44.292804     44.292804     88.585607
     -4.499499     44.829403     44.829403     89.658806
     -4.489489     45.869475     45.869475     91.738951
     -4.479479     46.632743     46.632743     93.265485
     -4.469469     46.445469     46.445469     92.890938
     -4.459459     44.936219     44.936219     89.872439
     -4.449449     42.098078     42.098078     84.196156
     -4.439439     38.227492     38.227492     76.454985
     -4.429429     33.796360     33.796360     67.592720
     -4.419419     29.326020     29.326020     58.652040
     -4.409409     25.306329     25.306329     50.612659
     -4.399399     22.158879     22.158879     44.317758
     -4.389389     20.212083     20.212083     40.424167
     -4.379379     19.659279     19.659279     39.318559
     -4.369369     20.504059     20.504059     41.008118
     -4.359359     22.530394     22.530394     45.060787
     -4.349349     25.338351     25.338351     50.676702
     -4.339339     28.453164     28.453164     56.906329
     -4.329329     31.469151     31.469151     62.938302
     -4.319319     34.163895     34.163895     68.327791
     -4.309309     36.530034     36.530034     73.060069
     -4.299299     38.712211     38.712211     77.424421
     -4.289289     40.879094     40.879094     81.758188
     -4.279279     43.083982     43.083982     86.167965
     -4.269269     45.168918     45.168918     90.337836
     -4.259259     46.754128     46.754128     93.508256
     -4.249249     47.331392     47.331392     94.662783
     -4.239239     46.444737     46.444737     92.889474
     -4.229229     43.898718     43.898718     87.797435
     -4.219219     39.903901     39.903901     79.807802
     -4.209209     35.078590     35.078590     70.157180
     -4.199199     30.284274     30.284274     60.568548
     -4.189189     26.354034     26.354034     52.708069
     -4.179179     23.830785     23.830785     47.661571
     -4.169169     22.830183     22.830183     45.660367
     -4.159159     23.082293     23.082293     46.164586
     -4.149149     24.120903     24.120903     48.241806
     -4.139139     25.522743     25.522743     51.045486
     -4.129129     27.079454     27.079454     54.158908
     -4.119119     28.819317     28.819317     57.638633
     -4.109109     30.869916     30.869916     61.739833
     -4.099099     33.237761     33.237761     66.475523
     -4.089089     35.635778     35.635778     71.271555
     -4.079079     37.477863     37.477863     74.955726
     -4.069069     38.074388     38.074388     76.148775
     -4.059059     36.944268     36.944268     73.888536
     -4.049049     34.080502     34.080502     68.161005
     -4.039039     30.022669     30.022669     60.045337
     -4.029029     25.695669     25.695669     51.391338
     -4.019019     22.100995     22.100995     44.201990
     -4.009009     20.014652     20.014652     40.029304
     -3.998999     19.819669     19.819669     39.639338
     -3.988989     21.510409     21.510409     43.020818
     -3.978979     24.815313     24.815313     49.630626
     -3.968969     29.346355     29.346355     58.692710
     -3.958959     34.706439     34.706439     69.412878
     -3.948949     40.539148     40.539148     81.078297
     -3.938939     46.544794     46.544794     93.089587
     -3.928929     52.488099     52.488099    104.976199
     -3.918919     58.196834     58.196834    116.393668
     -3.908909     63.530745     63.530745    127.061490
     -3.898899     68.311654     68.311654    136.623307
     -3.888889     72.242098     72.242098    144.484196
     -3.878879     74.868876     74.868876    149.737752
     -3.868869     75.639908     75.639908    151.279816
     -3.858859     74.057316     74.057316    148.114632
     -3.848849     69.874561     69.874561    139.749123
     -3.838839     63.254912     63.254912    126.509823
     -3.828829     54.818969     54.818969    109.637939
     -3.818819     45.552472     45.552472     91.104944
     -3.808809     36.599009     36.599009     73.198018
     -3.798799     29.002369     29.002369     58.004739
     -3.788789     23.476658     23.476658     46.953316
     -3.778779     20.268503     20.268503     40.537006
     -3.768769     19.143785     19.143785     38.287570
     -3.758759     19.494450     19.494450     38.988901
     -3.748749     20.530541     20.530541     41.061083
     -3.738739     21.504886     21.504886     43.009772
     -3.728729     21.914010     21.914010     43.828019
     -3.718719     21.626438     21.626438     43.252876
     -3.708709     20.905752     20.905752     41.811505
     -3.698699     20.318599     20.318599     40.637199
     -3.688689     20.545998     20.545998     41.091996
     -3.678679     22.146073     22.146073     44.292147
     -3.668669     25.339237     25.339237     50.678474
     -3.658659     29.890352     29.890352     59.780705
     -3.648649     35.137082     35.137082     70.274165
     -3.638639     40.162154     40.162154     80.324308
     -3.628629     44.049547     44.049547     88.099093
     -3.618619     46.130014     46.130014     92.260028
     -3.608609     46.130657     46.130657     92.261314
     -3.598599     44.191620     44.191620     88.383239
     -3.588589     40.770684     40.770684     81.541367
     -3.578579     36.490245     36.490245     72.980490
     -3.568569     31.979559     31.979559     63.959118
     -3.558559     27.744311     27.744311     55.488622
     -3.548549     24.080029     24.080029     48.160058
     -3.538539     21.043421     21.043421     42.086843
     -3.528529     18.493164     18.493164     36.986329
     -3.518519     16.193841     16.193841     32.387682
     -3.508509     13.947528     13.947528     27.895056
     -3.498498     11.699105     11.699105     23.398209
     -3.488488      9.572086      9.572086     19.144172
     -3.478478      7.826913      7.826913     15.653826
     -3.468468      6.769049      6.769049     13.538097
     -3.458458      6.648042      6.648042     13.296084
     -3.448448      7.579270      7.579270     15.158540
     -3.438438      9.502530      9.502530     19.005059
     -3.428428     12.180996     12.180996     24.361993
     -3.418418     15.241842     15.241842     30.483684
     -3.408408     18.256996     18.256996     36.513991
     -3.398398     20.851979     20.851979     41.703959
     -3.388388     22.815452     22.815452     45.630905
     -3.378378     24.172315     24.172315     48.344629
     -3.368368     25.187538     25.187538     50.375077
     -3.358358     26.287040     26.287040     52.574079
     -3.348348     27.909344     27.909344     55.818688
     -3.338338     30.328288     30.328288     60.656576
     -3.328328     33.504372     33.504372     67.008744
     -3.318318     37.024592     37.024592     74.049184
     -3.308308     40.172502     40.172502     80.345004
     -3.298298     42.129472     42.129472     84.258943
     -3.288288     42.251389     42.251389     84.502778
     -3.278278     40.315654     40.315654     80.631308
     -3.268268     36.624694     36.624694     73.249388
     -3.258258     31.904826     31.904826     63.809652
     -3.248248     27.036057     27.036057     54.072115
     -3.238238     22.735910     22.735910     45.471819
     -3.228228     19.343356     19.343356     38.686712
     -3.218218     16.791381     16.791381     33.582763
     -3.208208     14.755090     14.755090     29.510180
     -3.198198     12.879063     12.879063     25.758125
     -3.188188     10.967703     10.967703     21.935407
     -3.178178      9.066096      9.066096     18.132192
     -3.168168      7.428614      7.428614     14.857228
     -3.158158      6.422410      6.422410     12.844821
     -3.148148      6.419734      6.419734     12.839467
     -3.138138      7.706947      7.706947     15.413895
     -3.128128     10.409565     10.409565     20.819130
     -3.118118     14.426839     14.426839     28.853677
     -3.108108     19.388321     19.388321     38.776643
     -3.098098     24.666651     24.666651     49.333301
     -3.088088     29.478265     29.478265     58.956531
     -3.078078     33.066628     33.066628     66.133256
     -3.068068     34.909517     34.909517     69.819034
     -3.058058     34.860761     34.860761     69.721523
     -3.048048     33.156979     33.156979     66.313959
     -3.038038     30.287083     30.287083     60.574166
     -3.028028     26.796139     26.796139     53.592278
     -3.018018     23.126412     23.126412     46.252823
     -3.008008     19.566327     19.566327     39.132653
     -2.997998     16.306757     16.306757     32.613514
     -2.987988     13.543035     13.543035     27.086069
     -2.977978     11.546715     11.546715     23.093429
     -2.967968     10.662170     10.662170     21.324339
     -2.957958     11.229551     11.229551     22.459103
     -2.947948     13.467953     13.467953     26.935905
     -2.937938     17.362126     17.362126     34.724252
     -2.927928     22.591990     22.591990     45.183981
     -2.917918     28.535713     28.535713     57.071425
     -2.907908     34.363380     34.363380     68.726760
     -2.897898     39.213091     39.213091     78.426181
     -2.887888     42.406337     42.406337     84.812675
     -2.877878     43.630096     43.630096     87.260192
     -2.867868     43.010245     43.010245     86.020490
     -2.857858     41.036348     41.036348     82.072695
     -2.847848     38.361257     38.361257     76.722514
     -2.837838     35.559728     35.559728     71.119457
     -2.827828     32.953005     32.953005     65.906010
     -2.817818     30.573930     30.573930     61.147859
     -2.807808     28.274102     28.274102     56.548204
     -2.797798     25.901295     25.901295     51.802589
     -2.787788     23.443835     23.443835     46.887671
     -2.777778     21.066502     21.066502     42.133004
     -2.767768     19.031605     19.031605     38.063211
     -2.757758     17.566974     17.566974     35.133948
     -2.747748     16.768498     16.768498     33.536996
     -2.737738     16.594089     16.594089     33.188177
     -2.727728     16.939432     16.939432     33.878865
     -2.717718     17.728703     17.728703     35.457406
     -2.707708     18.945565     18.945565     37.891129
     -2.697698     20.578547     20.578547     41.157094
     -2.687688     22.526178     22.526178     45.052357
     -2.677678     24.547426     24.547426     49.094852
     -2.667668     26.317788     26.317788     52.635575
     -2.657658     27.574793     27.574793     55.149587
     -2.647648     28.264101     28.264101     56.528202
     -2.637638     28.585271     28.585271     57.170541
     -2.627628     28.897386     28.897386     57.794773
     -2.617618     29.535844     29.535844     59.071689
     -2.607608     30.646397     30.646397     61.292793
     -2.597598     32.123207     32.123207     64.246414
     -2.587588     33.664139     33.664139     67.328277
     -2.577578     34.887675     34.887675     69.775350
     -2.567568     35.440284     35.440284     70.880569
     -2.557558     35.060826     35.060826     70.121651
     -2.547548     33.616929     33.616929     67.233857
     -2.537538     31.142805     31.142805     62.285611
     -2.527528     27.881173     27.881173     55.762346
     -2.517518     24.295598     24.295598     48.591196
     -2.507508     21.011875     21.011875     42.023751
     -2.497497     18.678701     18.678701     37.357402
     -2.487487     17.786311     17.786311     35.572623
     -2.477477     18.513412     18.513412     37.026823
     -2.467467     20.668632     20.668632     41.337265
     -2.457457     23.756688     23.756688     47.513377
     -2.447447     27.149280     27.149280     54.298561
     -2.437437     30.297248     30.297248     60.594496
     -2.427427     32.900283     32.900283     65.800566
     -2.417417     34.962955     34.962955     69.925909
     -2.407407     36.709328     36.709328     73.418655
     -2.397397     38.389116     38.389116     76.778232
     -2.387387     40.062601     40.062601     80.125201
     -2.377377     41.473048     41.473048     82.946096
     -2.367367     42.085814     42.085814     84.171627
     -2.357357     41.296229     41.296229     82.592458
     -2.347347     38.717775     38.717775     77.435551
     -2.337337     34.410585     34.410585     68.821170
     -2.327327     28.935485     28.935485     57.870970
     -2.317317     23.209849     23.209849     46.419698
     -2.307307     18.241434     18.241434     36.482868
     -2.297297     14.863204     14.863204     29.726407
     -2.287287     13.565657     13.565657     27.131313
     -2.277277     14.454691     14.454691     28.909382
     -2.267267     17.303541     17.303541     34.607083
     -2.257257     21.646631     21.646631     43.293263
     -2.247247     26.876229     26.876229     53.752457
     -2.237237     32.325935     32.325935     64.651870
     -2.227227     37.340267     37.340267     74.680533
     -2.217217     41.334163     41.334163     82.668325
     -2.207207     43.846355     43.846355     87.692710
     -2.197197     44.589931     44.589931     89.179862
     -2.187187     43.499491     43.499491     86.998983
     -2.177177     40.763604     40.763604     81.527208
     -2.167167     36.818385     36.818385     73.636769
     -2.157157     32.277219     32.277219     64.554437
     -2.147147     27.794671     27.794671     55.589343
     -2.137137     23.902893     23.902893     47.805785
     -2.127127     20.888539     20.888539     41.777079
     -2.117117     18.768447     18.768447     37.536895
     -2.107107     17.370548     17.370548     34.741095
     -2.097097     16.465402     16.465402     32.930804
     -2.087087     15.867857     15.867857     31.735715
     -2.077077     15.457990     15.457990     30.915979
     -2.067067     15.133408     15.133408     30.266817
     -2.057057     14.753345     14.753345     29.506690
     -2.047047     14.133648     14.133648     28.267296
     -2.037037     13.105611     13.105611     26.211221
     -2.027027     11.599129     11.599129     23.198258
     -2.017017      9.691886      9.691886     19.383771
     -2.007007      7.591440      7.591440     15.182880
     -1.996997      5.562825      5.562825     11.125649
     -1.986987      3.845690      3.845690      7.691380
     -1.976977      2.603619      2.603619      5.207238
     -1.966967      1.921231      1.921231      3.842462
     -1.956957      1.834181      1.834181      3.668362
     -1.946947      2.361765      2.361765      4.723531
     -1.936937      3.516602      3.516602      7.033204
     -1.926927      5.284306      5.284306     10.568612
     -1.916917      7.586726      7.586726     15.173452
     -1.906907     10.254329     10.254329     20.508658
     -1.896897     13.030323     13.030323     26.060647
     -1.886887     15.612478     15.612478     31.224956
     -1.876877     17.718509     17.718509     35.437018
     -1.866867     19.150045     19.150045     38.300089
     -1.856857     19.833939     19.833939     39.667878
     -1.846847     19.831451     19.831451     39.662903
     -1.836837     19.314717     19.314717     38.629435
     -1.826827     18.513267     18.513267     37.026534
     -1.816817     17.638704     17.638704     35.277409
     -1.806807     16.808774     16.808774     33.617548
     -1.796797     16.004608     16.004608     32.009216
     -1.786787     15.089798     15.089798     30.179596
     -1.776777     13.890461     13.890461     27.780922
     -1.766767     12.298171     12.298171     24.596342
     -1.756757     10.340847     10.340847     20.681694
     -1.746747      8.185538      8.185538     16.371075
     -1.736737      6.078599      6.078599     12.157197
     -1.726727      4.263164      4.263164      8.526328
     -1.716717      2.918870      2.918870      5.837740
     -1.706707      2.145751      2.145751      4.291502
     -1.696697      1.982668      1.982668      3.965336
     -1.686687      2.431531      2.431531      4.863063
     -1.676677      3.461045      3.461045      6.922090
     -1.666667      4.983316      4.983316      9.966632
     -1.656657      6.820906      6.820906     13.641812
     -1.646647      8.696511      8.696511     17.393022
     -1.636637     10.272356     10.272356     20.544712
     -1.626627     11.241462     11.241462     22.482924
