# EIG2DOS: Utility for SIESTA to obtain the electronic density of states
#  E. Artacho, Apr 1999, A. Garcia, Apr 2012
#  Nick R. Papior, Feb 2017
# ------------------------------------------
# Eigenvalues calculated from a non-polarized calculation
# Eigenvalues read from siesta.EIG
# Kpoint weights read from siesta.KP
# Using smearing parameter:   0.0500
# Using 1000 points in the energy range
# Selected bands: 1 to: 2981
# Emin, Emax in file for selected band(s):    -27.2044257    218.3480990
# Nbands, Nspin, Nk   =   2981     1     1
# E_F                 =    -4.2552 eV --> (shifted to ZERO)
# Broadening          =     0.0500 eV
#
#        E            N(up)  (=)   N(down)         Ntot
     -5.000000     33.432909     33.432909     66.865818
     -4.989990     37.324986     37.324986     74.649973
     -4.979980     40.783750     40.783750     81.567500
     -4.969970     43.253820     43.253820     86.507640
     -4.959960     44.304228     44.304228     88.608456
     -4.949950     43.755105     43.755105     87.510209
     -4.939940     41.740596     41.740596     83.481192
     -4.929930     38.692885     38.692885     77.385770
     -4.919920     35.267376     35.267376     70.534751
     -4.909910     32.241236     32.241236     64.482471
     -4.899900     30.401266     30.401266     60.802532
     -4.889890     30.412182     30.412182     60.824365
     -4.879880     32.653927     32.653927     65.307855
     -4.869870     37.051200     37.051200     74.102399
     -4.859860     42.968665     42.968665     85.937330
     -4.849850     49.264140     49.264140     98.528281
     -4.839840     54.544097     54.544097    109.088195
     -4.829830     57.563535     57.563535    115.127070
     -4.819820     57.616767     57.616767    115.233535
     -4.809810     54.746173     54.746173    109.492347
     -4.799800     49.676282     49.676282     99.352565
     -4.789790     43.515920     43.515920     87.031840
     -4.779780     37.377692     37.377692     74.755383
     -4.769770     32.079699     32.079699     64.159398
     -4.759760     28.021927     28.021927     56.043854
     -4.749750     25.227960     25.227960     50.455920
     -4.739740     23.476137     23.476137     46.952275
     -4.729730     22.437867     22.437867     44.875733
     -4.719720     21.775200     21.775200     43.550399
     -4.709710     21.190348     21.190348     42.380695
     -4.699700     20.445371     20.445371     40.890741
     -4.689690     19.377519     19.377519     38.755038
     -4.679680     17.928492     17.928492     35.856984
     -4.669670     16.188682     16.188682     32.377364
     -4.659660     14.437853     14.437853     28.875705
     -4.649650     13.152549     13.152549     26.305098
     -4.639640     12.954797     12.954797     25.909594
     -4.629630     14.493469     14.493469     28.986937
     -4.619620     18.271039     18.271039     36.542079
     -4.609610     24.449974     24.449974     48.899949
     -4.599600     32.694245     32.694245     65.388490
     -4.589590     42.116194     42.116194     84.232389
     -4.579580     51.390220     51.390220    102.780441
     -4.569570     59.046841     59.046841    118.093682
     -4.559560     63.880501     63.880501    127.761001
     -4.549550     65.329754     65.329754    130.659508
     -4.539540     63.668894     63.668894    127.337789
     -4.529530     59.911990     59.911990    119.823981
     -4.519520     55.452048     55.452048    110.904096
     -4.509510     51.578127     51.578127    103.156255
     -4.499499     49.066718     49.066718     98.133436
     -4.489489     48.002460     48.002460     96.004920
     -4.479479     47.872245     47.872245     95.744491
     -4.469469     47.856783     47.856783     95.713565
     -4.459459     47.174265     47.174265     94.348530
     -4.449449     45.337621     45.337621     90.675241
     -4.439439     42.253349     42.253349     84.506697
     -4.429429     38.173044     38.173044     76.346088
     -4.419419     33.564983     33.564983     67.129965
     -4.409409     28.980635     28.980635     57.961270
     -4.399399     24.957471     24.957471     49.914942
     -4.389389     21.954980     21.954980     43.909961
     -4.379379     20.298323     20.298323     40.596646
     -4.369369     20.116560     20.116560     40.233121
     -4.359359     21.294698     21.294698     42.589396
     -4.349349     23.479168     23.479168     46.958336
     -4.339339     26.163057     26.163057     52.326114
     -4.329329     28.836142     28.836142     57.672284
     -4.319319     31.144207     31.144207     62.288414
     -4.309309     32.990554     32.990554     65.981107
     -4.299299     34.536708     34.536708     69.073417
     -4.289289     36.101969     36.101969     72.203939
     -4.279279     37.998648     37.998648     75.997295
     -4.269269     40.359441     40.359441     80.718881
     -4.259259     43.017470     43.017470     86.034941
     -4.249249     45.491860     45.491860     90.983720
     -4.239239     47.106952     47.106952     94.213903
     -4.229229     47.224706     47.224706     94.449413
     -4.219219     45.508851     45.508851     91.017702
     -4.209209     42.101540     42.101540     84.203080
     -4.199199     37.615787     37.615787     75.231573
     -4.189189     32.932091     32.932091     65.864182
     -4.179179     28.890126     28.890126     57.780251
     -4.169169     26.021307     26.021307     52.042615
     -4.159159     24.440578     24.440578     48.881155
     -4.149149     23.926229     23.926229     47.852457
     -4.139139     24.122479     24.122479     48.244959
     -4.129129     24.750901     24.750901     49.501803
     -4.119119     25.728051     25.728051     51.456103
     -4.109109     27.140320     27.140320     54.280641
     -4.099099     29.095862     29.095862     58.191725
     -4.089089     31.533683     31.533683     63.067367
     -4.079079     34.099522     34.099522     68.199045
     -4.069069     36.177054     36.177054     72.354108
     -4.059059     37.088420     37.088420     74.176840
     -4.049049     36.381347     36.381347     72.762693
     -4.039039     34.058746     34.058746     68.117492
     -4.029029     30.626606     30.626606     61.253212
     -4.019019     26.932017     26.932017     53.864034
     -4.009009     23.876227     23.876227     47.752454
     -3.998999     22.145752     22.145752     44.291505
     -3.988989     22.075223     22.075223     44.150447
     -3.978979     23.666592     23.666592     47.333183
     -3.968969     26.704351     26.704351     53.408703
     -3.958959     30.877554     30.877554     61.755107
     -3.948949     35.852862     35.852862     71.705723
     -3.938939     41.300946     41.300946     82.601891
     -3.928929     46.912561     46.912561     93.825121
     -3.918919     52.428969     52.428969    104.857938
     -3.908909     57.672948     57.672948    115.345895
     -3.898899     62.541539     62.541539    125.083078
     -3.888889     66.936411     66.936411    133.872822
     -3.878879     70.654136     70.654136    141.308272
     -3.868869     73.302299     73.302299    146.604598
     -3.858859     74.313774     74.313774    148.627548
     -3.848849     73.090204     73.090204    146.180408
     -3.838839     69.236238     69.236238    138.472477
     -3.828829     62.786825     62.786825    125.573650
     -3.818819     54.316770     54.316770    108.633540
     -3.808809     44.866594     44.866594     89.733187
     -3.798799     35.699817     35.699817     71.399635
     -3.788789     27.980515     27.980515     55.961031
     -3.778779     22.488187     22.488187     44.976374
     -3.768769     19.461024     19.461024     38.922048
     -3.758759     18.600789     18.600789     37.201578
     -3.748749     19.216317     19.216317     38.432633
     -3.738739     20.449681     20.449681     40.899361
     -3.728729     21.520990     21.520990     43.041979
     -3.718719     21.934500     21.934500     43.869000
     -3.708709     21.601042     21.601042     43.202084
     -3.698699     20.847317     20.847317     41.694633
     -3.688689     20.303905     20.303905     40.607811
     -3.678679     20.692803     20.692803     41.385605
     -3.668669     22.568552     22.568552     45.137104
     -3.658659     26.093648     26.093648     52.187295
     -3.648649     30.932237     30.932237     61.864474
     -3.638639     36.313389     36.313389     72.626779
     -3.628629     41.250362     41.250362     82.500723
     -3.618619     44.833174     44.833174     89.666347
     -3.608609     46.478252     46.478252     92.956503
     -3.598599     46.044583     46.044583     92.089167
     -3.588589     43.796056     43.796056     87.592112
     -3.578579     40.258702     40.258702     80.517404
     -3.568569     36.048399     36.048399     72.096798
     -3.558559     31.724963     31.724963     63.449927
     -3.548549     27.693298     27.693298     55.386596
     -3.538539     24.153377     24.153377     48.306755
     -3.528529     21.102432     21.102432     42.204864
     -3.518519     18.393819     18.393819     36.787638
     -3.508509     15.840852     15.840852     31.681703
     -3.498498     13.328307     13.328307     26.656613
     -3.488488     10.883662     10.883662     21.767324
     -3.478478      8.678110      8.678110     17.356220
     -3.468468      6.962728      6.962728     13.925456
     -3.458458      5.972933      5.972933     11.945866
     -3.448448      5.839471      5.839471     11.678942
     -3.438438      6.532285      6.532285     13.064570
     -3.428428      7.850183      7.850183     15.700365
     -3.418418      9.461697      9.461697     18.923395
     -3.408408     10.994801     10.994801     21.989602
     -3.398398     12.156872     12.156872     24.313744
     -3.388388     12.845490     12.845490     25.690979
     -3.378378     13.202014     13.202014     26.404028
     -3.368368     13.577595     13.577595     27.155190
     -3.358358     14.420273     14.420273     28.840545
     -3.348348     16.127872     16.127872     32.255743
     -3.338338     18.920181     18.920181     37.840363
     -3.328328     22.762521     22.762521     45.525043
     -3.318318     27.343396     27.343396     54.686793
     -3.308308     32.098268     32.098268     64.196536
     -3.298298     36.284035     36.284035     72.568070
     -3.288288     39.119982     39.119982     78.239965
     -3.278278     39.991104     39.991104     79.982208
     -3.268268     38.659067     38.659067     77.318134
     -3.258258     35.384051     35.384051     70.768102
     -3.248248     30.874229     30.874229     61.748459
     -3.238238     26.057315     26.057315     52.114630
     -3.228228     21.765662     21.765662     43.531323
     -3.218218     18.477673     18.477673     36.955346
     -3.208208     16.229174     16.229174     32.458347
     -3.198198     14.719152     14.719152     29.438305
     -3.188188     13.540666     13.540666     27.081332
     -3.178178     12.420362     12.420362     24.840723
     -3.168168     11.365069     11.365069     22.730138
     -3.158158     10.670726     10.670726     21.341453
     -3.148148     10.810313     10.810313     21.620627
     -3.138138     12.254771     12.254771     24.509541
     -3.128128     15.288137     15.288137     30.576275
     -3.118118     19.867847     19.867847     39.735694
     -3.108108     25.567596     25.567596     51.135193
     -3.098098     31.625932     31.625932     63.251863
     -3.088088     37.101368     37.101368     74.202736
     -3.078078     41.100723     41.100723     82.201446
     -3.068068     43.012177     43.012177     86.024354
     -3.058058     42.659610     42.659610     85.319220
     -3.048048     40.316672     40.316672     80.633343
     -3.038038     36.575025     36.575025     73.150049
     -3.028028     32.126182     32.126182     64.252365
     -3.018018     27.555219     27.555219     55.110437
     -3.008008     23.233272     23.233272     46.466544
     -2.997998     19.339048     19.339048     38.678097
     -2.987988     15.970794     15.970794     31.941587
     -2.977978     13.269813     13.269813     26.539625
     -2.967968     11.483859     11.483859     22.967718
     -2.957958     10.940632     10.940632     21.881263
     -2.947948     11.947432     11.947432     23.894864
     -2.937938     14.659942     14.659942     29.319883
     -2.927928     18.968614     18.968614     37.937227
     -2.917918     24.444959     24.444959     48.889917
     -2.907908     30.377381     30.377381     60.754762
     -2.897898     35.903975     35.903975     71.807951
     -2.887888     40.215542     40.215542     80.431084
     -2.877878     42.766195     42.766195     85.532391
     -2.867868     43.412110     43.412110     86.824220
     -2.857858     42.418044     42.418044     84.836088
     -2.847848     40.324083     40.324083     80.648165
     -2.837838     37.727696     37.727696     75.455391
     -2.827828     35.075851     35.075851     70.151702
     -2.817818     32.555962     32.555962     65.111925
     -2.807808     30.124242     30.124242     60.248484
     -2.797798     27.641037     27.641037     55.282074
     -2.787788     25.031118     25.031118     50.062236
     -2.777778     22.380010     22.380010     44.760020
     -2.767768     19.918573     19.918573     39.837146
     -2.757758     17.914124     17.914124     35.828247
     -2.747748     16.540016     16.540016     33.080032
     -2.737738     15.805700     15.805700     31.611401
     -2.727728     15.589145     15.589145     31.178291
     -2.717718     15.746736     15.746736     31.493473
     -2.707708     16.223858     16.223858     32.447716
     -2.697698     17.087146     17.087146     34.174293
     -2.687688     18.451196     18.451196     36.902392
     -2.677678     20.346401     20.346401     40.692802
     -2.667668     22.620789     22.620789     45.241578
     -2.657658     24.952718     24.952718     49.905437
     -2.647648     26.979891     26.979891     53.959783
     -2.637638     28.470156     28.470156     56.940311
     -2.627628     29.427437     29.427437     58.854874
     -2.617618     30.066655     30.066655     60.133309
     -2.607608     30.676987     30.676987     61.353974
     -2.597598     31.461745     31.461745     62.923490
     -2.587588     32.446732     32.446732     64.893464
     -2.577578     33.490066     33.490066     66.980133
     -2.567568     34.356211     34.356211     68.712423
     -2.557558     34.790781     34.790781     69.581562
     -2.547548     34.563436     34.563436     69.126872
     -2.537538     33.496113     33.496113     66.992225
     -2.527528     31.511995     31.511995     63.023990
     -2.517518     28.710427     28.710427     57.420854
     -2.507508     25.425279     25.425279     50.850558
     -2.497497     22.206624     22.206624     44.413247
     -2.487487     19.698396     19.698396     39.396791
     -2.477477     18.446080     18.446080     36.892161
     -2.467467     18.715422     18.715422     37.430844
     -2.457457     20.406081     20.406081     40.812163
     -2.447447     23.102913     23.102913     46.205826
     -2.437437     26.244944     26.244944     52.489888
     -2.427427     29.337908     29.337908     58.675815
     -2.417417     32.114745     32.114745     64.229490
     -2.407407     34.570885     34.570885     69.141770
     -2.397397     36.859600     36.859600     73.719201
     -2.387387     39.101308     39.101308     78.202616
     -2.377377     41.205927     41.205927     82.411854
     -2.367367     42.805568     42.805568     85.611137
     -2.357357     43.344509     43.344509     86.689017
     -2.347347     42.296874     42.296874     84.593747
     -2.337337     39.416583     39.416583     78.833165
     -2.327327     34.903339     34.903339     69.806679
     -2.317317     29.406069     29.406069     58.812137
     -2.307307     23.862073     23.862073     47.724146
     -2.297297     19.243549     19.243549     38.487097
     -2.287287     16.313592     16.313592     32.627184
     -2.277277     15.471770     15.471770     30.943540
     -2.267267     16.717693     16.717693     33.435386
     -2.257257     19.713629     19.713629     39.427258
     -2.247247     23.903707     23.903707     47.807415
     -2.237237     28.645946     28.645946     57.291892
     -2.227227     33.322863     33.322863     66.645726
     -2.217217     37.410118     37.410118     74.820237
     -2.207207     40.500223     40.500223     81.000445
     -2.197197     42.298311     42.298311     84.596622
     -2.187187     42.619930     42.619930     85.239860
     -2.177177     41.414467     41.414467     82.828935
     -2.167167     38.809985     38.809985     77.619970
     -2.157157     35.142222     35.142222     70.284443
     -2.147147     30.919934     30.919934     61.839868
     -2.137137     26.707310     26.707310     53.414620
     -2.127127     22.958866     22.958866     45.917733
     -2.117117     19.884559     19.884559     39.769118
     -2.107107     17.417605     17.417605     34.835210
     -2.097097     15.302883     15.302883     30.605766
     -2.087087     13.255582     13.255582     26.511165
     -2.077077     11.104183     11.104183     22.208367
     -2.067067      8.850419      8.850419     17.700838
     -2.057057      6.633901      6.633901     13.267802
     -2.047047      4.641094      4.641094      9.282187
     -2.037037      3.016617      3.016617      6.033234
     -2.027027      1.817056      1.817056      3.634112
     -2.017017      1.014003      1.014003      2.028006
     -2.007007      0.527884      0.527884      1.055768
     -1.996997      0.267971      0.267971      0.535941
     -1.986987      0.162569      0.162569      0.325137
     -1.976977      0.175673      0.175673      0.351347
     -1.966967      0.313858      0.313858      0.627716
     -1.956957      0.627514      0.627514      1.255027
     -1.946947      1.206316      1.206316      2.412631
     -1.936937      2.164499      2.164499      4.328998
     -1.926927      3.611452      3.611452      7.222904
     -1.916917      5.609348      5.609348     11.218695
     -1.906907      8.129828      8.129828     16.259655
     -1.896897     11.029780     11.029780     22.059560
     -1.886887     14.064493     14.064493     28.128986
     -1.876877     16.942732     16.942732     33.885464
     -1.866867     19.408423     19.408423     38.816847
     -1.856857     21.318588     21.318588     42.637176
     -1.846847     22.684755     22.684755     45.369509
     -1.836837     23.656060     23.656060     47.312121
     -1.826827     24.442449     24.442449     48.884897
     -1.816817     25.201172     25.201172     50.402344
     -1.806807     25.932327     25.932327     51.864654
     -1.796797     26.437205     26.437205     52.874410
     -1.786787     26.373799     26.373799     52.747599
     -1.776777     25.397533     25.397533     50.795066
     -1.766767     23.325193     23.325193     46.650387
     -1.756757     20.240334     20.240334     40.480668
     -1.746747     16.486785     16.486785     32.973570
     -1.736737     12.557616     12.557616     25.115231
     -1.726727      8.940483      8.940483     17.880965
     -1.716717      5.994063      5.994063     11.988127
     -1.706707      3.901127      3.901127      7.802255
     -1.696697      2.696007      2.696007      5.392013
     -1.686687      2.328141      2.328141      4.656282
     -1.676677      2.715316      2.715316      5.430632
     -1.666667      3.757771      3.757771      7.515541
     -1.656657      5.314009      5.314009     10.628019
     -1.646647      7.165466      7.165466     14.330931
     -1.636637      9.007820      9.007820     18.015640
     -1.626627     10.495554     10.495554     20.991108
