# EIG2DOS: Utility for SIESTA to obtain the electronic density of states
#  E. Artacho, Apr 1999, A. Garcia, Apr 2012
#  Nick R. Papior, Feb 2017
# ------------------------------------------
# Eigenvalues calculated from a non-polarized calculation
# Eigenvalues read from siesta.EIG
# Kpoint weights read from siesta.KP
# Using smearing parameter:   0.0500
# Using 1000 points in the energy range
# Selected bands: 1 to: 2981
# Emin, Emax in file for selected band(s):    -27.0410183    218.3096470
# Nbands, Nspin, Nk   =   2981     1     1
# E_F                 =    -4.3028 eV --> (shifted to ZERO)
# Broadening          =     0.0500 eV
#
#        E            N(up)  (=)   N(down)         Ntot
     -5.000000     45.988045     45.988045     91.976090
     -4.989990     48.171882     48.171882     96.343764
     -4.979980     48.999162     48.999162     97.998325
     -4.969970     48.522031     48.522031     97.044061
     -4.959960     46.900175     46.900175     93.800351
     -4.949950     44.361761     44.361761     88.723522
     -4.939940     41.188266     41.188266     82.376531
     -4.929930     37.724840     37.724840     75.449680
     -4.919920     34.402801     34.402801     68.805602
     -4.909910     31.750491     31.750491     63.500983
     -4.899900     30.362354     30.362354     60.724708
     -4.889890     30.797907     30.797907     61.595814
     -4.879880     33.404715     33.404715     66.809431
     -4.869870     38.108231     38.108231     76.216461
     -4.859860     44.266165     44.266165     88.532329
     -4.849850     50.700979     50.700979    101.401959
     -4.839840     55.965245     55.965245    111.930490
     -4.829830     58.774747     58.774747    117.549494
     -4.819820     58.433137     58.433137    116.866274
     -4.809810     55.050671     55.050671    110.101342
     -4.799800     49.455717     49.455717     98.911433
     -4.789790     42.855554     42.855554     85.711109
     -4.779780     36.421343     36.421343     72.842687
     -4.769770     30.980275     30.980275     61.960549
     -4.759760     26.906514     26.906514     53.813028
     -4.749750     24.186321     24.186321     48.372641
     -4.739740     22.565848     22.565848     45.131695
     -4.729730     21.693979     21.693979     43.387958
     -4.719720     21.216792     21.216792     42.433585
     -4.709710     20.823058     20.823058     41.646116
     -4.699700     20.261590     20.261590     40.523180
     -4.689690     19.354333     19.354333     38.708665
     -4.679680     18.021740     18.021740     36.043480
     -4.669670     16.322748     16.322748     32.645496
     -4.659660     14.494097     14.494097     28.988194
     -4.649650     12.961708     12.961708     25.923416
     -4.639640     12.298397     12.298397     24.596794
     -4.629630     13.117016     13.117016     26.234032
     -4.619620     15.909043     15.909043     31.818087
     -4.609610     20.860646     20.860646     41.721292
     -4.599600     27.699920     27.699920     55.399839
     -4.589590     35.643857     35.643857     71.287713
     -4.579580     43.504742     43.504742     87.009483
     -4.569570     49.967707     49.967707     99.935414
     -4.559560     53.972270     53.972270    107.944540
     -4.549550     55.060309     55.060309    110.120618
     -4.539540     53.540152     53.540152    107.080304
     -4.529530     50.382230     50.382230    100.764460
     -4.519520     46.878267     46.878267     93.756535
     -4.509510     44.201355     44.201355     88.402710
     -4.499499     43.042676     43.042676     86.085351
     -4.489489     43.456047     43.456047     86.912095
     -4.479479     44.943004     44.943004     89.886007
     -4.469469     46.711275     46.711275     93.422550
     -4.459459     47.982996     47.982996     95.965992
     -4.449449     48.232563     48.232563     96.465126
     -4.439439     47.285235     47.285235     94.570470
     -4.429429     45.276792     45.276792     90.553583
     -4.419419     42.530307     42.530307     85.060613
     -4.409409     39.426290     39.426290     78.852580
     -4.399399     36.321691     36.321691     72.643381
     -4.389389     33.526692     33.526692     67.053384
     -4.379379     31.306342     31.306342     62.612685
     -4.369369     29.864965     29.864965     59.729931
     -4.359359     29.300011     29.300011     58.600022
     -4.349349     29.553825     29.553825     59.107651
     -4.339339     30.410674     30.410674     60.821347
     -4.329329     31.564413     31.564413     63.128826
     -4.319319     32.735561     32.735561     65.471121
     -4.309309     33.781175     33.781175     67.562350
     -4.299299     34.742363     34.742363     69.484726
     -4.289289     35.807430     35.807430     71.614859
     -4.279279     37.207472     37.207472     74.414944
     -4.269269     39.083891     39.083891     78.167782
     -4.259259     41.372706     41.372706     82.745413
     -4.249249     43.749181     43.749181     87.498362
     -4.239239     45.669600     45.669600     91.339201
     -4.229229     46.522546     46.522546     93.045092
     -4.219219     45.852493     45.852493     91.704987
     -4.209209     43.564502     43.564502     87.129003
     -4.199199     40.002897     40.002897     80.005795
     -4.189189     35.847358     35.847358     71.694716
     -4.179179     31.866401     31.866401     63.732801
     -4.169169     28.649320     28.649320     57.298639
     -4.159159     26.447395     26.447395     52.894790
     -4.149149     25.188648     25.188648     50.377297
     -4.139139     24.634195     24.634195     49.268390
     -4.129129     24.576671     24.576671     49.153341
     -4.119119     24.972039     24.972039     49.944078
     -4.109109     25.938300     25.938300     51.876601
     -4.099099     27.623040     27.623040     55.246080
     -4.089089     30.009633     30.009633     60.019266
     -4.079079     32.773160     32.773160     65.546319
     -4.069069     35.286671     35.286671     70.573342
     -4.059059     36.808050     36.808050     73.616100
     -4.049049     36.775263     36.775263     73.550526
     -4.039039     35.063599     35.063599     70.127198
     -4.029029     32.067024     32.067024     64.134049
     -4.019019     28.560084     28.560084     57.120168
     -4.009009     25.418504     25.418504     50.837007
     -3.998999     23.345938     23.345938     46.691876
     -3.988989     22.729277     22.729277     45.458555
     -3.978979     23.651139     23.651139     47.302279
     -3.968969     25.995854     25.995854     51.991708
     -3.958959     29.554600     29.554600     59.109201
     -3.948949     34.074683     34.074683     68.149365
     -3.938939     39.264064     39.264064     78.528128
     -3.928929     44.799414     44.799414     89.598827
     -3.918919     50.369322     50.369322    100.738643
     -3.908909     55.735560     55.735560    111.471121
     -3.898899     60.760052     60.760052    121.520103
     -3.888889     65.355531     65.355531    130.711063
     -3.878879     69.369105     69.369105    138.738210
     -3.868869     72.464790     72.464790    144.929581
     -3.858859     74.093402     74.093402    148.186804
     -3.848849     73.605617     73.605617    147.211234
     -3.838839     70.489077     70.489077    140.978153
     -3.828829     64.633109     64.633109    129.266219
     -3.818819     56.491899     56.491899    112.983798
     -3.808809     47.053409     47.053409     94.106817
     -3.798799     37.610225     37.610225     75.220450
     -3.788789     29.419591     29.419591     58.839181
     -3.778779     23.382948     23.382948     46.765896
     -3.768769     19.853495     19.853495     39.706990
     -3.758759     18.616536     18.616536     37.233072
     -3.748749     19.022203     19.022203     38.044406
     -3.738739     20.211415     20.211415     40.422830
     -3.728729     21.367078     21.367078     42.734156
     -3.718719     21.931114     21.931114     43.862228
     -3.708709     21.741600     21.741600     43.483199
     -3.698699     21.059349     21.059349     42.118698
     -3.688689     20.472863     20.472863     40.945725
     -3.678679     20.698020     20.698020     41.396039
     -3.668669     22.322172     22.322172     44.644344
     -3.658659     25.570959     25.570959     51.141917
     -3.648649     30.183401     30.183401     60.366801
     -3.638639     35.452395     35.452395     70.904791
     -3.628629     40.425331     40.425331     80.850661
     -3.618619     44.189011     44.189011     88.378021
     -3.608609     46.124348     46.124348     92.248697
     -3.598599     46.036036     46.036036     92.072073
     -3.588589     44.129914     44.129914     88.259827
     -3.578579     40.881740     40.881740     81.763479
     -3.568569     36.871995     36.871995     73.743990
     -3.558559     32.644076     32.644076     65.288152
     -3.548549     28.607046     28.607046     57.214092
     -3.538539     24.983352     24.983352     49.966704
     -3.528529     21.803713     21.803713     43.607426
     -3.518519     18.955304     18.955304     37.910609
     -3.508509     16.275901     16.275901     32.551801
     -3.498498     13.660959     13.660959     27.321919
     -3.488488     11.136849     11.136849     22.273698
     -3.478478      8.867807      8.867807     17.735615
     -3.468468      7.098069      7.098069     14.196138
     -3.458458      6.059542      6.059542     12.119085
     -3.448448      5.882881      5.882881     11.765763
     -3.438438      6.539513      6.539513     13.079026
     -3.428428      7.828989      7.828989     15.657979
     -3.418418      9.417984      9.417984     18.835968
     -3.408408     10.929107     10.929107     21.858214
     -3.398398     12.061396     12.061396     24.122792
     -3.388388     12.703356     12.703356     25.406711
     -3.378378     12.990081     12.990081     25.980162
     -3.368368     13.272653     13.272653     26.545306
     -3.358358     14.006568     14.006568     28.013136
     -3.348348     15.603018     15.603018     31.206036
     -3.338338     18.297629     18.297629     36.595258
     -3.328328     22.071158     22.071158     44.142315
     -3.318318     26.625893     26.625893     53.251785
     -3.308308     31.407307     31.407307     62.814614
     -3.298298     35.670780     35.670780     71.341561
     -3.288288     38.607087     38.607087     77.214174
     -3.278278     39.528347     39.528347     79.056694
     -3.268268     38.073095     38.073095     76.146189
     -3.258258     34.347382     34.347382     68.694764
     -3.248248     28.922512     28.922512     57.845023
     -3.238238     22.671594     22.671594     45.343188
     -3.228228     16.510315     16.510315     33.020630
     -3.218218     11.154575     11.154575     22.309150
     -3.208208      6.988693      6.988693     13.977385
     -3.198198      4.071619      4.071619      8.143237
     -3.188188      2.242815      2.242815      4.485629
     -3.178178      1.260828      1.260828      2.521656
     -3.168168      0.919511      0.919511      1.839021
     -3.158158      1.117104      1.117104      2.234208
     -3.148148      1.877579      1.877579      3.755158
     -3.138138      3.331773      3.331773      6.663546
     -3.128128      5.663722      5.663722     11.327444
     -3.118118      9.027463      9.027463     18.054925
     -3.108108     13.449188     13.449188     26.898376
     -3.098098     18.745786     18.745786     37.491571
     -3.088088     24.500177     24.500177     49.000355
     -3.078078     30.121851     30.121851     60.243702
     -3.068068     34.984435     34.984435     69.968869
     -3.058058     38.587810     38.587810     77.175621
     -3.048048     40.670424     40.670424     81.340847
     -3.038038     41.220579     41.220579     82.441159
     -3.028028     40.395923     40.395923     80.791846
     -3.018018     38.418239     38.418239     76.836478
     -3.008008     35.521676     35.521676     71.043351
     -2.997998     31.984859     31.984859     63.969718
     -2.987988     28.206004     28.206004     56.412009
     -2.977978     24.740176     24.740176     49.480352
     -2.967968     22.239338     22.239338     44.478676
     -2.957958     21.300298     21.300298     42.600596
     -2.947948     22.284681     22.284681     44.569363
     -2.937938     25.190696     25.190696     50.381391
     -2.927928     29.626932     29.626932     59.253864
     -2.917918     34.891169     34.891169     69.782337
     -2.907908     40.121977     40.121977     80.243953
     -2.897898     44.479492     44.479492     88.958983
     -2.887888     47.315996     47.315996     94.631993
     -2.877878     48.303353     48.303353     96.606707
     -2.867868     47.487971     47.487971     94.975942
     -2.857858     45.252048     45.252048     90.504096
     -2.847848     42.181825     42.181825     84.363650
     -2.837838     38.878188     38.878188     77.756376
     -2.827828     35.775782     35.775782     71.551564
     -2.817818     33.042095     33.042095     66.084191
     -2.807808     30.597120     30.597120     61.194240
     -2.797798     28.238469     28.238469     56.476938
     -2.787788     25.804911     25.804911     51.609823
     -2.777778     23.292959     23.292959     46.585918
     -2.767768     20.868717     20.868717     41.737435
     -2.757758     18.776976     18.776976     37.553952
     -2.747748     17.208179     17.208179     34.416357
     -2.737738     16.206971     16.206971     32.413941
     -2.727728     15.678434     15.678434     31.356867
     -2.717718     15.485090     15.485090     30.970180
     -2.707708     15.567797     15.567797     31.135595
     -2.697698     16.005674     16.005674     32.011349
     -2.687688     16.968096     16.968096     33.936192
     -2.677678     18.583275     18.583275     37.166551
     -2.667668     20.807055     20.807055     41.614110
     -2.657658     23.381794     23.381794     46.763589
     -2.647648     25.921305     25.921305     51.842610
     -2.637638     28.076756     28.076756     56.153513
     -2.627628     29.684358     29.684358     59.368716
     -2.617618     30.806907     30.806907     61.613814
     -2.607608     31.651594     31.651594     63.303189
     -2.597598     32.425758     32.425758     64.851516
     -2.587588     33.223219     33.223219     66.446438
     -2.577578     33.996973     33.996973     67.993947
     -2.567568     34.604419     34.604419     69.208839
     -2.557558     34.868269     34.868269     69.736537
     -2.547548     34.611199     34.611199     69.222397
     -2.537538     33.672041     33.672041     67.344081
     -2.527528     31.942162     31.942162     63.884323
     -2.517518     29.440625     29.440625     58.881250
     -2.507508     26.394839     26.394839     52.789679
     -2.497497     23.260409     23.260409     46.520819
     -2.487487     20.634118     20.634118     41.268237
     -2.477477     19.076073     19.076073     38.152147
     -2.467467     18.916651     18.916651     37.833301
     -2.457457     20.141013     20.141013     40.282025
     -2.447447     22.409432     22.409432     44.818865
     -2.437437     25.206686     25.206686     50.413372
     -2.427427     28.052200     28.052200     56.104400
     -2.417417     30.673314     30.673314     61.346628
     -2.407407     33.060431     33.060431     66.120861
     -2.397397     35.378358     35.378358     70.756715
     -2.387387     37.778065     37.778065     75.556130
     -2.377377     40.204390     40.204390     80.408781
     -2.367367     42.302392     42.302392     84.604784
     -2.357357     43.482458     43.482458     86.964917
     -2.347347     43.129667     43.129667     86.259334
     -2.337337     40.870529     40.870529     81.741059
     -2.327327     36.776810     36.776810     73.553620
     -2.317317     31.411649     31.411649     62.823298
     -2.307307     25.696452     25.696452     51.392904
     -2.297297     20.658091     20.658091     41.316183
     -2.287287     17.160638     17.160638     34.321277
     -2.277277     15.715199     15.715199     31.430398
     -2.267267     16.412359     16.412359     32.824719
     -2.257257     18.968919     18.968919     37.937838
     -2.247247     22.848764     22.848764     45.697527
     -2.237237     27.409295     27.409295     54.818590
     -2.227227     32.029993     32.029993     64.059985
     -2.217217     36.192151     36.192151     72.384301
     -2.207207     39.499717     39.499717     78.999434
     -2.197197     41.658955     41.658955     83.317910
     -2.187187     42.456592     42.456592     84.913183
     -2.177177     41.774144     41.774144     83.548287
     -2.167167     39.643980     39.643980     79.287960
     -2.157157     36.308376     36.308376     72.616752
     -2.147147     32.220406     32.220406     64.440811
     -2.137137     27.949100     27.949100     55.898200
     -2.127127     24.011409     24.011409     48.022819
     -2.117117     20.709170     20.709170     41.418340
     -2.107107     18.057647     18.057647     36.115293
     -2.097097     15.843316     15.843316     31.686632
     -2.087087     13.774567     13.774567     27.549135
     -2.077077     11.640025     11.640025     23.280051
     -2.067067      9.395364      9.395364     18.790729
     -2.057057      7.150643      7.150643     14.301285
     -2.047047      5.087843      5.087843     10.175686
     -2.037037      3.366592      3.366592      6.733183
     -2.027027      2.065491      2.065491      4.130983
     -2.017017      1.174120      1.174120      2.348239
     -2.007007      0.621755      0.621755      1.243510
     -1.996997      0.318014      0.318014      0.636028
     -1.986987      0.186535      0.186535      0.373069
     -1.976977      0.185153      0.185153      0.370306
     -1.966967      0.314871      0.314871      0.629741
     -1.956957      0.621655      0.621655      1.243311
     -1.946947      1.191510      1.191510      2.383021
     -1.936937      2.135020      2.135020      4.270040
     -1.926927      3.557278      3.557278      7.114556
     -1.916917      5.514990      5.514990     11.029980
     -1.906907      7.972482      7.972482     15.944965
     -1.896897     10.775811     10.775811     21.551622
     -1.886887     13.662104     13.662104     27.324208
     -1.876877     16.308165     16.308165     32.616330
     -1.866867     18.405091     18.405091     36.810181
     -1.856857     19.734693     19.734693     39.469387
     -1.846847     20.223997     20.223997     40.447993
     -1.836837     19.961993     19.961993     39.923987
     -1.826827     19.171691     19.171691     38.343382
     -1.816817     18.139491     18.139491     36.278981
     -1.806807     17.117786     17.117786     34.235572
     -1.796797     16.234289     16.234289     32.468578
     -1.786787     15.450302     15.450302     30.900603
     -1.776777     14.595095     14.595095     29.190190
     -1.766767     13.465697     13.465697     26.931395
     -1.756757     11.943399     11.943399     23.886797
     -1.746747     10.068125     10.068125     20.136249
     -1.736737      8.038469      8.038469     16.076938
     -1.726727      6.149354      6.149354     12.298709
     -1.716717      4.709584      4.709584      9.419169
     -1.706707      3.979372      3.979372      7.958743
     -1.696697      4.140527      4.140527      8.281053
     -1.686687      5.283623      5.283623     10.567245
     -1.676677      7.388459      7.388459     14.776918
     -1.666667     10.290539     10.290539     20.581077
     -1.656657     13.653024     13.653024     27.306047
     -1.646647     16.979437     16.979437     33.958875
     -1.636637     19.692866     19.692866     39.385732
     -1.626627     21.274849     21.274849     42.549699
