# EIG2DOS: Utility for SIESTA to obtain the electronic density of states
#  E. Artacho, Apr 1999, A. Garcia, Apr 2012
#  Nick R. Papior, Feb 2017
# ------------------------------------------
# Eigenvalues calculated from a non-polarized calculation
# Eigenvalues read from siesta.EIG
# Kpoint weights read from siesta.KP
# Using smearing parameter:   0.0500
# Using 1000 points in the energy range
# Selected bands: 1 to: 2981
# Emin, Emax in file for selected band(s):    -27.3366470    218.4100440
# Nbands, Nspin, Nk   =   2981     1     1
# E_F                 =    -4.1874 eV --> (shifted to ZERO)
# Broadening          =     0.0500 eV
#
#        E            N(up)  (=)   N(down)         Ntot
     -5.000000     31.267244     31.267244     62.534489
     -4.989990     36.488119     36.488119     72.976238
     -4.979980     41.493267     41.493267     82.986534
     -4.969970     45.410354     45.410354     90.820708
     -4.959960     47.485885     47.485885     94.971769
     -4.949950     47.336941     47.336941     94.673882
     -4.939940     45.084416     45.084416     90.168831
     -4.929930     41.327335     41.327335     82.654670
     -4.919920     36.991052     36.991052     73.982104
     -4.909910     33.120114     33.120114     66.240228
     -4.899900     30.674237     30.674237     61.348475
     -4.889890     30.349041     30.349041     60.698083
     -4.879880     32.424089     32.424089     64.848178
     -4.869870     36.657735     36.657735     73.315470
     -4.859860     42.278387     42.278387     84.556775
     -4.849850     48.122703     48.122703     96.245407
     -4.839840     52.921730     52.921730    105.843460
     -4.829830     55.658534     55.658534    111.317068
     -4.819820     55.866462     55.866462    111.732924
     -4.809810     53.746571     53.746571    107.493142
     -4.799800     50.056310     50.056310    100.112621
     -4.789790     45.819525     45.819525     91.639050
     -4.779780     41.978199     41.978199     83.956398
     -4.769770     39.117454     39.117454     78.234908
     -4.759760     37.350629     37.350629     74.701259
     -4.749750     36.379796     36.379796     72.759592
     -4.739740     35.681801     35.681801     71.363602
     -4.729730     34.732433     34.732433     69.464865
     -4.719720     33.180337     33.180337     66.360675
     -4.709710     30.916258     30.916258     61.832516
     -4.699700     28.038561     28.038561     56.077121
     -4.689690     24.766134     24.766134     49.532269
     -4.679680     21.365995     21.365995     42.731990
     -4.669670     18.135961     18.135961     36.271922
     -4.659660     15.432663     15.432663     30.865325
     -4.649650     13.697060     13.697060     27.394121
     -4.639640     13.426358     13.426358     26.852716
     -4.629630     15.069731     15.069731     30.139463
     -4.619620     18.866746     18.866746     37.733491
     -4.609610     24.683773     24.683773     49.367545
     -4.599600     31.923408     31.923408     63.846816
     -4.589590     39.574264     39.574264     79.148528
     -4.579580     46.425417     46.425417     92.850833
     -4.569570     51.398335     51.398335    102.796670
     -4.559560     53.880551     53.880551    107.761101
     -4.549550     53.921972     53.921972    107.843943
     -4.539540     52.200105     52.200105    104.400210
     -4.529530     49.757785     49.757785     99.515571
     -4.519520     47.617253     47.617253     95.234506
     -4.509510     46.426574     46.426574     92.853148
     -4.499499     46.274899     46.274899     92.549798
     -4.489489     46.735014     46.735014     93.470027
     -4.479479     47.093999     47.093999     94.187997
     -4.469469     46.659997     46.659997     93.319993
     -4.459459     45.015134     45.015134     90.030268
     -4.449449     42.125072     42.125072     84.250143
     -4.439439     38.290865     38.290865     76.581731
     -4.429429     34.000044     34.000044     68.000088
     -4.419419     29.766220     29.766220     59.532440
     -4.409409     26.027221     26.027221     52.054442
     -4.399399     23.117351     23.117351     46.234701
     -4.389389     21.277535     21.277535     42.555070
     -4.379379     20.652546     20.652546     41.305092
     -4.369369     21.254303     21.254303     42.508606
     -4.359359     22.917893     22.917893     45.835785
     -4.349349     25.302263     25.302263     50.604526
     -4.339339     27.968655     27.968655     55.937310
     -4.329329     30.519945     30.519945     61.039889
     -4.319319     32.739402     32.739402     65.478803
     -4.309309     34.658425     34.658425     69.316850
     -4.299299     36.513298     36.513298     73.026596
     -4.289289     38.601011     38.601011     77.202021
     -4.279279     41.088680     41.088680     82.177360
     -4.269269     43.854814     43.854814     87.709629
     -4.259259     46.437911     46.437911     92.875821
     -4.249249     48.136093     48.136093     96.272187
     -4.239239     48.242880     48.242880     96.485760
     -4.229229     46.336062     46.336062     92.672123
     -4.219219     42.494162     42.494162     84.988323
     -4.209209     37.331571     37.331571     74.663141
     -4.199199     31.822281     31.822281     63.644562
     -4.189189     26.984148     26.984148     53.968297
     -4.179179     23.562279     23.562279     47.124558
     -4.169169     21.844038     21.844038     43.688077
     -4.159159     21.667347     21.667347     43.334695
     -4.149149     22.592076     22.592076     45.184152
     -4.139139     24.138409     24.138409     48.276819
     -4.129129     25.980063     25.980063     51.960125
     -4.119119     28.011442     28.011442     56.022884
     -4.109109     30.268708     30.268708     60.537415
     -4.099099     32.753487     32.753487     65.506973
     -4.089089     35.260057     35.260057     70.520114
     -4.079079     37.315694     37.315694     74.631387
     -4.069069     38.293893     38.293893     76.587786
     -4.059059     37.666537     37.666537     75.333074
     -4.049049     35.273951     35.273951     70.547902
     -4.039039     31.468836     31.468836     62.937673
     -4.029029     27.052333     27.052333     54.104666
     -4.019019     23.031091     23.031091     46.062183
     -4.009009     20.313177     20.313177     40.626355
     -3.998999     19.476166     19.476166     38.952332
     -3.988989     20.683916     20.683916     41.367832
     -3.978979     23.744920     23.744920     47.489840
     -3.968969     28.247201     28.247201     56.494402
     -3.958959     33.697393     33.697393     67.394786
     -3.948949     39.623078     39.623078     79.246157
     -3.938939     45.634703     45.634703     91.269406
     -3.928929     51.458619     51.458619    102.917238
     -3.918919     56.942679     56.942679    113.885357
     -3.908909     62.021245     62.021245    124.042490
     -3.898899     66.632118     66.632118    133.264236
     -3.888889     70.608014     70.608014    141.216027
     -3.878879     73.597724     73.597724    147.195449
     -3.868869     75.076701     75.076701    150.153402
     -3.858859     74.471546     74.471546    148.943091
     -3.848849     71.364864     71.364864    142.729728
     -3.838839     65.699795     65.699795    131.399590
     -3.828829     57.894583     57.894583    115.789166
     -3.818819     48.811244     48.811244     97.622488
     -3.808809     39.580708     39.580708     79.161417
     -3.798799     31.341383     31.341383     62.682766
     -3.788789     24.976019     24.976019     49.952039
     -3.778779     20.925575     20.925575     41.851150
     -3.768769     19.126990     19.126990     38.253980
     -3.758759     19.081212     19.081212     38.162424
     -3.748749     20.023374     20.023374     40.046748
     -3.738739     21.146183     21.146183     42.292366
     -3.728729     21.820528     21.820528     43.641057
     -3.718719     21.761057     21.761057     43.522115
     -3.708709     21.096252     21.096252     42.192504
     -3.698699     20.321268     20.321268     40.642535
     -3.688689     20.137433     20.137433     40.274865
     -3.678679     21.213626     21.213626     42.427253
     -3.668669     23.935759     23.935759     47.871519
     -3.658659     28.228536     28.228536     56.457073
     -3.648649     33.522852     33.522852     67.045704
     -3.638639     38.895111     38.895111     77.790221
     -3.628629     43.334696     43.334696     86.669392
     -3.618619     46.037108     46.037108     92.074216
     -3.608609     46.609277     46.609277     93.218555
     -3.598599     45.120318     45.120318     90.240636
     -3.588589     42.006816     42.006816     84.013631
     -3.578579     37.898953     37.898953     75.797906
     -3.568569     33.442693     33.442693     66.885386
     -3.558559     29.163962     29.163962     58.327924
     -3.548549     25.387750     25.387750     50.775501
     -3.538539     22.212595     22.212595     44.425190
     -3.528529     19.543379     19.543379     39.086759
     -3.518519     17.181044     17.181044     34.362088
     -3.508509     14.946870     14.946870     29.893740
     -3.498498     12.795822     12.795822     25.591644
     -3.488488     10.870494     10.870494     21.740987
     -3.478478      9.471085      9.471085     18.942170
     -3.468468      8.952284      8.952284     17.904568
     -3.458458      9.583913      9.583913     19.167825
     -3.448448     11.420910     11.420910     22.841820
     -3.438438     14.225840     14.225840     28.451679
     -3.428428     17.479278     17.479278     34.958556
     -3.418418     20.495190     20.495190     40.990379
     -3.408408     22.622594     22.622594     45.245188
     -3.398398     23.469588     23.469588     46.939176
     -3.388388     23.058480     23.058480     46.116960
     -3.378378     21.838205     21.838205     43.676410
     -3.368368     20.541892     20.541892     41.083783
     -3.358358     19.948884     19.948884     39.897768
     -3.348348     20.647274     20.647274     41.294548
     -3.338338     22.875536     22.875536     45.751073
     -3.328328     26.470779     26.470779     52.941558
     -3.318318     30.908001     30.908001     61.816003
     -3.308308     35.405588     35.405588     70.811176
     -3.298298     39.085658     39.085658     78.171316
     -3.288288     41.179422     41.179422     82.358844
     -3.278278     41.238211     41.238211     82.476423
     -3.268268     39.272381     39.272381     78.544763
     -3.258258     35.739620     35.739620     71.479240
     -3.248248     31.365507     31.365507     62.731014
     -3.238238     26.871591     26.871591     53.743183
     -3.228228     22.743108     22.743108     45.486215
     -3.218218     19.143858     19.143858     38.287715
     -3.208208     15.995592     15.995592     31.991185
     -3.198198     13.148082     13.148082     26.296165
     -3.188188     10.533615     10.533615     21.067230
     -3.178178      8.236020      8.236020     16.472040
     -3.168168      6.470463      6.470463     12.940926
     -3.158158      5.515668      5.515668     11.031335
     -3.148148      5.641961      5.641961     11.283922
     -3.138138      7.050961      7.050961     14.101922
     -3.128128      9.818291      9.818291     19.636582
     -3.118118     13.831765     13.831765     27.663531
     -3.108108     18.741055     18.741055     37.482111
     -3.098098     23.957493     23.957493     47.914986
     -3.088088     28.739150     28.739150     57.478300
     -3.078078     32.359253     32.359253     64.718506
     -3.068068     34.304091     34.304091     68.608182
     -3.058058     34.414820     34.414820     68.829639
     -3.048048     32.903518     32.903518     65.807036
     -3.038038     30.235192     30.235192     60.470384
     -3.028028     26.938812     26.938812     53.877624
     -3.018018     23.445866     23.445866     46.891732
     -3.008008     20.030802     20.030802     40.061605
     -2.997998     16.861480     16.861480     33.722959
     -2.987988     14.104387     14.104387     28.208773
     -2.977978     12.007647     12.007647     24.015294
     -2.967968     10.909987     10.909987     21.819973
     -2.957958     11.170383     11.170383     22.340765
     -2.947948     13.050004     13.050004     26.100008
     -2.937938     16.591908     16.591908     33.183816
     -2.927928     21.540785     21.540785     43.081570
     -2.917918     27.335024     27.335024     54.670048
     -2.907908     33.188333     33.188333     66.376666
     -2.897898     38.253763     38.253763     76.507525
     -2.887888     41.830233     41.830233     83.660467
     -2.877878     43.543770     43.543770     87.087540
     -2.867868     43.431705     43.431705     86.863409
     -2.857858     41.889129     41.889129     83.778257
     -2.847848     39.494375     39.494375     78.988750
     -2.837838     36.787264     36.787264     73.574528
     -2.827828     34.098355     34.098355     68.196709
     -2.817818     31.502355     31.502355     63.004709
     -2.807808     28.904619     28.904619     57.809238
     -2.797798     26.200721     26.200721     52.401443
     -2.787788     23.414262     23.414262     46.828524
     -2.777778     20.737077     20.737077     41.474154
     -2.767768     18.456939     18.456939     36.913879
     -2.757758     16.824566     16.824566     33.649131
     -2.747748     15.944882     15.944882     31.889764
     -2.737738     15.757733     15.757733     31.515465
     -2.727728     16.112836     16.112836     32.225673
     -2.717718     16.880912     16.880912     33.761825
     -2.707708     18.019125     18.019125     36.038251
     -2.697698     19.542619     19.542619     39.085238
     -2.687688     21.424411     21.424411     42.848822
     -2.677678     23.504331     23.504331     47.008663
     -2.667668     25.489192     25.489192     50.978385
     -2.657658     27.064861     27.064861     54.129722
     -2.647648     28.057841     28.057841     56.115682
     -2.637638     28.540510     28.540510     57.081021
     -2.627628     28.805075     28.805075     57.610149
     -2.617618     29.216072     29.216072     58.432145
     -2.607608     30.028355     30.028355     60.056710
     -2.597598     31.271963     31.271963     62.543926
     -2.587588     32.751826     32.751826     65.503653
     -2.577578     34.134803     34.134803     68.269605
     -2.567568     35.056878     35.056878     70.113757
     -2.557558     35.201294     35.201294     70.402588
     -2.547548     34.346028     34.346028     68.692056
     -2.537538     32.408270     32.408270     64.816541
     -2.527528     29.499800     29.499800     58.999599
     -2.517518     25.969048     25.969048     51.938095
     -2.507508     22.383488     22.383488     44.766977
     -2.497497     19.423980     19.423980     38.847960
     -2.487487     17.709716     17.709716     35.419431
     -2.477477     17.615519     17.615519     35.231038
     -2.467467     19.155550     19.155550     38.311101
     -2.457457     21.984193     21.984193     43.968386
     -2.447447     25.519000     25.519000     51.038001
     -2.437437     29.141210     29.141210     58.282420
     -2.427427     32.394962     32.394962     64.789923
     -2.417417     35.101857     35.101857     70.203714
     -2.407407     37.339498     37.339498     74.678996
     -2.397397     39.292600     39.292600     78.585199
     -2.387387     41.048605     41.048605     82.097210
     -2.377377     42.444758     42.444758     84.889516
     -2.367367     43.057210     43.057210     86.114420
     -2.357357     42.355522     42.355522     84.711043
     -2.347347     39.957954     39.957954     79.915907
     -2.337337     35.862952     35.862952     71.725905
     -2.327327     30.538898     30.538898     61.077795
     -2.317317     24.827017     24.827017     49.654034
     -2.307307     19.707154     19.707154     39.414309
     -2.297297     16.034925     16.034925     32.069850
     -2.287287     14.352196     14.352196     28.704392
     -2.277277     14.817524     14.817524     29.635048
     -2.267267     17.242297     17.242297     34.484593
     -2.257257     21.185755     21.185755     42.371511
     -2.247247     26.062923     26.062923     52.125847
     -2.237237     31.237917     31.237917     62.475833
     -2.227227     36.093756     36.093756     72.187513
     -2.217217     40.081553     40.081553     80.163105
     -2.207207     42.758013     42.758013     85.516026
     -2.197197     43.822453     43.822453     87.644905
     -2.187187     43.160646     43.160646     86.321292
     -2.177177     40.889972     40.889972     81.779944
     -2.167167     37.381905     37.381905     74.763810
     -2.157157     33.227658     33.227658     66.455316
     -2.147147     29.125988     29.125988     58.251977
     -2.137137     25.710004     25.710004     51.420009
     -2.127127     23.371295     23.371295     46.742590
     -2.117117     22.154423     22.154423     44.308847
     -2.107107     21.768153     21.768153     43.536306
     -2.097097     21.706653     21.706653     43.413305
     -2.087087     21.427283     21.427283     42.854565
     -2.077077     20.516323     20.516323     41.032647
     -2.067067     18.790940     18.790940     37.581881
     -2.057057     16.317731     16.317731     32.635461
     -2.047047     13.357661     13.357661     26.715322
     -2.037037     10.266228     10.266228     20.532456
     -2.027027      7.385580      7.385580     14.771159
     -2.017017      4.962459      4.962459      9.924917
     -2.007007      3.112644      3.112644      6.225289
     -1.996997      1.833375      1.833375      3.666749
     -1.986987      1.048428      1.048428      2.096857
     -1.976977      0.663404      0.663404      1.326809
     -1.966967      0.612052      0.612052      1.224104
     -1.956957      0.882843      0.882843      1.765687
     -1.946947      1.522023      1.522023      3.044046
     -1.936937      2.613130      2.613130      5.226261
     -1.926927      4.236154      4.236154      8.472308
     -1.916917      6.415333      6.415333     12.830666
     -1.906907      9.072310      9.072310     18.144619
     -1.896897     12.005182     12.005182     24.010364
     -1.886887     14.908263     14.908263     29.816527
     -1.876877     17.432274     17.432274     34.864547
     -1.866867     19.267946     19.267946     38.535891
     -1.856857     20.226657     20.226657     40.453314
     -1.846847     20.292660     20.292660     40.585320
     -1.836837     19.629008     19.629008     39.258016
     -1.826827     18.529712     18.529712     37.059424
     -1.816817     17.325216     17.325216     34.650432
     -1.806807     16.268165     16.268165     32.536330
     -1.796797     15.444049     15.444049     30.888098
     -1.786787     14.750831     14.750831     29.501662
     -1.776777     13.963680     13.963680     27.927359
     -1.766767     12.856480     12.856480     25.712960
     -1.756757     11.319213     11.319213     22.638426
     -1.746747      9.413450      9.413450     18.826899
     -1.736737      7.346017      7.346017     14.692033
     -1.726727      5.387141      5.387141     10.774283
     -1.716717      3.783636      3.783636      7.567272
     -1.706707      2.707892      2.707892      5.415783
     -1.696697      2.251844      2.251844      4.503688
     -1.686687      2.445455      2.445455      4.890911
     -1.676677      3.269461      3.269461      6.538921
     -1.666667      4.644945      4.644945      9.289890
     -1.656657      6.407166      6.407166     12.814332
     -1.646647      8.291571      8.291571     16.583142
     -1.636637      9.962219      9.962219     19.924438
     -1.626627     11.092853     11.092853     22.185707
