# EIG2DOS: Utility for SIESTA to obtain the electronic density of states
#  E. Artacho, Apr 1999, A. Garcia, Apr 2012
#  Nick R. Papior, Feb 2017
# ------------------------------------------
# Eigenvalues calculated from a non-polarized calculation
# Eigenvalues read from siesta.EIG
# Kpoint weights read from siesta.KP
# Using smearing parameter:   0.0500
# Using 1000 points in the energy range
# Selected bands: 1 to: 2981
# Emin, Emax in file for selected band(s):    -27.0362483    218.3234950
# Nbands, Nspin, Nk   =   2981     1     1
# E_F                 =    -4.2826 eV --> (shifted to ZERO)
# Broadening          =     0.0500 eV
#
#        E            N(up)  (=)   N(down)         Ntot
     -5.000000     43.241943     43.241943     86.483885
     -4.989990     45.031646     45.031646     90.063292
     -4.979980     46.104605     46.104605     92.209209
     -4.969970     46.336703     46.336703     92.673406
     -4.959960     45.602903     45.602903     91.205805
     -4.949950     43.861621     43.861621     87.723242
     -4.939940     41.228714     41.228714     82.457427
     -4.929930     38.011488     38.011488     76.022975
     -4.919920     34.698704     34.698704     69.397409
     -4.909910     31.915467     31.915467     63.830934
     -4.899900     30.344250     30.344250     60.688499
     -4.889890     30.599603     30.599603     61.199206
     -4.879880     33.050675     33.050675     66.101349
     -4.869870     37.625551     37.625551     75.251103
     -4.859860     43.683569     43.683569     87.367138
     -4.849850     50.058872     50.058872    100.117745
     -4.839840     55.324273     55.324273    110.648545
     -4.829830     58.212166     58.212166    116.424331
     -4.819820     58.025264     58.025264    116.050528
     -4.809810     54.850118     54.850118    109.700237
     -4.799800     49.476331     49.476331     98.952663
     -4.789790     43.072881     43.072881     86.145762
     -4.779780     36.786265     36.786265     73.572530
     -4.769770     31.436358     31.436358     62.872715
     -4.759760     27.402165     27.402165     54.804330
     -4.749750     24.679039     24.679039     49.358078
     -4.739740     23.021609     23.021609     46.043217
     -4.729730     22.086050     22.086050     44.172099
     -4.719720     21.525813     21.525813     43.051627
     -4.709710     21.037598     21.037598     42.075196
     -4.699700     20.378068     20.378068     40.756135
     -4.689690     19.376580     19.376580     38.753159
     -4.679680     17.961364     17.961364     35.922727
     -4.669670     16.200601     16.200601     32.401201
     -4.659660     14.341466     14.341466     28.682931
     -4.649650     12.819046     12.819046     25.638092
     -4.639640     12.210240     12.210240     24.420480
     -4.629630     13.123383     13.123383     26.246765
     -4.619620     16.035067     16.035067     32.070134
     -4.609610     21.107144     21.107144     42.214289
     -4.599600     28.038384     28.038384     56.076768
     -4.589590     36.019660     36.019660     72.039319
     -4.579580     43.850963     43.850963     87.701926
     -4.569570     50.227973     50.227973    100.455945
     -4.559560     54.125557     54.125557    108.251114
     -4.549550     55.137068     55.137068    110.274136
     -4.539540     53.620512     53.620512    107.241023
     -4.529530     50.574005     50.574005    101.148010
     -4.519520     47.282033     47.282033     94.564065
     -4.509510     44.877251     44.877251     89.754503
     -4.499499     43.994852     43.994852     87.989705
     -4.489489     44.644087     44.644087     89.288175
     -4.479479     46.316574     46.316574     92.633149
     -4.469469     48.249325     48.249325     96.498651
     -4.459459     49.710043     49.710043     99.420085
     -4.449449     50.190614     50.190614    100.381228
     -4.439439     49.463647     49.463647     98.927294
     -4.429429     47.534422     47.534422     95.068843
     -4.419419     44.563744     44.563744     89.127488
     -4.409409     40.824723     40.824723     81.649445
     -4.399399     36.702479     36.702479     73.404958
     -4.389389     32.692273     32.692273     65.384546
     -4.379379     29.340545     29.340545     58.681090
     -4.369369     27.115247     27.115247     54.230493
     -4.359359     26.254907     26.254907     52.509814
     -4.349349     26.680062     26.680062     53.360124
     -4.339339     28.027138     28.027138     56.054277
     -4.329329     29.798473     29.798473     59.596946
     -4.319319     31.558350     31.558350     63.116700
     -4.309309     33.084241     33.084241     66.168481
     -4.299299     34.411990     34.411990     68.823980
     -4.289289     35.767661     35.767661     71.535322
     -4.279279     37.423290     37.423290     74.846580
     -4.269269     39.532662     39.532662     79.065324
     -4.259259     42.002868     42.002868     84.005735
     -4.249249     44.450022     44.450022     88.900044
     -4.239239     46.272246     46.272246     92.544493
     -4.229229     46.838069     46.838069     93.676138
     -4.219219     45.732980     45.732980     91.465961
     -4.209209     42.958315     42.958315     85.916631
     -4.199199     38.976595     38.976595     77.953189
     -4.189189     34.564094     34.564094     69.128188
     -4.179179     30.533068     30.533068     61.066136
     -4.169169     27.458093     27.458093     54.916186
     -4.159159     25.535148     25.535148     51.070296
     -4.149149     24.624176     24.624176     49.248353
     -4.139139     24.428282     24.428282     48.856563
     -4.129129     24.701748     24.701748     49.403496
     -4.119119     25.378486     25.378486     50.756972
     -4.109109     26.560790     26.560790     53.121581
     -4.099099     28.378449     28.378449     56.756897
     -4.089089     30.794056     30.794056     61.588112
     -4.079079     33.466718     33.466718     66.933436
     -4.069069     35.770371     35.770371     71.540742
     -4.059059     36.989301     36.989301     73.978602
     -4.049049     36.612343     36.612343     73.224687
     -4.039039     34.578647     34.578647     69.157293
     -4.029029     31.342510     31.342510     62.685020
     -4.019019     27.721308     27.721308     55.442616
     -4.009009     24.609286     24.609286     49.218572
     -3.998999     22.704174     22.704174     45.408348
     -3.988989     22.365762     22.365762     44.731523
     -3.978979     23.632983     23.632983     47.265965
     -3.968969     26.336448     26.336448     52.672897
     -3.958959     30.213448     30.213448     60.426896
     -3.948949     34.969417     34.969417     69.938834
     -3.938939     40.292897     40.292897     80.585794
     -3.928929     45.867202     45.867202     91.734405
     -3.918919     51.407667     51.407667    102.815334
     -3.908909     56.708784     56.708784    113.417568
     -3.898899     61.654442     61.654442    123.308885
     -3.888889     66.156966     66.156966    132.313931
     -3.878879     70.040788     70.040788    140.081575
     -3.868869     72.938678     72.938678    145.877355
     -3.858859     74.283491     74.283491    148.566982
     -3.848849     73.440060     73.440060    146.880119
     -3.838839     69.946767     69.946767    139.893534
     -3.828829     63.766073     63.766073    127.532147
     -3.818819     55.421013     55.421013    110.842025
     -3.808809     45.938288     45.938288     91.876576
     -3.798799     36.606468     36.606468     73.212937
     -3.788789     28.640804     28.640804     57.281607
     -3.778779     22.880052     22.880052     45.760103
     -3.768769     19.614339     19.614339     39.228678
     -3.758759     18.580997     18.580997     37.161994
     -3.748749     19.104946     19.104946     38.209892
     -3.738739     20.325508     20.325508     40.651016
     -3.728729     21.444054     21.444054     42.888107
     -3.718719     21.934784     21.934784     43.869568
     -3.708709     21.673764     21.673764     43.347529
     -3.698699     20.956292     20.956292     41.912584
     -3.688689     20.392935     20.392935     40.785870
     -3.678679     20.702803     20.702803     41.405607
     -3.668669     22.455993     22.455993     44.911986
     -3.658659     25.844850     25.844850     51.689700
     -3.648649     30.568974     30.568974     61.137949
     -3.638639     35.888041     35.888041     71.776083
     -3.628629     40.832657     40.832657     81.665315
     -3.618619     44.493477     44.493477     88.986954
     -3.608609     46.272848     46.272848     92.545696
     -3.598599     46.006410     46.006410     92.012819
     -3.588589     43.931399     43.931399     87.862798
     -3.578579     40.548624     40.548624     81.097247
     -3.568569     36.453666     36.453666     72.907332
     -3.558559     32.193963     32.193963     64.387925
     -3.548549     28.172223     28.172223     56.344446
     -3.538539     24.596662     24.596662     49.193325
     -3.528529     21.480366     21.480366     42.960732
     -3.518519     18.694875     18.694875     37.389750
     -3.508509     16.068541     16.068541     32.137081
     -3.498498     13.494787     13.494787     26.989573
     -3.488488     11.003303     11.003303     22.006606
     -3.478478      8.763335      8.763335     17.526670
     -3.468468      7.022637      7.022637     14.045273
     -3.458458      6.013772      6.013772     12.027545
     -3.448448      5.865605      5.865605     11.731210
     -3.438438      6.546754      6.546754     13.093509
     -3.428428      7.854596      7.854596     15.709192
     -3.418418      9.455664      9.455664     18.911328
     -3.408408     10.975276     10.975276     21.950553
     -3.398398     12.117831     12.117831     24.235662
     -3.388388     12.778298     12.778298     25.556597
     -3.378378     13.096703     13.096703     26.193406
     -3.368368     13.424890     13.424890     26.849780
     -3.358358     14.213813     14.213813     28.427626
     -3.348348     15.865979     15.865979     31.731957
     -3.338338     18.606927     18.606927     37.213855
     -3.328328     22.408342     22.408342     44.816684
     -3.318318     26.964993     26.964993     53.929986
     -3.308308     31.715579     31.715579     63.431158
     -3.298298     35.909645     35.909645     71.819290
     -3.288288     38.736256     38.736256     77.472511
     -3.278278     39.515065     39.515065     79.030131
     -3.268268     37.904307     37.904307     75.808615
     -3.258258     34.038639     34.038639     68.077278
     -3.248248     28.517406     28.517406     57.034813
     -3.238238     22.230349     22.230349     44.460698
     -3.228228     16.092404     16.092404     32.184808
     -3.218218     10.803485     10.803485     21.606970
     -3.208208      6.725062      6.725062     13.450124
     -3.198198      3.896028      3.896028      7.792055
     -3.188188      2.145073      2.145073      4.290147
     -3.178178      1.231100      1.231100      2.462201
     -3.168168      0.957639      0.957639      1.915278
     -3.158158      1.238164      1.238164      2.476327
     -3.148148      2.112490      2.112490      4.224979
     -3.138138      3.721695      3.721695      7.443389
     -3.128128      6.247324      6.247324     12.494647
     -3.118118      9.822319      9.822319     19.644637
     -3.108108     14.432545     14.432545     28.865090
     -3.098098     19.843585     19.843585     39.687169
     -3.088088     25.593076     25.593076     51.186152
     -3.078078     31.070897     31.070897     62.141794
     -3.068068     35.668733     35.668733     71.337466
     -3.058058     38.938074     38.938074     77.876149
     -3.048048     40.682409     40.682409     81.364817
     -3.038038     40.942867     40.942867     81.885733
     -3.028028     39.901347     39.901347     79.802694
     -3.018018     37.777135     37.777135     75.554270
     -3.008008     34.791530     34.791530     69.583060
     -2.997998     31.217753     31.217753     62.435507
     -2.987988     27.462599     27.462599     54.925198
     -2.977978     24.095880     24.095880     48.191761
     -2.967968     21.775563     21.775563     43.551126
     -2.957958     21.084470     21.084470     42.168940
     -2.947948     22.349158     22.349158     44.698316
     -2.937938     25.520094     25.520094     51.040188
     -2.927928     30.158350     30.158350     60.316701
     -2.917918     35.526683     35.526683     71.053366
     -2.907908     40.749739     40.749739     81.499478
     -2.897898     44.998345     44.998345     89.996690
     -2.887888     47.657706     47.657706     95.315412
     -2.877878     48.446341     48.446341     96.892681
     -2.867868     47.457795     47.457795     94.915589
     -2.857858     45.107478     45.107478     90.214955
     -2.847848     41.990487     41.990487     83.980975
     -2.837838     38.690386     38.690386     77.380772
     -2.827828     35.606787     35.606787     71.213575
     -2.817818     32.870424     32.870424     65.740848
     -2.807808     30.379628     30.379628     60.759255
     -2.797798     27.935284     27.935284     55.870567
     -2.787788     25.402330     25.402330     50.804660
     -2.777778     22.813434     22.813434     45.626868
     -2.767768     20.363848     20.363848     40.727696
     -2.757758     18.308436     18.308436     36.616873
     -2.747748     16.827612     16.827612     33.655224
     -2.737738     15.945423     15.945423     31.890846
     -2.727728     15.549186     15.549186     31.098373
     -2.717718     15.494897     15.494897     30.989795
     -2.707708     15.726062     15.726062     31.452123
     -2.697698     16.322621     16.322621     32.645243
     -2.687688     17.440888     17.440888     34.881777
     -2.677678     19.178505     19.178505     38.357010
     -2.667668     21.452873     21.452873     42.905747
     -2.657658     23.979139     23.979139     47.958279
     -2.647648     26.372660     26.372660     52.745319
     -2.637638     28.319360     28.319360     56.638720
     -2.627628     29.710796     29.710796     59.421593
     -2.617618     30.662882     30.662882     61.325764
     -2.607608     31.413855     31.413855     62.827710
     -2.597598     32.173320     32.173320     64.346641
     -2.587588     33.015303     33.015303     66.030607
     -2.577578     33.863063     33.863063     67.726126
     -2.567568     34.543392     34.543392     69.086784
     -2.557558     34.851549     34.851549     69.703098
     -2.547548     34.589003     34.589003     69.178005
     -2.537538     33.585608     33.585608     67.171215
     -2.527528     31.743032     31.743032     63.486064
     -2.517518     29.111575     29.111575     58.223150
     -2.507508     25.962411     25.962411     51.924823
     -2.497497     22.791232     22.791232     45.582464
     -2.487487     20.215488     20.215488     40.430975
     -2.477477     18.789640     18.789640     37.579280
     -2.467467     18.816948     18.816948     37.633895
     -2.457457     20.246855     20.246855     40.493710
     -2.447447     22.709125     22.709125     45.418251
     -2.437437     25.671708     25.671708     51.343415
     -2.427427     28.651110     28.651110     57.302220
     -2.417417     31.378580     31.378580     62.757160
     -2.407407     33.844791     33.844791     67.689582
     -2.397397     36.202873     36.202873     72.405746
     -2.387387     38.579077     38.579077     77.158153
     -2.377377     40.888885     40.888885     81.777770
     -2.367367     42.759008     42.759008     85.518016
     -2.357357     43.608602     43.608602     87.217205
     -2.347347     42.866434     42.866434     85.732869
     -2.337337     40.230884     40.230884     80.461768
     -2.327327     35.853059     35.853059     71.706118
     -2.317317     30.356568     30.356568     60.713136
     -2.307307     24.684461     24.684461     49.368922
     -2.297297     19.841795     19.841795     39.683589
     -2.287287     16.638854     16.638854     33.277709
     -2.277277     15.521706     15.521706     31.043411
     -2.267267     16.524742     16.524742     33.049483
     -2.257257     19.329397     19.329397     38.658794
     -2.247247     23.386217     23.386217     46.772434
     -2.237237     28.053708     28.053708     56.107417
     -2.227227     32.715707     32.715707     65.431414
     -2.217217     36.852703     36.852703     73.705406
     -2.207207     40.062067     40.062067     80.124133
     -2.197197     42.045658     42.045658     84.091317
     -2.187187     42.599800     42.599800     85.199600
     -2.177177     41.637232     41.637232     83.274464
     -2.167167     39.239929     39.239929     78.479858
     -2.157157     35.703270     35.703270     71.406540
     -2.147147     31.516821     31.516821     63.033642
     -2.137137     27.254518     27.254518     54.509035
     -2.127127     23.405185     23.405185     46.810369
     -2.117117     20.222839     20.222839     40.445678
     -2.107107     17.676479     17.676479     35.352959
     -2.097097     15.525989     15.525989     31.051978
     -2.087087     13.479206     13.479206     26.958412
     -2.077077     11.343488     11.343488     22.686977
     -2.067067      9.098497      9.098497     18.196994
     -2.057057      6.870817      6.870817     13.741633
     -2.047047      4.846025      4.846025      9.692051
     -2.037037      3.176712      3.176712      6.353424
     -2.027027      1.930204      1.930204      3.860409
     -2.017017      1.086547      1.086547      2.173095
     -2.007007      0.570164      0.570164      1.140327
     -1.996997      0.290335      0.290335      0.580670
     -1.986987      0.173098      0.173098      0.346197
     -1.976977      0.179536      0.179536      0.359072
     -1.966967      0.313596      0.313596      0.627192
     -1.956957      0.623567      0.623567      1.247135
     -1.946947      1.197345      1.197345      2.394691
     -1.936937      2.147328      2.147328      4.294656
     -1.926927      3.580530      3.580530      7.161061
     -1.916917      5.555450      5.555450     11.110899
     -1.906907      8.037257      8.037257     16.074513
     -1.896897     10.870611     10.870611     21.741221
     -1.886887     13.787783     13.787783     27.575565
     -1.876877     16.457077     16.457077     32.914154
     -1.866867     18.559205     18.559205     37.118410
     -1.856857     19.867453     19.867453     39.734906
     -1.846847     20.306568     20.306568     40.613137
     -1.836837     19.972238     19.972238     39.944475
     -1.826827     19.102210     19.102210     38.204421
     -1.816817     18.001008     18.001008     36.002016
     -1.806807     16.936186     16.936186     33.872371
     -1.796797     16.042762     16.042762     32.085525
     -1.786787     15.280340     15.280340     30.560680
     -1.776777     14.470412     14.470412     28.940825
     -1.766767     13.401807     13.401807     26.803613
     -1.756757     11.953542     11.953542     23.907084
     -1.746747     10.174345     10.174345     20.348690
     -1.736737      8.284633      8.284633     16.569265
     -1.726727      6.610508      6.610508     13.221015
     -1.716717      5.489564      5.489564     10.979128
     -1.706707      5.188382      5.188382     10.376763
     -1.696697      5.849785      5.849785     11.699571
     -1.686687      7.466507      7.466507     14.933015
     -1.676677      9.872559      9.872559     19.745118
     -1.666667     12.752367     12.752367     25.504735
     -1.656657     15.676418     15.676418     31.352837
     -1.646647     18.169405     18.169405     36.338810
     -1.636637     19.803375     19.803375     39.606750
     -1.626627     20.294200     20.294200     40.588400
