# EIG2DOS: Utility for SIESTA to obtain the electronic density of states
#  E. Artacho, Apr 1999, A. Garcia, Apr 2012
#  Nick R. Papior, Feb 2017
# ------------------------------------------
# Eigenvalues calculated from a non-polarized calculation
# Eigenvalues read from siesta.EIG
# Kpoint weights read from siesta.KP
# Using smearing parameter:   0.0500
# Using 1000 points in the energy range
# Selected bands: 1 to: 2981
# Emin, Emax in file for selected band(s):    -27.0722452    218.3191920
# Nbands, Nspin, Nk   =   2981     1     1
# E_F                 =    -4.2870 eV --> (shifted to ZERO)
# Broadening          =     0.0500 eV
#
#        E            N(up)  (=)   N(down)         Ntot
     -5.000000     47.482946     47.482946     94.965892
     -4.989990     49.280424     49.280424     98.560848
     -4.979980     49.568654     49.568654     99.137308
     -4.969970     48.485285     48.485285     96.970569
     -4.959960     46.291166     46.291166     92.582331
     -4.949950     43.303454     43.303454     86.606908
     -4.939940     39.861637     39.861637     79.723274
     -4.929930     36.334512     36.334512     72.669025
     -4.919920     33.150999     33.150999     66.301999
     -4.909910     30.820611     30.820611     61.641222
     -4.899900     29.903673     29.903673     59.807347
     -4.889890     30.901193     30.901193     61.802386
     -4.879880     34.067628     34.067628     68.135256
     -4.869870     39.205049     39.205049     78.410098
     -4.859860     45.546893     45.546893     91.093787
     -4.849850     51.838864     51.838864    103.677729
     -4.839840     56.647758     56.647758    113.295515
     -4.829830     58.804515     58.804515    117.609030
     -4.819820     57.792486     57.792486    115.584972
     -4.809810     53.898195     53.898195    107.796390
     -4.799800     48.057892     48.057892     96.115783
     -4.789790     41.488436     41.488436     82.976871
     -4.779780     35.286785     35.286785     70.573571
     -4.769770     30.165337     30.165337     60.330675
     -4.759760     26.388556     26.388556     52.777112
     -4.749750     23.867791     23.867791     47.735581
     -4.739740     22.319296     22.319296     44.638593
     -4.729730     21.403703     21.403703     42.807407
     -4.719720     20.809615     20.809615     41.619230
     -4.709710     20.283529     20.283529     40.567059
     -4.699700     19.629415     19.629415     39.258829
     -4.689690     18.707101     18.707101     37.414202
     -4.679680     17.452355     17.452355     34.904711
     -4.669670     15.923120     15.923120     31.846241
     -4.659660     14.351739     14.351739     28.703478
     -4.649650     13.166002     13.166002     26.332004
     -4.639640     12.944336     12.944336     25.888673
     -4.629630     14.291996     14.291996     28.583992
     -4.619620     17.655692     17.655692     35.311384
     -4.609610     23.124190     23.124190     46.248380
     -4.599600     30.285388     30.285388     60.570775
     -4.589590     38.215669     38.215669     76.431337
     -4.579580     45.649570     45.649570     91.299140
     -4.569570     51.311406     51.311406    102.622811
     -4.559560     54.307796     54.307796    108.615592
     -4.549550     54.428076     54.428076    108.856151
     -4.539540     52.219226     52.219226    104.438452
     -4.529530     48.793766     48.793766     97.587533
     -4.519520     45.446703     45.446703     90.893406
     -4.509510     43.237785     43.237785     86.475569
     -4.499499     42.698363     42.698363     85.396725
     -4.489489     43.753534     43.753534     87.507067
     -4.479479     45.851315     45.851315     91.702630
     -4.469469     48.211200     48.211200     96.422400
     -4.459459     50.077217     50.077217    100.154434
     -4.449449     50.888840     50.888840    101.777679
     -4.439439     50.343662     50.343662    100.687325
     -4.429429     48.383039     48.383039     96.766078
     -4.419419     45.155637     45.155637     90.311275
     -4.409409     40.995164     40.995164     81.990327
     -4.399399     36.405420     36.405420     72.810841
     -4.389389     32.013723     32.013723     64.027445
     -4.379379     28.460842     28.460842     56.921683
     -4.369369     26.240723     26.240723     52.481446
     -4.359359     25.553110     25.553110     51.106219
     -4.349349     26.246241     26.246241     52.492482
     -4.339339     27.889165     27.889165     55.778329
     -4.329329     29.946078     29.946078     59.892156
     -4.319319     31.972397     31.972397     63.944794
     -4.309309     33.746546     33.746546     67.493092
     -4.299299     35.291610     35.291610     70.583221
     -4.289289     36.796174     36.796174     73.592349
     -4.279279     38.479857     38.479857     76.959713
     -4.269269     40.454859     40.454859     80.909717
     -4.259259     42.624421     42.624421     85.248841
     -4.249249     44.650835     44.650835     89.301670
     -4.239239     46.019014     46.019014     92.038029
     -4.229229     46.198489     46.198489     92.396979
     -4.219219     44.858785     44.858785     89.717571
     -4.209209     42.044369     42.044369     84.088739
     -4.199199     38.210089     38.210089     76.420178
     -4.189189     34.078810     34.078810     68.157620
     -4.179179     30.380642     30.380642     60.761284
     -4.169169     27.602971     27.602971     55.205942
     -4.159159     25.873646     25.873646     51.747293
     -4.149149     25.021945     25.021945     50.043889
     -4.139139     24.765555     24.765555     49.531111
     -4.129129     24.912633     24.912633     49.825266
     -4.119119     25.470084     25.470084     50.940169
     -4.109109     26.602237     26.602237     53.204473
     -4.099099     28.460754     28.460754     56.921507
     -4.089089     30.976735     30.976735     61.953470
     -4.079079     33.738316     33.738316     67.476632
     -4.069069     36.047212     36.047212     72.094423
     -4.059059     37.157257     37.157257     74.314513
     -4.049049     36.590020     36.590020     73.180040
     -4.039039     34.364877     34.364877     68.729754
     -4.029029     31.018959     31.018959     62.037917
     -4.019019     27.408709     27.408709     54.817419
     -4.009009     24.404801     24.404801     48.809603
     -3.998999     22.637717     22.637717     45.275433
     -3.988989     22.398501     22.398501     44.797003
     -3.978979     23.693147     23.693147     47.386294
     -3.968969     26.366060     26.366060     52.732120
     -3.958959     30.198166     30.198166     60.396333
     -3.948949     34.939894     34.939894     69.879788
     -3.938939     40.305591     40.305591     80.611181
     -3.928929     45.981192     45.981192     91.962384
     -3.918919     51.668441     51.668441    103.336882
     -3.908909     57.138565     57.138565    114.277131
     -3.898899     62.242735     62.242735    124.485469
     -3.888889     66.849126     66.849126    133.698252
     -3.878879     70.731445     70.731445    141.462890
     -3.868869     73.481320     73.481320    146.962640
     -3.858859     74.522125     74.522125    149.044249
     -3.848849     73.256178     73.256178    146.512355
     -3.838839     69.303568     69.303568    138.607137
     -3.828829     62.729941     62.729941    125.459882
     -3.818819     54.149430     54.149430    108.298860
     -3.808809     44.638195     44.638195     89.276390
     -3.798799     35.478995     35.478995     70.957990
     -3.788789     27.831676     27.831676     55.663351
     -3.778779     22.449913     22.449913     44.899826
     -3.768769     19.534330     19.534330     39.068660
     -3.758759     18.751111     18.751111     37.502222
     -3.748749     19.388038     19.388038     38.776075
     -3.738739     20.587895     20.587895     41.175790
     -3.728729     21.593077     21.593077     43.186153
     -3.718719     21.944207     21.944207     43.888414
     -3.708709     21.589890     21.589890     43.179781
     -3.698699     20.881699     20.881699     41.763398
     -3.688689     20.450678     20.450678     40.901356
     -3.678679     20.990725     20.990725     41.981449
     -3.668669     23.006250     23.006250     46.012500
     -3.658659     26.604647     26.604647     53.209294
     -3.648649     31.412165     31.412165     62.824330
     -3.638639     36.654604     36.654604     73.309207
     -3.628629     41.379701     41.379701     82.759402
     -3.618619     44.735679     44.735679     89.471359
     -3.608609     46.196553     46.196553     92.393106
     -3.598599     45.656561     45.656561     91.313121
     -3.588589     43.384023     43.384023     86.768045
     -3.578579     39.885004     39.885004     79.770007
     -3.568569     35.745174     35.745174     71.490347
     -3.558559     31.496338     31.496338     62.992676
     -3.548549     27.523355     27.523355     55.046710
     -3.538539     24.014703     24.014703     48.029407
     -3.528529     20.964262     20.964262     41.928523
     -3.518519     18.230896     18.230896     36.461792
     -3.508509     15.642632     15.642632     31.285264
     -3.498498     13.105506     13.105506     26.211011
     -3.488488     10.668605     10.668605     21.337209
     -3.478478      8.517614      8.517614     17.035229
     -3.468468      6.905290      6.905290     13.810581
     -3.458458      6.053657      6.053657     12.107314
     -3.448448      6.066303      6.066303     12.132606
     -3.438438      6.877045      6.877045     13.754089
     -3.428428      8.248194      8.248194     16.496388
     -3.418418      9.823211      9.823211     19.646423
     -3.408408     11.228090     11.228090     22.456181
     -3.398398     12.197389     12.197389     24.394779
     -3.388388     12.681134     12.681134     25.362268
     -3.378378     12.884855     12.884855     25.769709
     -3.368368     13.217516     13.217516     26.435032
     -3.358358     14.162228     14.162228     28.324456
     -3.348348     16.117849     16.117849     32.235698
     -3.338338     19.265367     19.265367     38.530734
     -3.328328     23.491922     23.491922     46.983844
     -3.318318     28.378661     28.378661     56.757322
     -3.308308     33.247533     33.247533     66.495066
     -3.298298     37.267620     37.267620     74.535240
     -3.288288     39.622677     39.622677     79.245355
     -3.278278     39.718666     39.718666     79.437332
     -3.268268     37.370408     37.370408     74.740816
     -3.258258     32.885022     32.885022     65.770044
     -3.248248     26.988007     26.988007     53.976015
     -3.238238     20.609803     20.609803     41.219606
     -3.228228     14.621315     14.621315     29.242629
     -3.218218      9.628151      9.628151     19.256302
     -3.208208      5.893539      5.893539     11.787077
     -3.198198      3.390644      3.390644      6.781287
     -3.188188      1.931751      1.931751      3.863501
     -3.178178      1.308670      1.308670      2.617341
     -3.168168      1.398126      1.398126      2.796251
     -3.158158      2.213171      2.213171      4.426343
     -3.148148      3.898469      3.898469      7.796937
     -3.138138      6.671994      6.671994     13.343987
     -3.128128     10.719697     10.719697     21.439395
     -3.118118     16.063128     16.063128     32.126257
     -3.108108     22.441816     22.441816     44.883633
     -3.098098     29.267375     29.267375     58.534750
     -3.088088     35.696033     35.696033     71.392066
     -3.078078     40.823471     40.823471     81.646942
     -3.068068     43.945340     43.945340     87.890680
     -3.058058     44.781041     44.781041     89.562083
     -3.048048     43.558712     43.558712     87.117424
     -3.038038     40.914249     40.914249     81.828497
     -3.028028     37.643126     37.643126     75.286253
     -3.018018     34.415602     34.415602     68.831204
     -3.008008     31.583253     31.583253     63.166507
     -2.997998     29.156895     29.156895     58.313790
     -2.987988     26.949227     26.949227     53.898453
     -2.977978     24.797230     24.797230     49.594461
     -2.967968     22.748536     22.748536     45.497071
     -2.957958     21.122341     21.122341     42.244681
     -2.947948     20.419043     20.419043     40.838086
     -2.937938     21.120129     21.120129     42.240258
     -2.927928     23.463682     23.463682     46.927365
     -2.917918     27.288773     27.288773     54.577546
     -2.907908     32.015597     32.015597     64.031195
     -2.897898     36.778076     36.778076     73.556153
     -2.887888     40.667682     40.667682     81.335365
     -2.877878     43.001469     43.001469     86.002938
     -2.867868     43.513019     43.513019     87.026038
     -2.857858     42.392368     42.392368     84.784737
     -2.847848     40.162379     40.162379     80.324758
     -2.837838     37.448821     37.448821     74.897641
     -2.827828     34.746539     34.746539     69.493078
     -2.817818     32.281416     32.281416     64.562833
     -2.807808     30.017588     30.017588     60.035177
     -2.797798     27.786558     27.786558     55.573116
     -2.787788     25.456835     25.456835     50.913671
     -2.777778     23.049500     23.049500     46.098999
     -2.767768     20.742895     20.742895     41.485789
     -2.757758     18.776853     18.776853     37.553705
     -2.747748     17.325025     17.325025     34.650050
     -2.737738     16.419104     16.419104     32.838207
     -2.727728     15.971535     15.971535     31.943070
     -2.717718     15.876386     15.876386     31.752772
     -2.707708     16.114030     16.114030     32.228060
     -2.697698     16.780809     16.780809     33.561617
     -2.687688     18.015149     18.015149     36.030298
     -2.677678     19.864966     19.864966     39.729932
     -2.667668     22.187796     22.187796     44.375591
     -2.657658     24.660458     24.660458     49.320915
     -2.647648     26.905278     26.905278     53.810556
     -2.637638     28.660642     28.660642     57.321285
     -2.627628     29.890522     29.890522     59.781044
     -2.617618     30.766212     30.766212     61.532424
     -2.607608     31.537752     31.537752     63.075503
     -2.597598     32.381451     32.381451     64.762901
     -2.587588     33.313985     33.313985     66.627971
     -2.577578     34.204640     34.204640     68.409279
     -2.567568     34.847065     34.847065     69.694130
     -2.557558     35.027165     35.027165     70.054331
     -2.547548     34.556880     34.556880     69.113761
     -2.537538     33.294843     33.294843     66.589686
     -2.527528     31.191425     31.191425     62.382849
     -2.517518     28.362131     28.362131     56.724262
     -2.507508     25.143816     25.143816     50.287632
     -2.497497     22.072258     22.072258     44.144515
     -2.487487     19.756336     19.756336     39.512673
     -2.477477     18.687851     18.687851     37.375701
     -2.467467     19.071359     19.071359     38.142718
     -2.457457     20.756187     20.756187     41.512375
     -2.447447     23.306049     23.306049     46.612098
     -2.437437     26.177518     26.177518     52.355036
     -2.427427     28.928384     28.928384     57.856768
     -2.417417     31.362820     31.362820     62.725640
     -2.407407     33.547982     33.547982     67.095964
     -2.397397     35.694436     35.694436     71.388873
     -2.387387     37.955997     37.955997     75.911993
     -2.377377     40.245608     40.245608     80.491216
     -2.367367     42.163566     42.163566     84.327133
     -2.357357     43.088952     43.088952     86.177903
     -2.347347     42.410277     42.410277     84.820555
     -2.337337     39.799650     39.799650     79.599300
     -2.327327     35.404842     35.404842     70.809683
     -2.317317     29.867468     29.867468     59.734935
     -2.307307     24.158372     24.158372     48.316744
     -2.297297     19.305943     19.305943     38.611885
     -2.287287     16.130950     16.130950     32.261901
     -2.277277     15.077944     15.077944     30.155888
     -2.267267     16.174340     16.174340     32.348679
     -2.257257     19.094924     19.094924     38.189848
     -2.247247     23.284986     23.284986     46.569971
     -2.237237     28.096180     28.096180     56.192360
     -2.227227     32.900454     32.900454     65.800909
     -2.217217     37.160770     37.160770     74.321540
     -2.207207     40.454695     40.454695     80.909389
     -2.197197     42.468275     42.468275     84.936550
     -2.187187     42.992746     42.992746     85.985492
     -2.177177     41.950617     41.950617     83.901235
     -2.167167     39.447234     39.447234     78.894468
     -2.157157     35.807352     35.807352     71.614704
     -2.147147     31.544416     31.544416     63.088833
     -2.137137     27.240843     27.240843     54.481687
     -2.127127     23.375988     23.375988     46.751976
     -2.117117     20.183275     20.183275     40.366551
     -2.107107     17.612520     17.612520     35.225039
     -2.097097     15.416734     15.416734     30.833467
     -2.087087     13.312264     13.312264     26.624528
     -2.077077     11.124528     11.124528     22.249056
     -2.067067      8.850465      8.850465     17.700930
     -2.057057      6.624770      6.624770     13.249540
     -2.047047      4.629663      4.629663      9.259326
     -2.037037      3.006519      3.006519      6.013038
     -2.027027      1.809775      1.809775      3.619550
     -2.017017      1.009986      1.009986      2.019973
     -2.007007      0.527672      0.527672      1.055345
     -1.996997      0.273472      0.273472      0.546944
     -1.986987      0.178662      0.178662      0.357324
     -1.976977      0.212171      0.212171      0.424341
     -1.966967      0.387333      0.387333      0.774666
     -1.956957      0.761650      0.761650      1.523301
     -1.946947      1.428691      1.428691      2.857381
     -1.936937      2.497931      2.497931      4.995863
     -1.926927      4.060072      4.060072      8.120144
     -1.916917      6.143039      6.143039     12.286079
     -1.906907      8.673743      8.673743     17.347487
     -1.896897     11.465041     11.465041     22.930082
     -1.886887     14.240471     14.240471     28.480941
     -1.876877     16.692975     16.692975     33.385951
     -1.866867     18.557957     18.557957     37.115914
     -1.856857     19.675905     19.675905     39.351810
     -1.846847     20.026661     20.026661     40.053321
     -1.836837     19.727958     19.727958     39.455915
     -1.826827     18.997722     18.997722     37.995443
     -1.816817     18.084905     18.084905     36.169810
     -1.806807     17.184568     17.184568     34.369136
     -1.796797     16.368470     16.368470     32.736939
     -1.786787     15.568262     15.568262     31.136524
     -1.776777     14.630074     14.630074     29.260147
     -1.766767     13.420947     13.420947     26.841894
     -1.756757     11.933816     11.933816     23.867631
     -1.746747     10.334130     10.334130     20.668261
     -1.736737      8.921852      8.921852     17.843704
     -1.726727      8.026766      8.026766     16.053533
     -1.716717      7.885797      7.885797     15.771594
     -1.706707      8.554797      8.554797     17.109593
     -1.696697      9.888561      9.888561     19.777123
     -1.686687     11.593570     11.593570     23.187139
     -1.676677     13.328679     13.328679     26.657357
     -1.666667     14.808679     14.808679     29.617359
     -1.656657     15.864543     15.864543     31.729086
     -1.646647     16.438141     16.438141     32.876282
     -1.636637     16.528833     16.528833     33.057667
     -1.626627     16.139643     16.139643     32.279286
