# EIG2DOS: Utility for SIESTA to obtain the electronic density of states
#  E. Artacho, Apr 1999, A. Garcia, Apr 2012
#  Nick R. Papior, Feb 2017
# ------------------------------------------
# Eigenvalues calculated from a non-polarized calculation
# Eigenvalues read from siesta.EIG
# Kpoint weights read from siesta.KP
# Using smearing parameter:   0.0500
# Using 1000 points in the energy range
# Selected bands: 1 to: 2981
# Emin, Emax in file for selected band(s):    -27.0916767    218.3321020
# Nbands, Nspin, Nk   =   2981     1     1
# E_F                 =    -4.2756 eV --> (shifted to ZERO)
# Broadening          =     0.0500 eV
#
#        E            N(up)  (=)   N(down)         Ntot
     -5.000000     42.291031     42.291031     84.582063
     -4.989990     43.771282     43.771282     87.542564
     -4.979980     44.701716     44.701716     89.403431
     -4.969970     44.911306     44.911306     89.822613
     -4.959960     44.232604     44.232604     88.465208
     -4.949950     42.599032     42.599032     85.198065
     -4.939940     40.115322     40.115322     80.230643
     -4.929930     37.081907     37.081907     74.163814
     -4.919920     33.978783     33.978783     67.957565
     -4.909910     31.420114     31.420114     62.840229
     -4.899900     30.077346     30.077346     60.154692
     -4.889890     30.554070     30.554070     61.108140
     -4.879880     33.205932     33.205932     66.411864
     -4.869870     37.942471     37.942471     75.884943
     -4.859860     44.101047     44.101047     88.202095
     -4.849850     50.497619     50.497619    100.995239
     -4.839840     55.700510     55.700510    111.401020
     -4.829830     58.457801     58.457801    116.915602
     -4.819820     58.105872     58.105872    116.211743
     -4.809810     54.771708     54.771708    109.543415
     -4.799800     49.277390     49.277390     98.554779
     -4.789790     42.806042     42.806042     85.612084
     -4.779780     36.498872     36.498872     72.997744
     -4.769770     31.158117     31.158117     62.316233
     -4.759760     27.142694     27.142694     54.285389
     -4.749750     24.432855     24.432855     48.865709
     -4.739740     22.776217     22.776217     45.552434
     -4.729730     21.829956     21.829956     43.659912
     -4.719720     21.254924     21.254924     42.509849
     -4.709710     20.759022     20.759022     41.518044
     -4.699700     20.110291     20.110291     40.220581
     -4.689690     19.145865     19.145865     38.291730
     -4.679680     17.796108     17.796108     35.592216
     -4.669670     16.126757     16.126757     32.253514
     -4.659660     14.381354     14.381354     28.762708
     -4.649650     12.992912     12.992912     25.985824
     -4.639640     12.536711     12.536711     25.073422
     -4.629630     13.614212     13.614212     27.228423
     -4.619620     16.682687     16.682687     33.365374
     -4.609610     21.869538     21.869538     43.739076
     -4.599600     28.831005     28.831005     57.662010
     -4.589590     36.724292     36.724292     73.448584
     -4.579580     44.344469     44.344469     88.688938
     -4.569570     50.422753     50.422753    100.845506
     -4.559560     54.005118     54.005118    108.010235
     -4.549550     54.770842     54.770842    109.541684
     -4.539540     53.152842     53.152842    106.305684
     -4.529530     50.196420     50.196420    100.392839
     -4.519520     47.205735     47.205735     94.411470
     -4.509510     45.317828     45.317828     90.635656
     -4.499499     45.165682     45.165682     90.331364
     -4.489489     46.739112     46.739112     93.478224
     -4.479479     49.460230     49.460230     98.920460
     -4.469469     52.409385     52.409385    104.818771
     -4.459459     54.602858     54.602858    109.205716
     -4.449449     55.237601     55.237601    110.475203
     -4.439439     53.857073     53.857073    107.714146
     -4.429429     50.426966     50.426966    100.853931
     -4.419419     45.326763     45.326763     90.653525
     -4.409409     39.266926     39.266926     78.533853
     -4.399399     33.144216     33.144216     66.288432
     -4.389389     27.856417     27.856417     55.712833
     -4.379379     24.111283     24.111283     48.222567
     -4.369369     22.275335     22.275335     44.550670
     -4.359359     22.307372     22.307372     44.614744
     -4.349349     23.803057     23.803057     47.606115
     -4.339339     26.142153     26.142153     52.284306
     -4.329329     28.691216     28.691216     57.382432
     -4.319319     30.991021     30.991021     61.982042
     -4.309309     32.864133     32.864133     65.728266
     -4.299299     34.411955     34.411955     68.823910
     -4.289289     35.913450     35.913450     71.826901
     -4.279279     37.667917     37.667917     75.335834
     -4.269269     39.833543     39.833543     79.667086
     -4.259259     42.310083     42.310083     84.620166
     -4.249249     44.707484     44.707484     89.414967
     -4.239239     46.428943     46.428943     92.857886
     -4.229229     46.863429     46.863429     93.726857
     -4.219219     45.628805     45.628805     91.257611
     -4.209209     42.760615     42.760615     85.521229
     -4.199199     38.744670     38.744670     77.489339
     -4.189189     34.360265     34.360265     68.720530
     -4.179179     30.401339     30.401339     60.802679
     -4.169169     27.410808     27.410808     54.821616
     -4.159159     25.552719     25.552719     51.105437
     -4.149149     24.666811     24.666811     49.333622
     -4.139139     24.453769     24.453769     48.907538
     -4.129129     24.681793     24.681793     49.363587
     -4.119119     25.307614     25.307614     50.615228
     -4.109109     26.455089     26.455089     52.910177
     -4.099099     28.265357     28.265357     56.530714
     -4.089089     30.698102     30.698102     61.396203
     -4.079079     33.398184     33.398184     66.796369
     -4.069069     35.722767     35.722767     71.445535
     -4.059059     36.946846     36.946846     73.893693
     -4.049049     36.562741     36.562741     73.125483
     -4.039039     34.523001     34.523001     69.046003
     -4.029029     31.295940     31.295940     62.591879
     -4.019019     27.703859     27.703859     55.407718
     -4.009009     24.633087     24.633087     49.266175
     -3.998999     22.765127     22.765127     45.530254
     -3.988989     22.444885     22.444885     44.889770
     -3.978979     23.706254     23.706254     47.412508
     -3.968969     26.386999     26.386999     52.773997
     -3.958959     30.239485     30.239485     60.478969
     -3.948949     34.984950     34.984950     69.969900
     -3.938939     40.322934     40.322934     80.645869
     -3.928929     45.941036     45.941036     91.882073
     -3.918919     51.552370     51.552370    103.104739
     -3.908909     56.942341     56.942341    113.884682
     -3.898899     61.977333     61.977333    123.954667
     -3.888889     66.543593     66.543593    133.087186
     -3.878879     70.435773     70.435773    140.871545
     -3.868869     73.263836     73.263836    146.527671
     -3.858859     74.457146     74.457146    148.914293
     -3.848849     73.403104     73.403104    146.806209
     -3.838839     69.684414     69.684414    139.368828
     -3.828829     63.314920     63.314920    126.629840
     -3.818819     54.857926     54.857926    109.715851
     -3.808809     45.356455     45.356455     90.712909
     -3.798799     36.089235     36.089235     72.178470
     -3.788789     28.243069     28.243069     56.486138
     -3.778779     22.621674     22.621674     45.243349
     -3.768769     19.484254     19.484254     38.968508
     -3.758759     18.547587     18.547587     37.095173
     -3.748749     19.128176     19.128176     38.256352
     -3.738739     20.367965     20.367965     40.735929
     -3.728729     21.479514     21.479514     42.959029
     -3.718719     21.953614     21.953614     43.907228
     -3.708709     21.684386     21.684386     43.368772
     -3.698699     20.981998     20.981998     41.963997
     -3.688689     20.463954     20.463954     40.927909
     -3.678679     20.844961     20.844961     41.689921
     -3.668669     22.679145     22.679145     45.358291
     -3.658659     26.135474     26.135474     52.270948
     -3.648649     30.890643     30.890643     61.781287
     -3.638639     36.190629     36.190629     72.381259
     -3.628629     41.066949     41.066949     82.133898
     -3.618619     44.624955     44.624955     89.249910
     -3.608609     46.288850     46.288850     92.577700
     -3.598599     45.914672     45.914672     91.829345
     -3.588589     43.752696     43.752696     87.505392
     -3.578579     40.308560     40.308560     80.617119
     -3.568569     36.177422     36.177422     72.354844
     -3.558559     31.904467     31.904467     63.808934
     -3.548549     27.889748     27.889748     55.779495
     -3.538539     24.337894     24.337894     48.675788
     -3.528529     21.256753     21.256753     42.513507
     -3.518519     18.511556     18.511556     37.023113
     -3.508509     15.925072     15.925072     31.850144
     -3.498498     13.387600     13.387600     26.775201
     -3.488488     10.928641     10.928641     21.857282
     -3.478478      8.719185      8.719185     17.438369
     -3.468468      7.008880      7.008880     14.017761
     -3.458458      6.030653      6.030653     12.061306
     -3.448448      5.911241      5.911241     11.822482
     -3.438438      6.614782      6.614782     13.229565
     -3.428428      7.933155      7.933155     15.866310
     -3.418418      9.528695      9.528695     19.057391
     -3.408408     11.026351     11.026351     22.052703
     -3.398398     12.135520     12.135520     24.271039
     -3.388388     12.761156     12.761156     25.522312
     -3.378378     13.055916     13.055916     26.111831
     -3.368368     13.383560     13.383560     26.767121
     -3.358358     14.203056     14.203056     28.406113
     -3.348348     15.918559     15.918559     31.837117
     -3.338338     18.749083     18.749083     37.498165
     -3.328328     22.650548     22.650548     45.301096
     -3.318318     27.293580     27.293580     54.587159
     -3.308308     32.088876     32.088876     64.177752
     -3.298298     36.262818     36.262818     72.525637
     -3.288288     38.996420     38.996420     77.992841
     -3.278278     39.622980     39.622980     79.245961
     -3.268268     37.834111     37.834111     75.668222
     -3.258258     33.806460     33.806460     67.612920
     -3.248248     28.174612     28.174612     56.349224
     -3.238238     21.844890     21.844890     43.689780
     -3.228228     15.727343     15.727343     31.454686
     -3.218218     10.502063     10.502063     21.004127
     -3.208208      6.507297      6.507297     13.014594
     -3.198198      3.766437      3.766437      7.532874
     -3.188188      2.108229      2.108229      4.216457
     -3.178178      1.312031      1.312031      2.624061
     -3.168168      1.225639      1.225639      2.451278
     -3.158158      1.832111      1.832111      3.664223
     -3.148148      3.261425      3.261425      6.522849
     -3.138138      5.747300      5.747300     11.494599
     -3.128128      9.530104      9.530104     19.060207
     -3.118118     14.717811     14.717811     29.435622
     -3.108108     21.142477     21.142477     42.284953
     -3.098098     28.275827     28.275827     56.551654
     -3.088088     35.269284     35.269284     70.538568
     -3.078078     41.143011     41.143011     82.286021
     -3.068068     45.074275     45.074275     90.148551
     -3.058058     46.666962     46.666962     93.333924
     -3.048048     46.070245     46.070245     92.140490
     -3.038038     43.877543     43.877543     87.755086
     -3.028028     40.849766     40.849766     81.699532
     -3.018018     37.603670     37.603670     75.207340
     -3.008008     34.424687     34.424687     68.849374
     -2.997998     31.289477     31.289477     62.578953
     -2.987988     28.062534     28.062534     56.125068
     -2.977978     24.738610     24.738610     49.477220
     -2.967968     21.590971     21.590971     43.181942
     -2.957958     19.151223     19.151223     38.302446
     -2.947948     18.039769     18.039769     36.079538
     -2.937938     18.731741     18.731741     37.463481
     -2.927928     21.357029     21.357029     42.714059
     -2.917918     25.606327     25.606327     51.212653
     -2.907908     30.772939     30.772939     61.545879
     -2.897898     35.919027     35.919027     71.838054
     -2.887888     40.118919     40.118919     80.237838
     -2.877878     42.704663     42.704663     85.409327
     -2.867868     43.430531     43.430531     86.861061
     -2.857858     42.495653     42.495653     84.991306
     -2.847848     40.416410     40.416410     80.832821
     -2.837838     37.802745     37.802745     75.605490
     -2.827828     35.134544     35.134544     70.269087
     -2.817818     32.632041     32.632041     65.264083
     -2.807808     30.266597     30.266597     60.533193
     -2.797798     27.888391     27.888391     55.776782
     -2.787788     25.391633     25.391633     50.783265
     -2.777778     22.825023     22.825023     45.650045
     -2.767768     20.392032     20.392032     40.784063
     -2.757758     18.351286     18.351286     36.702573
     -2.747748     16.885008     16.885008     33.770017
     -2.737738     16.019621     16.019621     32.039243
     -2.727728     15.647279     15.647279     31.294557
     -2.717718     15.630876     15.630876     31.261752
     -2.707708     15.919197     15.919197     31.838394
     -2.697698     16.590065     16.590065     33.180131
     -2.687688     17.785987     17.785987     35.571975
     -2.677678     19.580359     19.580359     39.160718
     -2.667668     21.864277     21.864277     43.728554
     -2.657658     24.337088     24.337088     48.674175
     -2.647648     26.618891     26.618891     53.237782
     -2.637638     28.421860     28.421860     56.843720
     -2.627628     29.675457     29.675457     59.350914
     -2.617618     30.529446     30.529446     61.058891
     -2.607608     31.238908     31.238908     62.477816
     -2.597598     32.009605     32.009605     64.019210
     -2.587588     32.896783     32.896783     65.793567
     -2.577578     33.799821     33.799821     67.599642
     -2.567568     34.524393     34.524393     69.048785
     -2.557558     34.850991     34.850991     69.701982
     -2.547548     34.573783     34.573783     69.147567
     -2.537538     33.523984     33.523984     67.047968
     -2.527528     31.614597     31.614597     63.229194
     -2.517518     28.916214     28.916214     57.832429
     -2.507508     25.723881     25.723881     51.447763
     -2.497497     22.552132     22.552132     45.104264
     -2.487487     20.024468     20.024468     40.048936
     -2.477477     18.685850     18.685850     37.371700
     -2.467467     18.818162     18.818162     37.636325
     -2.457457     20.345702     20.345702     40.691403
     -2.447447     22.877879     22.877879     45.755758
     -2.437437     25.872552     25.872552     51.745104
     -2.427427     28.847161     28.847161     57.694321
     -2.417417     31.541702     31.541702     63.083404
     -2.407407     33.958528     33.958528     67.917056
     -2.397397     36.261172     36.261172     72.522344
     -2.387387     38.582769     38.582769     77.165539
     -2.377377     40.841817     40.841817     81.683635
     -2.367367     42.665064     42.665064     85.330128
     -2.357357     43.470396     43.470396     86.940791
     -2.347347     42.686112     42.686112     85.372224
     -2.337337     40.012735     40.012735     80.025471
     -2.327327     35.606454     35.606454     71.212908
     -2.317317     30.097107     30.097107     60.194215
     -2.307307     24.432043     24.432043     48.864086
     -2.297297     19.616299     19.616299     39.232597
     -2.287287     16.455777     16.455777     32.911555
     -2.277277     15.390032     15.390032     30.780063
     -2.267267     16.447641     16.447641     32.895282
     -2.257257     19.306385     19.306385     38.612770
     -2.247247     23.414621     23.414621     46.829243
     -2.237237     28.128146     28.128146     56.256291
     -2.227227     32.826060     32.826060     65.652121
     -2.217217     36.982563     36.982563     73.965125
     -2.207207     40.189734     40.189734     80.379467
     -2.197197     42.148466     42.148466     84.296933
     -2.187187     42.660472     42.660472     85.320945
     -2.177177     41.649473     41.649473     83.298946
     -2.167167     39.210439     39.210439     78.420879
     -2.157157     35.648912     35.648912     71.297824
     -2.147147     31.457925     31.457925     62.915850
     -2.137137     27.207136     27.207136     54.414273
     -2.127127     23.375583     23.375583     46.751167
     -2.117117     20.206464     20.206464     40.412928
     -2.107107     17.661564     17.661564     35.323128
     -2.097097     15.499835     15.499835     30.999671
     -2.087087     13.434080     13.434080     26.868159
     -2.077077     11.279533     11.279533     22.559065
     -2.067067      9.022813      9.022813     18.045625
     -2.057057      6.793818      6.793818     13.587636
     -2.047047      4.777257      4.777257      9.554514
     -2.037037      3.122048      3.122048      6.244095
     -2.027027      1.891189      1.891189      3.782379
     -2.017017      1.061448      1.061448      2.122895
     -2.007007      0.555722      0.555722      1.111445
     -1.996997      0.283361      0.283361      0.566722
     -1.986987      0.171499      0.171499      0.342999
     -1.976977      0.182831      0.182831      0.365662
     -1.966967      0.323093      0.323093      0.646186
     -1.956957      0.642258      0.642258      1.284517
     -1.946947      1.229381      1.229381      2.458763
     -1.936937      2.196825      2.196825      4.393649
     -1.926927      3.649672      3.649672      7.299344
     -1.916917      5.642349      5.642349     11.284698
     -1.906907      8.134552      8.134552     16.269105
     -1.896897     10.965919     10.965919     21.931838
     -1.886887     13.866525     13.866525     27.733050
     -1.876877     16.507029     16.507029     33.014058
     -1.866867     18.575028     18.575028     37.150057
     -1.856857     19.853233     19.853233     39.706465
     -1.846847     20.275218     20.275218     40.550436
     -1.836837     19.942175     19.942175     39.884349
     -1.826827     19.093202     19.093202     38.186404
     -1.816817     18.032189     18.032189     36.064377
     -1.806807     17.029759     17.029759     34.059518
     -1.796797     16.236582     16.236582     32.473163
     -1.786787     15.650371     15.650371     31.300742
     -1.776777     15.158991     15.158991     30.317982
     -1.766767     14.639717     14.639717     29.279433
     -1.756757     14.056238     14.056238     28.112477
     -1.746747     13.491060     13.491060     26.982120
     -1.736737     13.090247     13.090247     26.180493
     -1.726727     12.956023     12.956023     25.912046
     -1.716717     13.060016     13.060016     26.120031
     -1.706707     13.238887     13.238887     26.477774
     -1.696697     13.280975     13.280975     26.561950
     -1.686687     13.052418     13.052418     26.104837
     -1.676677     12.583637     12.583637     25.167274
     -1.666667     12.059585     12.059585     24.119169
     -1.656657     11.715244     11.715244     23.430487
     -1.646647     11.695050     11.695050     23.390099
     -1.636637     11.957090     11.957090     23.914181
     -1.626627     12.278229     12.278229     24.556458
