# EIG2DOS: Utility for SIESTA to obtain the electronic density of states
#  E. Artacho, Apr 1999, A. Garcia, Apr 2012
#  Nick R. Papior, Feb 2017
# ------------------------------------------
# Eigenvalues calculated from a non-polarized calculation
# Eigenvalues read from siesta.EIG
# Kpoint weights read from siesta.KP
# Using smearing parameter:   0.0500
# Using 1000 points in the energy range
# Selected bands: 1 to: 2981
# Emin, Emax in file for selected band(s):    -27.2760514    218.3902220
# Nbands, Nspin, Nk   =   2981     1     1
# E_F                 =    -4.2052 eV --> (shifted to ZERO)
# Broadening          =     0.0500 eV
#
#        E            N(up)  (=)   N(down)         Ntot
     -5.000000     31.807372     31.807372     63.614745
     -4.989990     36.833121     36.833121     73.666242
     -4.979980     41.557966     41.557966     83.115933
     -4.969970     45.168232     45.168232     90.336463
     -4.959960     46.980343     46.980343     93.960687
     -4.949950     46.668873     46.668873     93.337746
     -4.939940     44.380363     44.380363     88.760727
     -4.929930     40.701395     40.701395     81.402790
     -4.919920     36.516170     36.516170     73.032341
     -4.909910     32.819354     32.819354     65.638708
     -4.899900     30.532932     30.532932     61.065864
     -4.889890     30.339245     30.339245     60.678489
     -4.879880     32.527413     32.527413     65.054826
     -4.869870     36.873656     36.873656     73.747312
     -4.859860     42.612254     42.612254     85.224509
     -4.849850     48.558032     48.558032     97.116064
     -4.839840     53.389463     53.389463    106.778926
     -4.829830     56.016676     56.016676    112.033352
     -4.819820     55.896245     55.896245    111.792489
     -4.809810     53.162089     53.162089    106.324178
     -4.799800     48.521991     48.521991     97.043982
     -4.789790     42.977143     42.977143     85.954286
     -4.779780     37.495512     37.495512     74.991024
     -4.769770     32.770724     32.770724     65.541449
     -4.759760     29.135721     29.135721     58.271442
     -4.749750     26.618705     26.618705     53.237411
     -4.739740     25.073349     25.073349     50.146698
     -4.729730     24.304805     24.304805     48.609609
     -4.719720     24.138529     24.138529     48.277057
     -4.709710     24.419559     24.419559     48.839118
     -4.699700     24.968392     24.968392     49.936785
     -4.689690     25.543576     25.543576     51.087153
     -4.679680     25.859999     25.859999     51.719998
     -4.669670     25.681619     25.681619     51.363238
     -4.659660     24.959224     24.959224     49.918448
     -4.649650     23.943520     23.943520     47.887041
     -4.639640     23.197046     23.197046     46.394092
     -4.629630     23.463298     23.463298     46.926596
     -4.619620     25.414132     25.414132     50.828264
     -4.609610     29.359640     29.359640     58.719281
     -4.599600     35.040015     35.040015     70.080030
     -4.589590     41.606217     41.606217     83.212434
     -4.579580     47.831293     47.831293     95.662586
     -4.569570     52.496142     52.496142    104.992283
     -4.559560     54.805501     54.805501    109.611001
     -4.549550     54.660695     54.660695    109.321390
     -4.539540     52.669302     52.669302    105.338605
     -4.529530     49.886680     49.886680     99.773361
     -4.519520     47.402374     47.402374     94.804749
     -4.509510     45.946489     45.946489     91.892979
     -4.499499     45.670546     45.670546     91.341091
     -4.489489     46.170936     46.170936     92.341872
     -4.479479     46.716518     46.716518     93.433037
     -4.469469     46.564049     46.564049     93.128098
     -4.459459     45.226383     45.226383     90.452766
     -4.449449     42.599641     42.599641     85.199283
     -4.439439     38.931301     38.931301     77.862603
     -4.429429     34.682491     34.682491     69.364982
     -4.419419     30.370957     30.370957     60.741915
     -4.409409     26.464028     26.464028     52.928057
     -4.399399     23.339479     23.339479     46.678958
     -4.389389     21.282543     21.282543     42.565085
     -4.379379     20.472800     20.472800     40.945600
     -4.369369     20.942423     20.942423     41.884845
     -4.359359     22.532052     22.532052     45.064104
     -4.349349     24.894046     24.894046     49.788092
     -4.339339     27.573977     27.573977     55.147953
     -4.329329     30.152733     30.152733     60.305466
     -4.319319     32.388539     32.388539     64.777079
     -4.309309     34.289907     34.289907     68.579813
     -4.299299     36.080322     36.080322     72.160643
     -4.289289     38.063275     38.063275     76.126550
     -4.279279     40.437784     40.437784     80.875567
     -4.269269     43.136584     43.136584     86.273168
     -4.259259     45.758681     45.758681     91.517361
     -4.249249     47.643169     47.643169     95.286338
     -4.239239     48.080914     48.080914     96.161828
     -4.229229     46.595497     46.595497     93.190993
     -4.219219     43.175423     43.175423     86.350846
     -4.209209     38.342558     38.342558     76.685116
     -4.199199     33.009569     33.009569     66.019137
     -4.189189     28.181115     28.181115     56.362230
     -4.179179     24.631172     24.631172     49.262344
     -4.169169     22.696278     22.696278     45.392555
     -4.159159     22.260625     22.260625     44.521251
     -4.149149     22.914301     22.914301     45.828602
     -4.139139     24.191848     24.191848     48.383695
     -4.129129     25.774936     25.774936     51.549873
     -4.119119     27.570881     27.570881     55.141763
     -4.109109     29.640180     29.640180     59.280360
     -4.099099     32.017815     32.017815     64.035630
     -4.089089     34.529187     34.529187     69.058374
     -4.079079     36.714993     36.714993     73.429987
     -4.069069     37.932733     37.932733     75.865467
     -4.059059     37.608291     37.608291     75.216582
     -4.049049     35.518552     35.518552     71.037104
     -4.039039     31.955478     31.955478     63.910956
     -4.029029     27.679749     27.679749     55.359499
     -4.019019     23.684694     23.684694     47.369387
     -4.009009     20.887446     20.887446     41.774891
     -3.998999     19.886831     19.886831     39.773662
     -3.988989     20.872255     20.872255     41.744510
     -3.978979     23.679921     23.679921     47.359842
     -3.968969     27.928627     27.928627     55.857255
     -3.958959     33.157374     33.157374     66.314748
     -3.948949     38.921180     38.921180     77.842360
     -3.938939     44.844365     44.844365     89.688729
     -3.928929     50.649286     50.649286    101.298573
     -3.918919     56.166687     56.166687    112.333374
     -3.908909     61.313055     61.313055    122.626110
     -3.898899     66.019948     66.019948    132.039895
     -3.888889     70.129071     70.129071    140.258142
     -3.878879     73.304581     73.304581    146.609162
     -3.868869     75.027143     75.027143    150.054285
     -3.858859     74.704891     74.704891    149.409782
     -3.848849     71.877175     71.877175    143.754350
     -3.838839     66.432268     66.432268    132.864535
     -3.828829     58.742462     58.742462    117.484925
     -3.818819     49.649760     49.649760     99.299520
     -3.808809     40.296627     40.296627     80.593253
     -3.798799     31.858025     31.858025     63.716050
     -3.788789     25.264847     25.264847     50.529695
     -3.778779     21.004253     21.004253     42.008505
     -3.768769     19.048128     19.048128     38.096256
     -3.758759     18.916665     18.916665     37.833329
     -3.748749     19.847568     19.847568     39.695137
     -3.738739     21.020669     21.020669     42.041339
     -3.728729     21.781674     21.781674     43.563348
     -3.718719     21.813062     21.813062     43.626124
     -3.708709     21.211425     21.211425     42.422850
     -3.698699     20.448252     20.448252     40.896504
     -3.688689     20.216002     20.216002     40.432004
     -3.678679     21.192516     21.192516     42.385032
     -3.668669     23.788574     23.788574     47.577147
     -3.658659     27.962807     27.962807     55.925614
     -3.648649     33.179168     33.179168     66.358337
     -3.638639     38.536523     38.536523     77.073046
     -3.628629     43.030053     43.030053     86.060106
     -3.618619     45.843970     45.843970     91.687940
     -3.608609     46.561585     46.561585     93.123170
     -3.598599     45.223481     45.223481     90.446961
     -3.588589     42.240027     42.240027     84.480053
     -3.578579     38.222722     38.222722     76.445443
     -3.568569     33.809146     33.809146     67.618292
     -3.558559     29.527498     29.527498     59.054995
     -3.548549     25.713430     25.713430     51.426860
     -3.538539     22.479360     22.479360     44.958720
     -3.528529     19.739568     19.739568     39.479136
     -3.518519     17.291055     17.291055     34.582111
     -3.508509     14.929761     14.929761     29.859522
     -3.498498     12.558676     12.558676     25.117353
     -3.488488     10.242004     10.242004     20.484009
     -3.478478      8.184831      8.184831     16.369661
     -3.468468      6.653793      6.653793     13.307587
     -3.458458      5.876684      5.876684     11.753368
     -3.448448      5.958123      5.958123     11.916245
     -3.438438      6.834392      6.834392     13.668784
     -3.428428      8.278251      8.278251     16.556501
     -3.418418      9.957764      9.957764     19.915528
     -3.408408     11.543344     11.543344     23.086687
     -3.398398     12.837375     12.837375     25.674750
     -3.388388     13.878668     13.878668     27.757337
     -3.378378     14.968484     14.968484     29.936968
     -3.368368     16.589113     16.589113     33.178225
     -3.358358     19.232522     19.232522     38.465045
     -3.348348     23.199550     23.199550     46.399101
     -3.338338     28.444306     28.444306     56.888612
     -3.328328     34.517853     34.517853     69.035705
     -3.318318     40.626309     40.626309     81.252617
     -3.308308     45.784735     45.784735     91.569470
     -3.298298     49.030543     49.030543     98.061086
     -3.288288     49.652005     49.652005     99.304010
     -3.278278     47.378344     47.378344     94.756688
     -3.268268     42.471846     42.471846     84.943692
     -3.258258     35.677693     35.677693     71.355386
     -3.248248     28.034222     28.034222     56.068445
     -3.238238     20.607449     20.607449     41.214898
     -3.228228     14.250100     14.250100     28.500201
     -3.218218      9.469178      9.469178     18.938356
     -3.208208      6.425964      6.425964     12.851928
     -3.198198      5.028191      5.028191     10.056382
     -3.188188      5.044956      5.044956     10.089911
     -3.178178      6.191662      6.191662     12.383323
     -3.168168      8.174058      8.174058     16.348116
     -3.158158     10.713799     10.713799     21.427598
     -3.148148     13.580560     13.580560     27.161120
     -3.138138     16.630125     16.630125     33.260250
     -3.128128     19.818846     19.818846     39.637692
     -3.118118     23.161751     23.161751     46.323502
     -3.108108     26.634640     26.634640     53.269281
     -3.098098     30.068961     30.068961     60.137922
     -3.088088     33.112545     33.112545     66.225091
     -3.078078     35.302257     35.302257     70.604515
     -3.068068     36.226882     36.226882     72.453764
     -3.058058     35.695656     35.695656     71.391312
     -3.048048     33.816706     33.816706     67.633412
     -3.038038     30.942107     30.942107     61.884214
     -3.028028     27.517674     27.517674     55.035347
     -3.018018     23.929996     23.929996     47.859992
     -3.008008     20.434958     20.434958     40.869915
     -2.997998     17.191350     17.191350     34.382700
     -2.987988     14.355734     14.355734     28.711469
     -2.977978     12.164608     12.164608     24.329215
     -2.967968     10.948569     10.948569     21.897138
     -2.957958     11.067777     11.067777     22.135553
     -2.947948     12.796479     12.796479     25.592957
     -2.937938     16.200801     16.200801     32.401602
     -2.927928     21.052577     21.052577     42.105155
     -2.917918     26.813035     26.813035     53.626069
     -2.907908     32.706019     32.706019     65.412038
     -2.897898     37.876745     37.876745     75.753490
     -2.887888     41.598948     41.598948     83.197895
     -2.877878     43.463465     43.463465     86.926931
     -2.867868     43.474357     43.474357     86.948713
     -2.857858     42.007151     42.007151     84.014301
     -2.847848     39.640773     39.640773     79.281547
     -2.837838     36.933632     36.933632     73.867264
     -2.827828     34.242721     34.242721     68.485442
     -2.817818     31.663548     31.663548     63.327096
     -2.807808     29.106381     29.106381     58.212761
     -2.797798     26.453941     26.453941     52.907882
     -2.787788     23.706482     23.706482     47.412963
     -2.777778     21.034124     21.034124     42.068248
     -2.767768     18.714608     18.714608     37.429216
     -2.757758     17.002691     17.002691     34.005381
     -2.747748     16.015467     16.015467     32.030933
     -2.737738     15.703579     15.703579     31.407159
     -2.727728     15.920539     15.920539     31.841077
     -2.717718     16.537076     16.537076     33.074152
     -2.707708     17.517258     17.517258     35.034517
     -2.697698     18.900101     18.900101     37.800202
     -2.687688     20.699137     20.699137     41.398273
     -2.677678     22.796361     22.796361     45.592722
     -2.667668     24.918814     24.918814     49.837627
     -2.657658     26.732647     26.732647     53.465293
     -2.647648     28.005493     28.005493     56.010987
     -2.637638     28.733606     28.733606     57.467211
     -2.627628     29.147455     29.147455     58.294909
     -2.617618     29.587883     29.587883     59.175765
     -2.607608     30.327843     30.327843     60.655686
     -2.597598     31.442646     31.442646     62.885293
     -2.587588     32.788552     32.788552     65.577105
     -2.577578     34.074367     34.074367     68.148734
     -2.567568     34.962829     34.962829     69.925659
     -2.557558     35.148250     35.148250     70.296501
     -2.547548     34.403171     34.403171     68.806341
     -2.537538     32.621000     32.621000     65.242000
     -2.527528     29.872994     29.872994     59.745988
     -2.517518     26.459449     26.459449     52.918898
     -2.507508     22.907319     22.907319     45.814639
     -2.497497     19.879078     19.879078     39.758157
     -2.487487     18.004165     18.004165     36.008330
     -2.477477     17.691925     17.691925     35.383850
     -2.467467     19.002960     19.002960     38.005919
     -2.457457     21.635516     21.635516     43.271031
     -2.447447     25.037153     25.037153     50.074306
     -2.437437     28.600148     28.600148     57.200297
     -2.427427     31.862204     31.862204     63.724407
     -2.417417     34.627697     34.627697     69.255394
     -2.407407     36.955396     36.955396     73.910792
     -2.397397     39.017636     39.017636     78.035271
     -2.387387     40.899353     40.899353     81.798705
     -2.377377     42.441963     42.441963     84.883925
     -2.367367     43.223854     43.223854     86.447708
     -2.357357     42.705559     42.705559     85.411118
     -2.347347     40.481157     40.481157     80.962313
     -2.337337     36.514998     36.514998     73.029995
     -2.327327     31.243962     31.243962     62.487924
     -2.317317     25.493441     25.493441     50.986882
     -2.307307     20.249528     20.249528     40.499055
     -2.297297     16.393028     16.393028     32.786057
     -2.287287     14.500014     14.500014     29.000027
     -2.277277     14.761357     14.761357     29.522714
     -2.267267     17.011908     17.011908     34.023816
     -2.257257     20.824089     20.824089     41.648178
     -2.247247     25.618551     25.618551     51.237103
     -2.237237     30.761548     30.761548     61.523095
     -2.227227     35.637440     35.637440     71.274880
     -2.217217     39.697541     39.697541     79.395083
     -2.207207     42.494118     42.494118     84.988237
     -2.197197     43.712120     43.712120     87.424240
     -2.187187     43.208291     43.208291     86.416582
     -2.177177     41.054168     41.054168     82.108335
     -2.167167     37.559757     37.559757     75.119514
     -2.157157     33.243075     33.243075     66.486149
     -2.147147     28.723996     28.723996     57.447992
     -2.137137     24.560899     24.560899     49.121797
     -2.127127     21.092527     21.092527     42.185054
     -2.117117     18.361005     18.361005     36.722009
     -2.107107     16.157214     16.157214     32.314429
     -2.097097     14.164776     14.164776     28.329552
     -2.087087     12.126186     12.126186     24.252372
     -2.077077      9.949271      9.949271     19.898542
     -2.067067      7.714465      7.714465     15.428931
     -2.057057      5.601825      5.601825     11.203650
     -2.047047      3.793210      3.793210      7.586420
     -2.037037      2.403102      2.403102      4.806205
     -2.027027      1.462095      1.462095      2.924191
     -2.017017      0.944624      0.944624      1.889248
     -2.007007      0.814953      0.814953      1.629906
     -1.996997      1.065357      1.065357      2.130714
     -1.986987      1.730112      1.730112      3.460223
     -1.976977      2.870441      2.870441      5.740882
     -1.966967      4.536155      4.536155      9.072309
     -1.956957      6.719360      6.719360     13.438720
     -1.946947      9.321984      9.321984     18.643968
     -1.936937     12.156373     12.156373     24.312746
     -1.926927     14.983719     14.983719     29.967439
     -1.916917     17.574100     17.574100     35.148199
     -1.906907     19.758101     19.758101     39.516203
     -1.896897     21.444799     21.444799     42.889599
     -1.886887     22.602671     22.602671     45.205342
     -1.876877     23.223892     23.223892     46.447783
     -1.866867     23.301614     23.301614     46.603228
     -1.856857     22.838566     22.838566     45.677132
     -1.846847     21.881662     21.881662     43.763325
     -1.836837     20.556059     20.556059     41.112119
     -1.826827     19.066149     19.066149     38.132298
     -1.816817     17.645953     17.645953     35.291906
     -1.806807     16.472186     16.472186     32.944372
     -1.796797     15.582957     15.582957     31.165914
     -1.786787     14.852298     14.852298     29.704596
     -1.776777     14.044835     14.044835     28.089670
     -1.766767     12.928659     12.928659     25.857319
     -1.756757     11.388343     11.388343     22.776686
     -1.746747      9.479932      9.479932     18.959865
     -1.736737      7.405826      7.405826     14.811652
     -1.726727      5.433783      5.433783     10.867566
     -1.716717      3.809805      3.809805      7.619611
     -1.706707      2.706197      2.706197      5.412394
     -1.696697      2.215058      2.215058      4.430117
     -1.686687      2.367482      2.367482      4.734964
     -1.676677      3.147929      3.147929      6.295858
     -1.666667      4.485084      4.485084      8.970168
     -1.656657      6.225006      6.225006     12.450012
     -1.646647      8.113715      8.113715     16.227430
     -1.636637      9.820280      9.820280     19.640560
     -1.626627     11.013208     11.013208     22.026415
