# EIG2DOS: Utility for SIESTA to obtain the electronic density of states
#  E. Artacho, Apr 1999, A. Garcia, Apr 2012
#  Nick R. Papior, Feb 2017
# ------------------------------------------
# Eigenvalues calculated from a non-polarized calculation
# Eigenvalues read from siesta.EIG
# Kpoint weights read from siesta.KP
# Using smearing parameter:   0.0500
# Using 1000 points in the energy range
# Selected bands: 1 to: 2981
# Emin, Emax in file for selected band(s):    -27.3075648    218.3972860
# Nbands, Nspin, Nk   =   2981     1     1
# E_F                 =    -4.1973 eV --> (shifted to ZERO)
# Broadening          =     0.0500 eV
#
#        E            N(up)  (=)   N(down)         Ntot
     -5.000000     31.625103     31.625103     63.250206
     -4.989990     36.840262     36.840262     73.680525
     -4.979980     41.775965     41.775965     83.551929
     -4.969970     45.564960     45.564960     91.129921
     -4.959960     47.479109     47.479109     94.958217
     -4.949950     47.173607     47.173607     94.347213
     -4.939940     44.806571     44.806571     89.613142
     -4.929930     41.000625     41.000625     82.001251
     -4.919920     36.685552     36.685552     73.371105
     -4.909910     32.894245     32.894245     65.788490
     -4.899900     30.566539     30.566539     61.133078
     -4.889890     30.376848     30.376848     60.753697
     -4.879880     32.584658     32.584658     65.169317
     -4.869870     36.927948     36.927948     73.855896
     -4.859860     42.612367     42.612367     85.224734
     -4.849850     48.449350     48.449350     96.898699
     -4.839840     53.143915     53.143915    106.287829
     -4.829830     55.652893     55.652893    111.305786
     -4.819820     55.480454     55.480454    110.960907
     -4.809810     52.791717     52.791717    105.583434
     -4.799800     48.304719     48.304719     96.609439
     -4.789790     43.020924     43.020924     86.041849
     -4.779780     37.917604     37.917604     75.835208
     -4.769770     33.719992     33.719992     67.439984
     -4.759760     30.809199     30.809199     61.618398
     -4.749750     29.247270     29.247270     58.494539
     -4.739740     28.857301     28.857301     57.714602
     -4.729730     29.300835     29.300835     58.601669
     -4.719720     30.131473     30.131473     60.262946
     -4.709710     30.841641     30.841641     61.683282
     -4.699700     30.933209     30.933209     61.866418
     -4.689690     30.025659     30.025659     60.051317
     -4.679680     27.980939     27.980939     55.961879
     -4.669670     24.996622     24.996622     49.993244
     -4.659660     21.618494     21.618494     43.236989
     -4.649650     18.651671     18.651671     37.303341
     -4.639640     16.986932     16.986932     33.973864
     -4.629630     17.384091     17.384091     34.768182
     -4.619620     20.260298     20.260298     40.520596
     -4.609610     25.530060     25.530060     51.060120
     -4.599600     32.546111     32.546111     65.092221
     -4.589590     40.187631     40.187631     80.375262
     -4.579580     47.112428     47.112428     94.224855
     -4.569570     52.124987     52.124987    104.249973
     -4.559560     54.540594     54.540594    109.081187
     -4.549550     54.397148     54.397148    108.794295
     -4.539540     52.413632     52.413632    104.827265
     -4.529530     49.701698     49.701698     99.403397
     -4.519520     47.347490     47.347490     94.694979
     -4.509510     46.035211     46.035211     92.070422
     -4.499499     45.856953     45.856953     91.713906
     -4.489489     46.364411     46.364411     92.728822
     -4.479479     46.814059     46.814059     93.628119
     -4.469469     46.485312     46.485312     92.970624
     -4.459459     44.938519     44.938519     89.877038
     -4.449449     42.124893     42.124893     84.249787
     -4.439439     38.337291     38.337291     76.674583
     -4.429429     34.060769     34.060769     68.121539
     -4.419419     29.812216     29.812216     59.624431
     -4.409409     26.037909     26.037909     52.075818
     -4.399399     23.083759     23.083759     46.167518
     -4.389389     21.202280     21.202280     42.404560
     -4.379379     20.546780     20.546780     41.093559
     -4.369369     21.133170     21.133170     42.266340
     -4.359359     22.796540     22.796540     45.593081
     -4.349349     25.193625     25.193625     50.387250
     -4.339339     27.882712     27.882712     55.765424
     -4.329329     30.463013     30.463013     60.926025
     -4.319319     32.712203     32.712203     65.424406
     -4.309309     34.653200     34.653200     69.306400
     -4.299299     36.512128     36.512128     73.024255
     -4.289289     38.578294     38.578294     77.156587
     -4.279279     41.019261     41.019261     82.038523
     -4.269269     43.725778     43.725778     87.451556
     -4.259259     46.258511     46.258511     92.517021
     -4.249249     47.939506     47.939506     95.879012
     -4.239239     48.076917     48.076917     96.153833
     -4.229229     46.246207     46.246207     92.492414
     -4.219219     42.507193     42.507193     85.014387
     -4.209209     37.447942     37.447942     74.895884
     -4.199199     32.020204     32.020204     64.040407
     -4.189189     27.231484     27.231484     54.462968
     -4.179179     23.828588     23.828588     47.657176
     -4.169169     22.106538     22.106538     44.213076
     -4.159159     21.909620     21.909620     43.819240
     -4.149149     22.799330     22.799330     45.598660
     -4.139139     24.294817     24.294817     48.589634
     -4.129129     26.071421     26.071421     52.142842
     -4.119119     28.031888     28.031888     56.063776
     -4.109109     30.226635     30.226635     60.453271
     -4.099099     32.671636     32.671636     65.343273
     -4.089089     35.168267     35.168267     70.336534
     -4.079079     37.239708     37.239708     74.479416
     -4.069069     38.246446     38.246446     76.492892
     -4.059059     37.645593     37.645593     75.291186
     -4.049049     35.268364     35.268364     70.536728
     -4.039039     31.467125     31.467125     62.934249
     -4.029029     27.048866     27.048866     54.097731
     -4.019019     23.026470     23.026470     46.052939
     -4.009009     20.309850     20.309850     40.619700
     -3.998999     19.473279     19.473279     38.946559
     -3.988989     20.675336     20.675336     41.350672
     -3.978979     23.721760     23.721760     47.443519
     -3.968969     28.203064     28.203064     56.406127
     -3.958959     33.632941     33.632941     67.265882
     -3.948949     39.547220     39.547220     79.094441
     -3.938939     45.562001     45.562001     91.124001
     -3.928929     51.404802     51.404802    102.809604
     -3.918919     56.920932     56.920932    113.841865
     -3.908909     62.040755     62.040755    124.081510
     -3.898899     66.698189     66.698189    133.396379
     -3.888889     70.721683     70.721683    141.443365
     -3.878879     73.753449     73.753449    147.506899
     -3.868869     75.259124     75.259124    150.518249
     -3.858859     74.654494     74.654494    149.308988
     -3.848849     71.515514     71.515514    143.031027
     -3.838839     65.787937     65.787937    131.575874
     -3.828829     57.903156     57.903156    115.806312
     -3.818819     48.742743     48.742743     97.485487
     -3.808809     39.455999     39.455999     78.911998
     -3.798799     31.191582     31.191582     62.383163
     -3.788789     24.831580     24.831580     49.663159
     -3.778779     20.807506     20.807506     41.615012
     -3.768769     19.043281     19.043281     38.086561
     -3.758759     19.028639     19.028639     38.057279
     -3.748749     19.992677     19.992677     39.985354
     -3.738739     21.127885     21.127885     42.255770
     -3.728729     21.809241     21.809241     43.618482
     -3.718719     21.757210     21.757210     43.514421
     -3.708709     21.105189     21.105189     42.210378
     -3.698699     20.350312     20.350312     40.700624
     -3.688689     20.191911     20.191911     40.383823
     -3.678679     21.293119     21.293119     42.586237
     -3.668669     24.032015     24.032015     48.064029
     -3.658659     28.326267     28.326267     56.652533
     -3.648649     33.603658     33.603658     67.207316
     -3.638639     38.943313     38.943313     77.886625
     -3.628629     43.342608     43.342608     86.685217
     -3.618619     46.007269     46.007269     92.014538
     -3.608609     46.552609     46.552609     93.105217
     -3.598599     45.051327     45.051327     90.102653
     -3.588589     41.938388     41.938388     83.876777
     -3.578579     37.839077     37.839077     75.678155
     -3.568569     33.393904     33.393904     66.787808
     -3.558559     29.124582     29.124582     58.249164
     -3.548549     25.353176     25.353176     50.706352
     -3.538539     22.175016     22.175016     44.350031
     -3.528529     19.488725     19.488725     38.977451
     -3.518519     17.081876     17.081876     34.163752
     -3.508509     14.749663     14.749663     29.499326
     -3.498498     12.401962     12.401962     24.803924
     -3.488488     10.113951     10.113951     20.227903
     -3.478478      8.102487      8.102487     16.204974
     -3.468468      6.646451      6.646451     13.292903
     -3.458458      5.990234      5.990234     11.980468
     -3.448448      6.266504      6.266504     12.533008
     -3.438438      7.457955      7.457955     14.915909
     -3.428428      9.402749      9.402749     18.805498
     -3.418418     11.839754     11.839754     23.679509
     -3.408408     14.481803     14.481803     28.963607
     -3.398398     17.094700     17.094700     34.189400
     -3.388388     19.553360     19.553360     39.106721
     -3.378378     21.854617     21.854617     43.709234
     -3.368368     24.088151     24.088151     48.176301
     -3.358358     26.386811     26.386811     52.773621
     -3.348348     28.877986     28.877986     57.755973
     -3.338338     31.639263     31.639263     63.278526
     -3.328328     34.645910     34.645910     69.291821
     -3.318318     37.707286     37.707286     75.414572
     -3.308308     40.422077     40.422077     80.844153
     -3.298298     42.207269     42.207269     84.414539
     -3.288288     42.437789     42.437789     84.875578
     -3.278278     40.669958     40.669958     81.339917
     -3.268268     36.853350     36.853350     73.706699
     -3.258258     31.418231     31.418231     62.836463
     -3.248248     25.182072     25.182072     50.364145
     -3.238238     19.113823     19.113823     38.227646
     -3.228228     14.063631     14.063631     28.127263
     -3.218218     10.565988     10.565988     21.131975
     -3.208208      8.768068      8.768068     17.536136
     -3.198198      8.471256      8.471256     16.942512
     -3.188188      9.242978      9.242978     18.485955
     -3.178178     10.560648     10.560648     21.121295
     -3.168168     11.963182     11.963182     23.926364
     -3.158158     13.184864     13.184864     26.369728
     -3.148148     14.233615     14.233615     28.467230
     -3.138138     15.373409     15.373409     30.746818
     -3.128128     16.996877     16.996877     33.993753
     -3.118118     19.423737     19.423737     38.847474
     -3.108108     22.706083     22.706083     45.412166
     -3.098098     26.532182     26.532182     53.064364
     -3.088088     30.283799     30.283799     60.567597
     -3.078078     33.232134     33.232134     66.464267
     -3.068068     34.788944     34.788944     69.577888
     -3.058058     34.699503     34.699503     69.399005
     -3.048048     33.092427     33.092427     66.184854
     -3.038038     30.375685     30.375685     60.751370
     -3.028028     27.047225     27.047225     54.094449
     -3.018018     23.526099     23.526099     47.052198
     -3.008008     20.084332     20.084332     40.168665
     -2.997998     16.890831     16.890831     33.781663
     -2.987988     14.113027     14.113027     28.226053
     -2.977978     11.998797     11.998797     23.997594
     -2.967968     10.885900     10.885900     21.771801
     -2.957958     11.132707     11.132707     22.265413
     -2.947948     13.001084     13.001084     26.002169
     -2.937938     16.536342     16.536342     33.072684
     -2.927928     21.486189     21.486189     42.972377
     -2.917918     27.291108     27.291108     54.582215
     -2.907908     33.164072     33.164072     66.328145
     -2.897898     38.253550     38.253550     76.507099
     -2.887888     41.850843     41.850843     83.701686
     -2.877878     43.574056     43.574056     87.148112
     -2.867868     43.455867     43.455867     86.911734
     -2.857858     41.892585     41.892585     83.785170
     -2.847848     39.469783     39.469783     78.939567
     -2.837838     36.737958     36.737958     73.475915
     -2.827828     34.037611     34.037611     68.075222
     -2.817818     31.448834     31.448834     62.897668
     -2.807808     28.875953     28.875953     57.751907
     -2.797798     26.207806     26.207806     52.415611
     -2.787788     23.458208     23.458208     46.916416
     -2.777778     20.809406     20.809406     41.618811
     -2.767768     18.542211     18.542211     37.084421
     -2.757758     16.903888     16.903888     33.807777
     -2.747748     15.998928     15.998928     31.997856
     -2.737738     15.768794     15.768794     31.537588
     -2.727728     16.066522     16.066522     32.133043
     -2.717718     16.768542     16.768542     33.537084
     -2.707708     17.841340     17.841340     35.682680
     -2.697698     19.313299     19.313299     38.626599
     -2.687688     21.172563     21.172563     42.345126
     -2.677678     23.271271     23.271271     46.542542
     -2.667668     25.319975     25.319975     50.639949
     -2.657658     26.995974     26.995974     53.991947
     -2.647648     28.105881     28.105881     56.211763
     -2.637638     28.696905     28.696905     57.393811
     -2.627628     29.039217     29.039217     58.078435
     -2.617618     29.485157     29.485157     58.970314
     -2.607608     30.289307     30.289307     60.578614
     -2.597598     31.490892     31.490892     62.981784
     -2.587588     32.908764     32.908764     65.817528
     -2.577578     34.224152     34.224152     68.448305
     -2.567568     35.085262     35.085262     70.170525
     -2.557558     35.184197     35.184197     70.368394
     -2.547548     34.303835     34.303835     68.607671
     -2.537538     32.361972     32.361972     64.723944
     -2.527528     29.466906     29.466906     58.933811
     -2.517518     25.960569     25.960569     51.921139
     -2.507508     22.402641     22.402641     44.805282
     -2.497497     19.466641     19.466641     38.933281
     -2.487487     17.766120     17.766120     35.532239
     -2.477477     17.672621     17.672621     35.345242
     -2.467467     19.199783     19.199783     38.399566
     -2.457457     22.004552     22.004552     44.009103
     -2.447447     25.510118     25.510118     51.020235
     -2.437437     29.105595     29.105595     58.211190
     -2.427427     32.343379     32.343379     64.686758
     -2.417417     35.051252     35.051252     70.102503
     -2.407407     37.308720     37.308720     74.617439
     -2.397397     39.296955     39.296955     78.593909
     -2.387387     41.094726     41.094726     82.189451
     -2.377377     42.527434     42.527434     85.054867
     -2.367367     43.159621     43.159621     86.319241
     -2.357357     42.453455     42.453455     84.906910
     -2.347347     40.026993     40.026993     80.053986
     -2.337337     35.885960     35.885960     71.771921
     -2.327327     30.510577     30.510577     61.021155
     -2.317317     24.753686     24.753686     49.507373
     -2.307307     19.602410     19.602410     39.204821
     -2.297297     15.913962     15.913962     31.827924
     -2.287287     14.227788     14.227788     28.455576
     -2.277277     14.699110     14.699110     29.398220
     -2.267267     17.137535     17.137535     34.275071
     -2.257257     21.102648     21.102648     42.205296
     -2.247247     26.010706     26.010706     52.021412
     -2.237237     31.225885     31.225885     62.451771
     -2.227227     36.128291     36.128291     72.256583
     -2.217217     40.162352     40.162352     80.324704
     -2.207207     42.874781     42.874781     85.749563
     -2.197197     43.952860     43.952860     87.905720
     -2.187187     43.269082     43.269082     86.538163
     -2.177177     40.924670     40.924670     81.849341
     -2.167167     37.266535     37.266535     74.533070
     -2.157157     32.844395     32.844395     65.688790
     -2.147147     28.292090     28.292090     56.584179
     -2.137137     24.158430     24.158430     48.316861
     -2.127127     20.753990     20.753990     41.507981
     -2.117117     18.087721     18.087721     36.175443
     -2.107107     15.927541     15.927541     31.855081
     -2.097097     13.953533     13.953533     27.907066
     -2.087087     11.924262     11.924262     23.848525
     -2.077077      9.777479      9.777479     19.554958
     -2.067067      7.632275      7.632275     15.264549
     -2.057057      5.716143      5.716143     11.432287
     -2.047047      4.270693      4.270693      8.541385
     -2.037037      3.481013      3.481013      6.962026
     -2.027027      3.441806      3.441806      6.883612
     -2.017017      4.146250      4.146250      8.292500
     -2.007007      5.479596      5.479596     10.959193
     -1.996997      7.216268      7.216268     14.432535
     -1.986987      9.038311      9.038311     18.076623
     -1.976977     10.594853     10.594853     21.189707
     -1.966967     11.600832     11.600832     23.201664
     -1.956957     11.941812     11.941812     23.883624
     -1.946947     11.733649     11.733649     23.467298
     -1.936937     11.297805     11.297805     22.595610
     -1.926927     11.051618     11.051618     22.103236
     -1.916917     11.355483     11.355483     22.710967
     -1.906907     12.380535     12.380535     24.761069
     -1.896897     14.049504     14.049504     28.099008
     -1.886887     16.068535     16.068535     32.137069
     -1.876877     18.029325     18.029325     36.058650
     -1.866867     19.538193     19.538193     39.076386
     -1.856857     20.328009     20.328009     40.656019
     -1.846847     20.323361     20.323361     40.646722
     -1.836837     19.646240     19.646240     39.292481
     -1.826827     18.562594     18.562594     37.125187
     -1.816817     17.382536     17.382536     34.765072
     -1.806807     16.343598     16.343598     32.687196
     -1.796797     15.521401     15.521401     31.042802
     -1.786787     14.810409     14.810409     29.620818
     -1.776777     13.989116     13.989116     27.978232
     -1.766767     12.840149     12.840149     25.680297
     -1.756757     11.264331     11.264331     22.528663
     -1.746747      9.332188      9.332188     18.664376
     -1.736737      7.254713      7.254713     14.509426
     -1.726727      5.300931      5.300931     10.601863
     -1.716717      3.712711      3.712711      7.425422
     -1.706707      2.656412      2.656412      5.312824
     -1.696697      2.219092      2.219092      4.438183
     -1.686687      2.427979      2.427979      4.855957
     -1.676677      3.263013      3.263013      6.526026
     -1.666667      4.645599      4.645599      9.291197
     -1.656657      6.411626      6.411626     12.823253
     -1.646647      8.297067      8.297067     16.594134
     -1.636637      9.966332      9.966332     19.932664
     -1.626627     11.093447     11.093447     22.186894
