# EIG2DOS: Utility for SIESTA to obtain the electronic density of states
#  E. Artacho, Apr 1999, A. Garcia, Apr 2012
#  Nick R. Papior, Feb 2017
# ------------------------------------------
# Eigenvalues calculated from a non-polarized calculation
# Eigenvalues read from siesta.EIG
# Kpoint weights read from siesta.KP
# Using smearing parameter:   0.0500
# Using 1000 points in the energy range
# Selected bands: 1 to: 2981
# Emin, Emax in file for selected band(s):    -27.0422910    218.3255900
# Nbands, Nspin, Nk   =   2981     1     1
# E_F                 =    -4.2820 eV --> (shifted to ZERO)
# Broadening          =     0.0500 eV
#
#        E            N(up)  (=)   N(down)         Ntot
     -5.000000     41.669556     41.669556     83.339111
     -4.989990     43.329524     43.329524     86.659047
     -4.979980     44.516321     44.516321     89.032642
     -4.969970     45.006633     45.006633     90.013266
     -4.959960     44.575090     44.575090     89.150181
     -4.949950     43.110698     43.110698     86.221397
     -4.939940     40.698945     40.698945     81.397891
     -4.929930     37.646216     37.646216     75.292431
     -4.919920     34.454420     34.454420     68.908839
     -4.909910     31.763763     31.763763     63.527526
     -4.899900     30.267785     30.267785     60.535570
     -4.889890     30.586725     30.586725     61.173451
     -4.879880     33.090808     33.090808     66.181617
     -4.869870     37.705936     37.705936     75.411872
     -4.859860     43.787691     43.787691     87.575382
     -4.849850     50.167074     50.167074    100.334148
     -4.839840     55.416666     55.416666    110.833333
     -4.829830     58.272953     58.272953    116.545907
     -4.819820     58.046584     58.046584    116.093168
     -4.809810     54.833455     54.833455    109.666910
     -4.799800     49.430686     49.430686     98.861371
     -4.789790     43.010620     43.010620     86.021241
     -4.779780     36.718708     36.718708     73.437416
     -4.769770     31.370947     31.370947     62.741894
     -4.759760     27.341887     27.341887     54.683773
     -4.749750     24.623508     24.623508     49.247016
     -4.739740     22.968787     22.968787     45.937574
     -4.729730     22.033830     22.033830     44.067661
     -4.719720     21.473192     21.473192     42.946384
     -4.709710     20.985371     20.985371     41.970742
     -4.699700     20.329027     20.329027     40.658054
     -4.689690     19.335247     19.335247     38.670495
     -4.679680     17.933527     17.933527     35.867055
     -4.669670     16.192994     16.192994     32.385987
     -4.659660     14.361644     14.361644     28.723287
     -4.649650     12.874891     12.874891     25.749781
     -4.639640     12.308092     12.308092     24.616184
     -4.629630     13.264194     13.264194     26.528388
     -4.619620     16.209389     16.209389     32.418779
     -4.609610     21.291609     21.291609     42.583217
     -4.599600     28.197163     28.197163     56.394325
     -4.589590     36.112898     36.112898     72.225796
     -4.579580     43.848374     43.848374     87.696747
     -4.569570     50.121814     50.121814    100.243627
     -4.559560     53.936100     53.936100    107.872199
     -4.549550     54.906969     54.906969    109.813938
     -4.539540     53.400670     53.400670    106.801341
     -4.529530     50.408572     50.408572    100.817143
     -4.519520     47.200728     47.200728     94.401456
     -4.509510     44.898738     44.898738     89.797475
     -4.499499     44.138199     44.138199     88.276398
     -4.489489     44.940065     44.940065     89.880130
     -4.479479     46.809167     46.809167     93.618335
     -4.469469     48.981254     48.981254     97.962508
     -4.459459     50.693707     50.693707    101.387413
     -4.449449     51.375469     51.375469    102.750937
     -4.439439     50.718108     50.718108    101.436216
     -4.429429     48.659186     48.659186     97.318372
     -4.419419     45.340897     45.340897     90.681794
     -4.409409     41.087457     41.087457     82.174914
     -4.399399     36.395196     36.395196     72.790391
     -4.389389     31.891672     31.891672     63.783344
     -4.379379     28.226928     28.226928     56.453855
     -4.369369     25.908664     25.908664     51.817329
     -4.359359     25.146936     25.146936     50.293872
     -4.349349     25.789661     25.789661     51.579322
     -4.339339     27.392229     27.392229     54.784458
     -4.329329     29.396025     29.396025     58.792049
     -4.319319     31.335693     31.335693     62.671386
     -4.309309     32.985750     32.985750     65.971499
     -4.299299     34.393394     34.393394     68.786789
     -4.289289     35.798568     35.798568     71.597137
     -4.279279     37.483001     37.483001     74.966003
     -4.269269     39.604742     39.604742     79.209483
     -4.259259     42.071922     42.071922     84.143844
     -4.249249     44.501667     44.501667     89.003334
     -4.239239     46.295426     46.295426     92.590852
     -4.229229     46.827998     46.827998     93.655997
     -4.219219     45.692897     45.692897     91.385794
     -4.209209     42.898791     42.898791     85.797581
     -4.199199     38.912234     38.912234     77.824468
     -4.189189     34.508703     34.508703     69.017405
     -4.179179     30.495204     30.495204     60.990408
     -4.169169     27.438846     27.438846     54.877692
     -4.159159     25.528932     25.528932     51.057863
     -4.149149     24.621911     24.621911     49.243823
     -4.139139     24.421380     24.421380     48.842760
     -4.129129     24.685205     24.685205     49.370410
     -4.119119     25.352051     25.352051     50.704102
     -4.109109     26.528098     26.528098     53.056197
     -4.099099     28.344796     28.344796     56.689593
     -4.089089     30.763943     30.763943     61.527886
     -4.079079     33.442306     33.442306     66.884613
     -4.069069     35.751540     35.751540     71.503079
     -4.059059     36.975112     36.975112     73.950225
     -4.049049     36.602904     36.602904     73.205809
     -4.039039     34.576050     34.576050     69.152099
     -4.029029     31.350064     31.350064     62.700128
     -4.019019     27.741373     27.741373     55.482746
     -4.009009     24.640979     24.640979     49.281959
     -3.998999     22.742428     22.742428     45.484857
     -3.988989     22.402456     22.402456     44.804912
     -3.978979     23.659662     23.659662     47.319324
     -3.968969     26.347277     26.347277     52.694554
     -3.958959     30.207036     30.207036     60.414072
     -3.948949     34.948941     34.948941     69.897882
     -3.938939     40.264851     40.264851     80.529702
     -3.928929     45.839541     45.839541     91.679082
     -3.918919     51.387922     51.387922    102.775845
     -3.908909     56.702408     56.702408    113.404817
     -3.898899     61.663532     61.663532    123.327064
     -3.888889     66.179693     66.179693    132.359387
     -3.878879     70.071871     70.071871    140.143742
     -3.868869     72.970820     72.970820    145.941640
     -3.858859     74.309215     74.309215    148.618430
     -3.848849     73.453216     73.453216    146.906433
     -3.838839     69.943409     69.943409    139.886819
     -3.828829     63.744911     63.744911    127.489822
     -3.818819     55.383760     55.383760    110.767519
     -3.808809     45.889811     45.889811     91.779623
     -3.798799     36.554248     36.554248     73.108496
     -3.788789     28.593355     28.593355     57.186709
     -3.778779     22.844608     22.844608     45.689215
     -3.768769     19.594702     19.594702     39.189403
     -3.758759     18.576514     18.576514     37.153028
     -3.748749     19.111053     19.111053     38.222107
     -3.738739     20.335587     20.335587     40.671174
     -3.728729     21.451852     21.451852     42.903704
     -3.718719     21.936567     21.936567     43.873134
     -3.708709     21.669513     21.669513     43.339026
     -3.698699     20.949590     20.949590     41.899180
     -3.688689     20.389564     20.389564     40.779129
     -3.678679     20.708495     20.708495     41.416990
     -3.668669     22.474137     22.474137     44.948274
     -3.658659     25.875092     25.875092     51.750184
     -3.648649     30.607318     30.607318     61.214636
     -3.638639     35.928409     35.928409     71.856817
     -3.628629     40.869078     40.869078     81.738156
     -3.618619     44.521762     44.521762     89.043524
     -3.608609     46.290956     46.290956     92.581911
     -3.598599     46.013616     46.013616     92.027232
     -3.588589     43.927179     43.927179     87.854357
     -3.578579     40.532241     40.532241     81.064481
     -3.568569     36.424789     36.424789     72.849579
     -3.558559     32.153741     32.153741     64.307482
     -3.548549     28.123858     28.123858     56.247717
     -3.538539     24.544934     24.544934     49.089868
     -3.528529     21.430326     21.430326     42.860652
     -3.518519     18.650499     18.650499     37.300998
     -3.508509     16.032033     16.032033     32.064065
     -3.498498     13.466735     13.466735     26.933470
     -3.488488     10.983367     10.983367     21.966735
     -3.478478      8.750949      8.750949     17.501898
     -3.468468      7.017368      7.017368     14.034736
     -3.458458      6.015247      6.015247     12.030494
     -3.448448      5.873134      5.873134     11.746267
     -3.438438      6.558894      6.558894     13.117787
     -3.428428      7.868930      7.868930     15.737861
     -3.418418      9.469010      9.469010     18.938020
     -3.408408     10.984380     10.984380     21.968760
     -3.398398     12.120390     12.120390     24.240780
     -3.388388     12.773966     12.773966     25.547931
     -3.378378     13.087708     13.087708     26.175416
     -3.368368     13.416038     13.416038     26.832076
     -3.358358     14.211812     14.211812     28.423623
     -3.348348     15.878110     15.878110     31.756220
     -3.338338     18.639135     18.639135     37.278270
     -3.328328     22.462946     22.462946     44.925892
     -3.318318     27.038638     27.038638     54.077276
     -3.308308     31.798418     31.798418     63.596835
     -3.298298     35.986730     35.986730     71.973459
     -3.288288     38.791319     38.791319     77.582638
     -3.278278     39.535572     39.535572     79.071144
     -3.268268     37.885683     37.885683     75.771367
     -3.258258     33.985683     33.985683     67.971366
     -3.248248     28.442234     28.442234     56.884469
     -3.238238     22.147947     22.147947     44.295894
     -3.228228     16.015926     16.015926     32.031852
     -3.218218     10.741209     10.741209     21.482418
     -3.208208      6.679755      6.679755     13.359509
     -3.198198      3.866201      3.866201      7.732402
     -3.188188      2.127003      2.127003      4.254006
     -3.178178      1.220602      1.220602      2.441204
     -3.168168      0.951183      0.951183      1.902367
     -3.158158      1.233524      1.233524      2.467048
     -3.148148      2.109522      2.109522      4.219045
     -3.138138      3.724021      3.724021      7.448042
     -3.128128      6.265549      6.265549     12.531098
     -3.118118      9.878839      9.878839     19.757679
     -3.108108     14.566668     14.566668     29.133336
     -3.098098     20.113707     20.113707     40.227414
     -3.088088     26.070926     26.070926     52.141851
     -3.078078     31.823230     31.823230     63.646459
     -3.068068     36.726466     36.726466     73.452932
     -3.058058     40.261611     40.261611     80.523221
     -3.048048     42.140861     42.140861     84.281723
     -3.038038     42.326720     42.326720     84.653439
     -3.028028     40.976936     40.976936     81.953871
     -3.018018     38.369298     38.369298     76.738596
     -3.008008     34.859644     34.859644     69.719289
     -2.997998     30.885195     30.885195     61.770390
     -2.987988     26.977440     26.977440     53.954879
     -2.977978     23.733658     23.733658     47.467317
     -2.967968     21.725089     21.725089     43.450177
     -2.957958     21.368060     21.368060     42.736120
     -2.947948     22.813831     22.813831     45.627663
     -2.937938     25.903645     25.903645     51.807290
     -2.927928     30.199738     30.199738     60.399476
     -2.917918     35.070513     35.070513     70.141026
     -2.907908     39.799716     39.799716     79.599431
     -2.897898     43.701697     43.701697     87.403395
     -2.887888     46.236668     46.236668     92.473337
     -2.877878     47.114757     47.114757     94.229515
     -2.867868     46.360217     46.360217     92.720433
     -2.857858     44.298985     44.298985     88.597969
     -2.847848     41.452407     41.452407     82.904814
     -2.837838     38.363422     38.363422     76.726844
     -2.827828     35.422846     35.422846     70.845691
     -2.817818     32.772747     32.772747     65.545493
     -2.807808     30.330021     30.330021     60.660041
     -2.797798     27.912525     27.912525     55.825050
     -2.787788     25.396778     25.396778     50.793556
     -2.777778     22.821388     22.821388     45.642776
     -2.767768     20.383389     20.383389     40.766777
     -2.757758     18.337245     18.337245     36.674490
     -2.747748     16.862649     16.862649     33.725299
     -2.737738     15.984024     15.984024     31.968047
     -2.727728     15.590783     15.590783     31.181567
     -2.717718     15.542272     15.542272     31.084545
     -2.707708     15.784986     15.784986     31.569973
     -2.697698     16.399319     16.399319     32.798637
     -2.687688     17.537907     17.537907     35.075814
     -2.677678     19.290845     19.290845     38.581690
     -2.667668     21.566711     21.566711     43.133422
     -2.657658     24.074630     24.074630     48.149259
     -2.647648     26.430250     26.430250     52.860500
     -2.637638     28.326945     28.326945     56.653890
     -2.627628     29.668277     29.668277     59.336554
     -2.617618     30.581937     30.581937     61.163874
     -2.607608     31.313279     31.313279     62.626558
     -2.597598     32.072477     32.072477     64.144955
     -2.587588     32.928748     32.928748     65.857496
     -2.577578     33.798104     33.798104     67.596207
     -2.567568     34.500506     34.500506     69.001011
     -2.557558     34.826406     34.826406     69.652813
     -2.547548     34.574886     34.574886     69.149772
     -2.537538     33.575685     33.575685     67.151370
     -2.527528     31.732403     31.732403     63.464806
     -2.517518     29.098900     29.098900     58.197800
     -2.507508     25.950587     25.950587     51.901174
     -2.497497     22.786534     22.786534     45.573067
     -2.487487     20.225097     20.225097     40.450194
     -2.477477     18.818274     18.818274     37.636547
     -2.467467     18.863896     18.863896     37.727791
     -2.457457     20.304760     20.304760     40.609521
     -2.447447     22.765222     22.765222     45.530443
     -2.437437     25.711207     25.711207     51.422413
     -2.427427     28.661473     28.661473     57.322946
     -2.417417     31.353003     31.353003     62.706006
     -2.407407     33.783652     33.783652     67.567304
     -2.397397     36.112932     36.112932     72.225864
     -2.387387     38.471227     38.471227     76.942455
     -2.377377     40.775652     40.775652     81.551304
     -2.367367     42.652564     42.652564     85.305128
     -2.357357     43.519358     43.519358     87.038715
     -2.347347     42.801840     42.801840     85.603680
     -2.337337     40.194285     40.194285     80.388571
     -2.327327     35.842966     35.842966     71.685932
     -2.317317     30.366966     30.366966     60.733931
     -2.307307     24.706474     24.706474     49.412948
     -2.297297     19.866332     19.866332     39.732665
     -2.287287     16.659268     16.659268     33.318536
     -2.277277     15.535417     15.535417     31.070834
     -2.267267     16.533232     16.533232     33.066464
     -2.257257     19.336660     19.336660     38.673320
     -2.247247     23.396410     23.396410     46.792820
     -2.237237     28.069050     28.069050     56.138100
     -2.227227     32.735497     32.735497     65.470994
     -2.217217     36.873799     36.873799     73.747597
     -2.207207     40.080448     40.080448     80.160897
     -2.197197     42.058255     42.058255     84.116509
     -2.187187     42.605737     42.605737     85.211474
     -2.177177     41.638048     41.638048     83.276096
     -2.167167     39.238808     39.238808     78.477616
     -2.157157     35.703724     35.703724     71.407447
     -2.147147     31.521363     31.521363     63.042726
     -2.137137     27.263795     27.263795     54.527590
     -2.127127     23.417829     23.417829     46.835658
     -2.117117     20.236042     20.236042     40.472083
     -2.107107     17.687044     17.687044     35.374087
     -2.097097     15.531448     15.531448     31.062895
     -2.087087     13.478579     13.478579     26.957158
     -2.077077     11.337434     11.337434     22.674868
     -2.067067      9.088868      9.088868     18.177736
     -2.057057      6.859893      6.859893     13.719785
     -2.047047      4.835776      4.835776      9.671552
     -2.037037      3.168360      3.168360      6.336720
     -2.027027      1.924166      1.924166      3.848331
     -2.017017      1.082643      1.082643      2.165287
     -2.007007      0.567941      0.567941      1.135881
     -1.996997      0.289351      0.289351      0.578701
     -1.986987      0.173121      0.173121      0.346242
     -1.976977      0.180667      0.180667      0.361334
     -1.966967      0.316338      0.316338      0.632675
     -1.956957      0.628824      0.628824      1.257648
     -1.946947      1.206298      1.206298      2.412596
     -1.936937      2.161109      2.161109      4.322218
     -1.926927      3.599687      3.599687      7.199373
     -1.916917      5.579337      5.579337     11.158673
     -1.906907      8.063649      8.063649     16.127298
     -1.896897     10.895861     10.895861     21.791721
     -1.886887     13.807676     13.807676     27.615351
     -1.876877     16.468179     16.468179     32.936357
     -1.866867     18.560170     18.560170     37.120340
     -1.856857     19.859689     19.859689     39.719378
     -1.846847     20.293906     20.293906     40.587812
     -1.836837     19.959695     19.959695     39.919389
     -1.826827     19.094325     19.094325     38.188650
     -1.816817     18.000351     18.000351     36.000702
     -1.806807     16.942599     16.942599     33.885199
     -1.796797     16.053692     16.053692     32.107385
     -1.786787     15.292404     15.292404     30.584808
     -1.776777     14.482145     14.482145     28.964290
     -1.766767     13.417320     13.417320     26.834639
     -1.756757     11.986653     11.986653     23.973305
     -1.746747     10.252346     10.252346     20.504693
     -1.736737      8.450058      8.450058     16.900117
     -1.726727      6.918062      6.918062     13.836123
     -1.716717      5.994826      5.994826     11.989652
     -1.706707      5.926736      5.926736     11.853472
     -1.696697      6.809342      6.809342     13.618684
     -1.686687      8.565980      8.565980     17.131960
     -1.676677     10.959183     10.959183     21.918366
     -1.666667     13.630348     13.630348     27.260696
     -1.656657     16.162244     16.162244     32.324488
     -1.646647     18.153548     18.153548     36.307095
     -1.636637     19.290054     19.290054     38.580107
     -1.626627     19.399359     19.399359     38.798718
