# EIG2DOS: Utility for SIESTA to obtain the electronic density of states
#  E. Artacho, Apr 1999, A. Garcia, Apr 2012
#  Nick R. Papior, Feb 2017
# ------------------------------------------
# Eigenvalues calculated from a non-polarized calculation
# Eigenvalues read from siesta.EIG
# Kpoint weights read from siesta.KP
# Using smearing parameter:   0.0500
# Using 1000 points in the energy range
# Selected bands: 1 to: 2981
# Emin, Emax in file for selected band(s):    -27.2745248    218.3774630
# Nbands, Nspin, Nk   =   2981     1     1
# E_F                 =    -4.2256 eV --> (shifted to ZERO)
# Broadening          =     0.0500 eV
#
#        E            N(up)  (=)   N(down)         Ntot
     -5.000000     33.908666     33.908666     67.817332
     -4.989990     38.158460     38.158460     76.316920
     -4.979980     41.809906     41.809906     83.619811
     -4.969970     44.276566     44.276566     88.553131
     -4.959960     45.129251     45.129251     90.258502
     -4.949950     44.238066     44.238066     88.476132
     -4.939940     41.825941     41.825941     83.651883
     -4.929930     38.426854     38.426854     76.853709
     -4.919920     34.782149     34.782149     69.564299
     -4.909910     31.716813     31.716813     63.433626
     -4.899900     30.014661     30.014661     60.029323
     -4.889890     30.283920     30.283920     60.567840
     -4.879880     32.804660     32.804660     65.609319
     -4.869870     37.385323     37.385323     74.770645
     -4.859860     43.299248     43.299248     86.598495
     -4.849850     49.378603     49.378603     98.757207
     -4.839840     54.287943     54.287943    108.575887
     -4.829830     56.904858     56.904858    113.809717
     -4.819820     56.660190     56.660190    113.320379
     -4.809810     53.690374     53.690374    107.380747
     -4.799800     48.738744     48.738744     97.477487
     -4.789790     42.863207     42.863207     85.726415
     -4.779780     37.091994     37.091994     74.183988
     -4.769770     32.170747     32.170747     64.341493
     -4.759760     28.473260     28.473260     56.946519
     -4.749750     26.057557     26.057557     52.115113
     -4.739740     24.791499     24.791499     49.582998
     -4.729730     24.466981     24.466981     48.933962
     -4.719720     24.854703     24.854703     49.709406
     -4.709710     25.697277     25.697277     51.394554
     -4.699700     26.677308     26.677308     53.354616
     -4.689690     27.415286     27.415286     54.830572
     -4.679680     27.538794     27.538794     55.077587
     -4.669670     26.820251     26.820251     53.640502
     -4.659660     25.326631     25.326631     50.653262
     -4.649650     23.496188     23.496188     46.992376
     -4.639640     22.077093     22.077093     44.154187
     -4.629630     21.922709     21.922709     43.845418
     -4.619620     23.704895     23.704895     47.409789
     -4.609610     27.647372     27.647372     55.294745
     -4.599600     33.381563     33.381563     66.763127
     -4.589590     39.990915     39.990915     79.981830
     -4.579580     46.247872     46.247872     92.495744
     -4.569570     50.976685     50.976685    101.953369
     -4.559560     53.419352     53.419352    106.838703
     -4.549550     53.468680     53.468680    106.937361
     -4.539540     51.676191     51.676191    103.352382
     -4.529530     49.029926     49.029926     98.059851
     -4.519520     46.589714     46.589714     93.179428
     -4.509510     45.122355     45.122355     90.244711
     -4.499499     44.872433     44.872433     89.744866
     -4.489489     45.541812     45.541812     91.083624
     -4.479479     46.462668     46.462668     92.925337
     -4.469469     46.875075     46.875075     93.750150
     -4.459459     46.191656     46.191656     92.383312
     -4.449449     44.156669     44.156669     88.313338
     -4.439439     40.867476     40.867476     81.734953
     -4.429429     36.689537     36.689537     73.379075
     -4.419419     32.130506     32.130506     64.261011
     -4.409409     27.731770     27.731770     55.463541
     -4.399399     23.998613     23.998613     47.997226
     -4.389389     21.352468     21.352468     42.704935
     -4.379379     20.078140     20.078140     40.156280
     -4.369369     20.261002     20.261002     40.522004
     -4.359359     21.743123     21.743123     43.486247
     -4.349349     24.141296     24.141296     48.282592
     -4.339339     26.947492     26.947492     53.894983
     -4.329329     29.686018     29.686018     59.372036
     -4.319319     32.063731     32.063731     64.127463
     -4.309309     34.046416     34.046416     68.092832
     -4.299299     35.827270     35.827270     71.654541
     -4.289289     37.700539     37.700539     75.401078
     -4.279279     39.889530     39.889530     79.779061
     -4.269269     42.392590     42.392590     84.785179
     -4.259259     44.906551     44.906551     89.813102
     -4.249249     46.869058     46.869058     93.738116
     -4.239239     47.626126     47.626126     95.252251
     -4.229229     46.679190     46.679190     93.358381
     -4.219219     43.915068     43.915068     87.830135
     -4.209209     39.707799     39.707799     79.415599
     -4.199199     34.828015     34.828015     69.656029
     -4.189189     30.188379     30.188379     60.376758
     -4.179179     26.539817     26.539817     53.079634
     -4.169169     24.257609     24.257609     48.515218
     -4.159159     23.304377     23.304377     46.608754
     -4.149149     23.363377     23.363377     46.726754
     -4.139139     24.056296     24.056296     48.112593
     -4.129129     25.132343     25.132343     50.264686
     -4.119119     26.542163     26.542163     53.084326
     -4.109109     28.369733     28.369733     56.739467
     -4.099099     30.662713     30.662713     61.325425
     -4.089089     33.254346     33.254346     66.508693
     -4.079079     35.685479     35.685479     71.370959
     -4.069069     37.296031     37.296031     74.592063
     -4.059059     37.468138     37.468138     74.936275
     -4.049049     35.910639     35.910639     71.821277
     -4.039039     32.836485     32.836485     65.672971
     -4.029029     28.933734     28.933734     57.867467
     -4.019019     25.141639     25.141639     50.283279
     -4.009009     22.345814     22.345814     44.691629
     -3.998999     21.136608     21.136608     42.273216
     -3.988989     21.720880     21.720880     43.441760
     -3.978979     23.982944     23.982944     47.965888
     -3.968969     27.619363     27.619363     55.238725
     -3.958959     32.262565     32.262565     64.525130
     -3.948949     37.551154     37.551154     75.102307
     -3.938939     43.157597     43.157597     86.315195
     -3.928929     48.805527     48.805527     97.611054
     -3.918919     54.290013     54.290013    108.580025
     -3.908909     59.481635     59.481635    118.963271
     -3.898899     64.285424     64.285424    128.570849
     -3.888889     68.552673     68.552673    137.105346
     -3.878879     71.987176     71.987176    143.974351
     -3.868869     74.111624     74.111624    148.223248
     -3.858859     74.342396     74.342396    148.684793
     -3.848849     72.168516     72.168516    144.337032
     -3.838839     67.372291     67.372291    134.744582
     -3.828829     60.197319     60.197319    120.394638
     -3.818819     51.382050     51.382050    102.764100
     -3.808809     42.029301     42.029301     84.058603
     -3.798799     33.349371     33.349371     66.698741
     -3.788789     26.364524     26.364524     52.729047
     -3.778779     21.673328     21.673328     43.346657
     -3.768769     19.344138     19.344138     38.688276
     -3.758759     18.957088     18.957088     37.914176
     -3.748749     19.767699     19.767699     39.535399
     -3.738739     20.937533     20.937533     41.875066
     -3.728729     21.769765     21.769765     43.539531
     -3.718719     21.893508     21.893508     43.787016
     -3.708709     21.354042     21.354042     42.708083
     -3.698699     20.584820     20.584820     41.169641
     -3.688689     20.261965     20.261965     40.523930
     -3.678679     21.072923     21.072923     42.145845
     -3.668669     23.462654     23.462654     46.925308
     -3.658659     27.440730     27.440730     54.881459
     -3.648649     32.525369     32.525369     65.050737
     -3.638639     37.857248     37.857248     75.714496
     -3.628629     42.447971     42.447971     84.895942
     -3.618619     45.467686     45.467686     90.935373
     -3.608609     46.459921     46.459921     92.919842
     -3.598599     45.412181     45.412181     90.824362
     -3.588589     42.683367     42.683367     85.366734
     -3.578579     38.847276     38.847276     77.694553
     -3.568569     34.523991     34.523991     69.047982
     -3.558559     30.244780     30.244780     60.489560
     -3.548549     26.364491     26.364491     52.728983
     -3.538539     23.023438     23.023438     46.046876
     -3.528529     20.164242     20.164242     40.328484
     -3.518519     17.605880     17.605880     35.211760
     -3.508509     15.156414     15.156414     30.312828
     -3.498498     12.721526     12.721526     25.443053
     -3.488488     10.361937     10.361937     20.723874
     -3.478478      8.277059      8.277059     16.554117
     -3.468468      6.728458      6.728458     13.456915
     -3.458458      5.940292      5.940292     11.880584
     -3.448448      6.014376      6.014376     12.028752
     -3.438438      6.884126      6.884126     13.768253
     -3.428428      8.319177      8.319177     16.638355
     -3.418418      9.984998      9.984998     19.969995
     -3.408408     11.551188     11.551188     23.102376
     -3.398398     12.821869     12.821869     25.643738
     -3.388388     13.839415     13.839415     27.678830
     -3.378378     14.907864     14.907864     29.815728
     -3.368368     16.507706     16.507706     33.015411
     -3.358358     19.121751     19.121751     38.243503
     -3.348348     23.035726     23.035726     46.071452
     -3.338338     28.190395     28.190395     56.380789
     -3.328328     34.137648     34.137648     68.275296
     -3.318318     40.108914     40.108914     80.217827
     -3.308308     45.168218     45.168218     90.336436
     -3.298298     48.409170     48.409170     96.818340
     -3.288288     49.157473     49.157473     98.314947
     -3.278278     47.140847     47.140847     94.281694
     -3.268268     42.581947     42.581947     85.163894
     -3.258258     36.173096     36.173096     72.346191
     -3.248248     28.922173     28.922173     57.844347
     -3.238238     21.910664     21.910664     43.821328
     -3.228228     16.045336     16.045336     32.090672
     -3.218218     11.884368     11.884368     23.768736
     -3.208208      9.577867      9.577867     19.155735
     -3.198198      8.913017      8.913017     17.826034
     -3.188188      9.427477      9.427477     18.854954
     -3.178178     10.556495     10.556495     21.112990
     -3.168168     11.789703     11.789703     23.579406
     -3.158158     12.812521     12.812521     25.625042
     -3.148148     13.595265     13.595265     27.190530
     -3.138138     14.389834     14.389834     28.779667
     -3.128128     15.616382     15.616382     31.232765
     -3.118118     17.667497     17.667497     35.334993
     -3.108108     20.701770     20.701770     41.403540
     -3.098098     24.515219     24.515219     49.030438
     -3.088088     28.554109     28.554109     57.108217
     -3.078078     32.074158     32.074158     64.148317
     -3.068068     34.384310     34.384310     68.768620
     -3.058058     35.070997     35.070997     70.141995
     -3.048048     34.105945     34.105945     68.211890
     -3.038038     31.798073     31.798073     63.596146
     -3.028028     28.629507     28.629507     57.259013
     -3.018018     25.071320     25.071320     50.142639
     -3.008008     21.472990     21.472990     42.945980
     -2.997998     18.063957     18.063957     36.127914
     -2.987988     15.035082     15.035082     30.070164
     -2.977978     12.627506     12.627506     25.255012
     -2.967968     11.165129     11.165129     22.330259
     -2.957958     11.008254     11.008254     22.016508
     -2.947948     12.448025     12.448025     24.896050
     -2.937938     15.583771     15.583771     31.167542
     -2.927928     20.228364     20.228364     40.456727
     -2.917918     25.879433     25.879433     51.758867
     -2.907908     31.780365     31.780365     63.560730
     -2.897898     37.070985     37.070985     74.141970
     -2.887888     40.993990     40.993990     81.987980
     -2.877878     43.091530     43.091530     86.183060
     -2.867868     43.316563     43.316563     86.633126
     -2.857858     42.008784     42.008784     84.017568
     -2.847848     39.739477     39.739477     79.478953
     -2.837838     37.088960     37.088960     74.177919
     -2.827828     34.453124     34.453124     68.906248
     -2.817818     31.961667     31.961667     63.923333
     -2.807808     29.534365     29.534365     59.068730
     -2.797798     27.031633     27.031633     54.063265
     -2.787788     24.409724     24.409724     48.819447
     -2.777778     21.794897     21.794897     43.589794
     -2.767768     19.442214     19.442214     38.884429
     -2.757758     17.613500     17.613500     35.226999
     -2.747748     16.454995     16.454995     32.909990
     -2.737738     15.950946     15.950946     31.901893
     -2.727728     15.977254     15.977254     31.954508
     -2.717718     16.411874     16.411874     32.823749
     -2.707708     17.219934     17.219934     34.439867
     -2.697698     18.449169     18.449169     36.898338
     -2.687688     20.136215     20.136215     40.272430
     -2.677678     22.192945     22.192945     44.385889
     -2.667668     24.364536     24.364536     48.729072
     -2.657658     26.306733     26.306733     52.613467
     -2.647648     27.746210     27.746210     55.492421
     -2.637638     28.624104     28.624104     57.248208
     -2.627628     29.126992     29.126992     58.253984
     -2.617618     29.581527     29.581527     59.163054
     -2.607608     30.277320     30.277320     60.554639
     -2.597598     31.323467     31.323467     62.646934
     -2.587588     32.610678     32.610678     65.221355
     -2.577578     33.874401     33.874401     67.748802
     -2.567568     34.796513     34.796513     69.593026
     -2.557558     35.084199     35.084199     70.168398
     -2.547548     34.511828     34.511828     69.023656
     -2.537538     32.954598     32.954598     65.909196
     -2.527528     30.441564     30.441564     60.883127
     -2.517518     27.215554     27.215554     54.431107
     -2.507508     23.750335     23.750335     47.500671
     -2.497497     20.679210     20.679210     41.358420
     -2.487487     18.635182     18.635182     37.270364
     -2.477477     18.057997     18.057997     36.115993
     -2.467467     19.050413     19.050413     38.100826
     -2.457457     21.349726     21.349726     42.699452
     -2.447447     24.431516     24.431516     48.863032
     -2.437437     27.705160     27.705160     55.410321
     -2.427427     30.719663     30.719663     61.439325
     -2.417417     33.291402     33.291402     66.582804
     -2.407407     35.497493     35.497493     70.994986
     -2.397397     37.538209     37.538209     75.076419
     -2.387387     39.534126     39.534126     79.068253
     -2.377377     41.359380     41.359380     82.718761
     -2.367367     42.602445     42.602445     85.204889
     -2.357357     42.689820     42.689820     85.379640
     -2.347347     41.128293     41.128293     82.256585
     -2.337337     37.756747     37.756747     75.513493
     -2.327327     32.886585     32.886585     65.773170
     -2.317317     27.262053     27.262053     54.524107
     -2.307307     21.860126     21.860126     43.720251
     -2.297297     17.622004     17.622004     35.244009
     -2.287287     15.224854     15.224854     30.449707
     -2.277277     14.963202     14.963202     29.926404
     -2.267267     16.748814     16.748814     33.497628
     -2.257257     20.193543     20.193543     40.387085
     -2.247247     24.726964     24.726964     49.453928
     -2.237237     29.710584     29.710584     59.421169
     -2.227227     34.526920     34.526920     69.053839
     -2.217217     38.636148     38.636148     77.272296
     -2.207207     41.605132     41.605132     83.210264
     -2.197197     43.123751     43.123751     86.247502
     -2.187187     43.026715     43.026715     86.053430
     -2.177177     41.328615     41.328615     82.657230
     -2.167167     38.257022     38.257022     76.514045
     -2.157157     34.247922     34.247922     68.495843
     -2.147147     29.870709     29.870709     59.741419
     -2.137137     25.684885     25.684885     51.369771
     -2.127127     22.079188     22.079188     44.158376
     -2.117117     19.170184     19.170184     38.340369
     -2.107107     16.815512     16.815512     33.631025
     -2.097097     14.736230     14.736230     29.472459
     -2.087087     12.683012     12.683012     25.366023
     -2.077077     10.562397     10.562397     21.124795
     -2.067067      8.471003      8.471003     16.942007
     -2.057057      6.640979      6.640979     13.281959
     -2.047047      5.340304      5.340304     10.680609
     -2.037037      4.776412      4.776412      9.552824
     -2.027027      5.030184      5.030184     10.060369
     -2.017017      6.024617      6.024617     12.049234
     -2.007007      7.525659      7.525659     15.051319
     -1.996997      9.178612      9.178612     18.357224
     -1.986987     10.585310     10.585310     21.170619
     -1.976977     11.413522     11.413522     22.827045
     -1.966967     11.506652     11.506652     23.013304
     -1.956957     10.948193     10.948193     21.896387
     -1.946947     10.046702     10.046702     20.093403
     -1.936937      9.240183      9.240183     18.480367
     -1.926927      8.954556      8.954556     17.909111
     -1.916917      9.468918      9.468918     18.937837
     -1.906907     10.833686     10.833686     21.667372
     -1.896897     12.863626     12.863626     25.727251
     -1.886887     15.199979     15.199979     30.399959
     -1.876877     17.415148     17.415148     34.830296
     -1.866867     19.125404     19.125404     38.250808
     -1.856857     20.081563     20.081563     40.163126
     -1.846847     20.218887     20.218887     40.437775
     -1.836837     19.658246     19.658246     39.316492
     -1.826827     18.657760     18.657760     37.315520
     -1.816817     17.522549     17.522549     35.045097
     -1.806807     16.495233     16.495233     32.990466
     -1.796797     15.666806     15.666806     31.333612
     -1.786787     14.950397     14.950397     29.900793
     -1.776777     14.136966     14.136966     28.273932
     -1.766767     13.009569     13.009569     26.019139
     -1.756757     11.458610     11.458610     22.917221
     -1.746747      9.540026      9.540026     19.080053
     -1.736737      7.453364      7.453364     14.906729
     -1.726727      5.462851      5.462851     10.925701
     -1.716717      3.810876      3.810876      7.621751
     -1.706707      2.666010      2.666010      5.332020
     -1.696697      2.117194      2.117194      4.234388
     -1.686687      2.195293      2.195293      4.390587
     -1.676677      2.891038      2.891038      5.782076
     -1.666667      4.148516      4.148516      8.297033
     -1.656657      5.837101      5.837101     11.674202
     -1.646647      7.727110      7.727110     15.454220
     -1.636637      9.501645      9.501645     19.003290
     -1.626627     10.822321     10.822321     21.644641
