# EIG2DOS: Utility for SIESTA to obtain the electronic density of states
#  E. Artacho, Apr 1999, A. Garcia, Apr 2012
#  Nick R. Papior, Feb 2017
# ------------------------------------------
# Eigenvalues calculated from a non-polarized calculation
# Eigenvalues read from siesta.EIG
# Kpoint weights read from siesta.KP
# Using smearing parameter:   0.0500
# Using 1000 points in the energy range
# Selected bands: 1 to: 2981
# Emin, Emax in file for selected band(s):    -27.1690819    218.3450140
# Nbands, Nspin, Nk   =   2981     1     1
# E_F                 =    -4.2625 eV --> (shifted to ZERO)
# Broadening          =     0.0500 eV
#
#        E            N(up)  (=)   N(down)         Ntot
     -5.000000     35.959177     35.959177     71.918355
     -4.989990     39.006359     39.006359     78.012718
     -4.979980     41.943550     41.943550     83.887100
     -4.969970     44.127970     44.127970     88.255939
     -4.959960     45.018962     45.018962     90.037924
     -4.949950     44.351372     44.351372     88.702745
     -4.939940     42.215717     42.215717     84.431433
     -4.929930     39.036686     39.036686     78.073373
     -4.919920     35.482651     35.482651     70.965301
     -4.909910     32.348667     32.348667     64.697334
     -4.899900     30.433642     30.433642     60.867284
     -4.889890     30.403231     30.403231     60.806462
     -4.879880     32.626527     32.626527     65.253053
     -4.869870     37.009594     37.009594     74.019188
     -4.859860     42.898657     42.898657     85.797315
     -4.849850     49.142423     49.142423     98.284845
     -4.839840     54.353229     54.353229    108.706458
     -4.829830     57.305336     57.305336    114.610673
     -4.819820     57.317113     57.317113    114.634226
     -4.809810     54.448761     54.448761    108.897521
     -4.799800     49.428885     49.428885     98.857771
     -4.789790     43.355892     43.355892     86.711784
     -4.779780     37.322411     37.322411     74.644822
     -4.769770     32.123983     32.123983     64.247966
     -4.759760     28.141311     28.141311     56.282622
     -4.749750     25.385725     25.385725     50.771451
     -4.739740     23.632301     23.632301     47.264603
     -4.729730     22.558499     22.558499     45.116997
     -4.719720     21.839868     21.839868     43.679736
     -4.709710     21.195153     21.195153     42.390305
     -4.699700     20.399831     20.399831     40.799662
     -4.689690     19.295526     19.295526     38.591052
     -4.679680     17.815582     17.815582     35.631164
     -4.669670     16.028928     16.028928     32.057855
     -4.659660     14.183435     14.183435     28.366871
     -4.649650     12.718058     12.718058     25.436116
     -4.639640     12.217150     12.217150     24.434300
     -4.629630     13.297596     13.297596     26.595193
     -4.619620     16.441710     16.441710     32.883419
     -4.609610     21.812130     21.812130     43.624261
     -4.599600     29.107609     29.107609     58.215219
     -4.589590     37.531002     37.531002     75.062004
     -4.579580     45.923359     45.923359     91.846718
     -4.569570     53.058157     53.058157    106.116315
     -4.559560     58.005822     58.005822    116.011644
     -4.549550     60.420495     60.420495    120.840991
     -4.539540     60.616437     60.616437    121.232875
     -4.529530     59.394596     59.394596    118.789192
     -4.519520     57.699969     57.699969    115.399937
     -4.509510     56.266062     56.266062    112.532123
     -4.499499     55.393189     55.393189    110.786379
     -4.489489     54.927635     54.927635    109.855271
     -4.479479     54.412053     54.412053    108.824105
     -4.469469     53.314915     53.314915    106.629830
     -4.459459     51.238412     51.238412    102.476825
     -4.449449     48.038114     48.038114     96.076227
     -4.439439     43.838009     43.838009     87.676017
     -4.429429     38.967646     38.967646     77.935293
     -4.419419     33.869304     33.869304     67.738608
     -4.409409     29.017321     29.017321     58.034643
     -4.399399     24.865181     24.865181     49.730362
     -4.389389     21.806704     21.806704     43.613407
     -4.379379     20.127454     20.127454     40.254909
     -4.369369     19.940063     19.940063     39.880126
     -4.359359     21.128819     21.128819     42.257637
     -4.349349     23.346771     23.346771     46.693543
     -4.339339     26.093347     26.093347     52.186694
     -4.329329     28.858553     28.858553     57.717106
     -4.319319     31.279190     31.279190     62.558381
     -4.309309     33.240647     33.240647     66.481295
     -4.299299     34.881195     34.881195     69.762389
     -4.289289     36.497495     36.497495     72.994989
     -4.279279     38.386518     38.386518     76.773035
     -4.269269     40.678186     40.678186     81.356372
     -4.259259     43.217194     43.217194     86.434387
     -4.249249     45.545645     45.545645     91.091291
     -4.239239     47.015284     47.015284     94.030568
     -4.229229     47.011627     47.011627     94.023254
     -4.219219     45.212318     45.212318     90.424635
     -4.209209     41.762924     41.762924     83.525848
     -4.199199     37.272975     37.272975     74.545950
     -4.189189     32.617582     32.617582     65.235165
     -4.179179     28.632028     28.632028     57.264056
     -4.169169     25.843787     25.843787     51.687575
     -4.159159     24.361912     24.361912     48.723824
     -4.149149     23.955727     23.955727     47.911454
     -4.139139     24.259378     24.259378     48.518755
     -4.129129     24.987089     24.987089     49.974177
     -4.119119     26.052894     26.052894     52.105788
     -4.109109     27.542951     27.542951     55.085902
     -4.099099     29.561102     29.561102     59.122204
     -4.089089     32.032628     32.032628     64.065255
     -4.079079     34.581499     34.581499     69.162998
     -4.069069     36.571426     36.571426     73.142851
     -4.059059     37.320084     37.320084     74.640169
     -4.049049     36.395108     36.395108     72.790216
     -4.039039     33.841029     33.841029     67.682057
     -4.029029     30.213368     30.213368     60.426736
     -4.019019     26.399149     26.399149     52.798299
     -4.009009     23.317947     23.317947     46.635894
     -3.998999     21.651313     21.651313     43.302626
     -3.988989     21.712427     21.712427     43.424853
     -3.978979     23.474870     23.474870     46.949741
     -3.968969     26.695193     26.695193     53.390387
     -3.958959     31.038562     31.038562     62.077123
     -3.948949     36.153193     36.153193     72.306385
     -3.938939     41.697915     41.697915     83.395831
     -3.928929     47.359774     47.359774     94.719549
     -3.918919     52.884951     52.884951    105.769901
     -3.908909     58.107118     58.107118    116.214236
     -3.898899     62.933800     62.933800    125.867601
     -3.888889     67.269358     67.269358    134.538716
     -3.878879     70.902378     70.902378    141.804757
     -3.868869     73.427727     73.427727    146.855455
     -3.858859     74.274155     74.274155    148.548309
     -3.848849     72.860155     72.860155    145.720310
     -3.838839     68.829457     68.829457    137.658915
     -3.828829     62.264630     62.264630    124.529261
     -3.818819     53.774827     53.774827    107.549655
     -3.808809     44.404940     44.404940     88.809880
     -3.798799     35.391223     35.391223     70.782447
     -3.788789     27.851913     27.851913     55.703826
     -3.778779     22.520808     22.520808     45.041615
     -3.768769     19.604661     19.604661     39.209322
     -3.758759     18.792967     18.792967     37.585933
     -3.748749     19.398965     19.398965     38.797930
     -3.738739     20.580350     20.580350     41.160699
     -3.728729     21.578750     21.578750     43.157500
     -3.718719     21.921315     21.921315     43.842630
     -3.708709     21.538921     21.538921     43.077842
     -3.698699     20.771489     20.771489     41.542977
     -3.688689     20.253027     20.253027     40.506055
     -3.678679     20.698270     20.698270     41.396540
     -3.668669     22.645610     22.645610     45.291220
     -3.658659     26.236794     26.236794     52.473588
     -3.648649     31.116304     31.116304     62.232607
     -3.638639     36.500022     36.500022     73.000043
     -3.628629     41.397980     41.397980     82.795959
     -3.618619     44.907597     44.907597     89.815193
     -3.608609     46.461224     46.461224     92.922448
     -3.598599     45.938192     45.938192     91.876383
     -3.588589     43.621968     43.621968     87.243937
     -3.578579     40.052175     40.052175     80.104350
     -3.568569     35.848259     35.848259     71.696518
     -3.558559     31.562316     31.562316     63.124632
     -3.548549     27.582794     27.582794     55.165588
     -3.538539     24.090485     24.090485     48.180970
     -3.528529     21.067928     21.067928     42.135856
     -3.518519     18.363523     18.363523     36.727045
     -3.508509     15.796259     15.796259     31.592519
     -3.498498     13.263664     13.263664     26.527329
     -3.488488     10.807098     10.807098     21.614195
     -3.478478      8.607377      8.607377     17.214754
     -3.468468      6.918117      6.918117     13.836234
     -3.458458      5.970166      5.970166     11.940333
     -3.448448      5.884444      5.884444     11.768888
     -3.438438      6.618499      6.618499     13.236999
     -3.428428      7.959317      7.959317     15.918634
     -3.418418      9.567632      9.567632     19.135264
     -3.408408     11.070781     11.070781     22.141561
     -3.398398     12.184156     12.184156     24.368312
     -3.388388     12.820652     12.820652     25.641304
     -3.378378     13.140100     13.140100     26.280200
     -3.368368     13.509909     13.509909     27.019819
     -3.358358     14.387554     14.387554     28.775108
     -3.348348     16.170664     16.170664     32.341329
     -3.338338     19.067938     19.067938     38.135876
     -3.328328     23.022375     23.022375     46.044751
     -3.318318     27.689843     27.689843     55.379686
     -3.308308     32.465978     32.465978     64.931957
     -3.298298     36.565954     36.565954     73.131909
     -3.288288     39.170363     39.170363     78.340725
     -3.278278     39.629715     39.629715     79.259429
     -3.268268     37.672930     37.672930     75.345861
     -3.258258     33.530165     33.530165     67.060330
     -3.248248     27.898274     27.898274     55.796547
     -3.238238     21.749111     21.749111     43.498223
     -3.228228     16.060408     16.060408     32.120816
     -3.218218     11.580394     11.580394     23.160789
     -3.208208      8.703199      8.703199     17.406398
     -3.198198      7.464827      7.464827     14.929655
     -3.188188      7.619851      7.619851     15.239701
     -3.178178      8.752417      8.752417     17.504834
     -3.168168     10.397679     10.397679     20.795358
     -3.158158     12.167421     12.167421     24.334841
     -3.148148     13.866421     13.866421     27.732842
     -3.138138     15.563447     15.563447     31.126895
     -3.128128     17.571064     17.571064     35.142128
     -3.118118     20.312529     20.312529     40.625059
     -3.108108     24.106629     24.106629     48.213257
     -3.098098     28.953200     28.953200     57.906400
     -3.088088     34.420049     34.420049     68.840098
     -3.078078     39.699433     39.699433     79.398866
     -3.068068     43.829787     43.829787     87.659574
     -3.058058     45.999095     45.999095     91.998190
     -3.048048     45.801801     45.801801     91.603602
     -3.038038     43.339696     43.339696     86.679392
     -3.028028     39.134328     39.134328     78.268656
     -3.018018     33.912657     33.912657     67.825314
     -3.008008     28.383014     28.383014     56.766027
     -2.997998     23.102810     23.102810     46.205619
     -2.987988     18.468846     18.468846     36.937692
     -2.977978     14.786551     14.786551     29.573101
     -2.967968     12.341830     12.341830     24.683661
     -2.957958     11.417497     11.417497     22.834995
     -2.947948     12.240453     12.240453     24.480905
     -2.937938     14.884871     14.884871     29.769742
     -2.927928     19.176114     19.176114     38.352228
     -2.917918     24.642040     24.642040     49.284080
     -2.907908     30.547334     30.547334     61.094668
     -2.897898     36.022305     36.022305     72.044611
     -2.887888     40.261258     40.261258     80.522516
     -2.877878     42.728636     42.728636     85.457273
     -2.867868     43.293979     43.293979     86.587958
     -2.857858     42.235446     42.235446     84.470893
     -2.847848     40.103997     40.103997     80.207994
     -2.837838     37.502956     37.502956     75.005911
     -2.827828     34.878136     34.878136     69.756272
     -2.817818     32.408504     32.408504     64.817008
     -2.807808     30.036900     30.036900     60.073800
     -2.797798     27.609882     27.609882     55.219764
     -2.787788     25.042541     25.042541     50.085082
     -2.777778     22.416991     22.416991     44.833983
     -2.767768     19.965852     19.965852     39.931703
     -2.757758     17.960195     17.960195     35.920391
     -2.747748     16.576233     16.576233     33.152465
     -2.737738     15.824442     15.824442     31.648884
     -2.727728     15.583103     15.583103     31.166206
     -2.717718     15.710065     15.710065     31.420130
     -2.707708     16.154558     16.154558     32.309117
     -2.697698     16.989483     16.989483     33.978965
     -2.687688     18.337269     18.337269     36.674538
     -2.677678     20.236489     20.236489     40.472979
     -2.667668     22.542213     22.542213     45.084426
     -2.657658     24.936822     24.936822     49.873644
     -2.647648     27.056846     27.056846     54.113693
     -2.637638     28.662051     28.662051     57.324102
     -2.627628     29.741270     29.741270     59.482540
     -2.617618     30.489683     30.489683     60.979366
     -2.607608     31.176661     31.176661     62.353322
     -2.597598     31.990905     31.990905     63.981809
     -2.587588     32.952451     32.952451     65.904902
     -2.577578     33.922817     33.922817     67.845635
     -2.567568     34.676193     34.676193     69.352386
     -2.557558     34.970512     34.970512     69.941023
     -2.547548     34.588492     34.588492     69.176984
     -2.537538     33.366755     33.366755     66.733510
     -2.527528     31.246380     31.246380     62.492759
     -2.517518     28.346781     28.346781     56.693562
     -2.507508     25.018981     25.018981     50.037962
     -2.497497     21.820314     21.820314     43.640628
     -2.487487     19.387718     19.387718     38.775437
     -2.477477     18.246962     18.246962     36.493923
     -2.467467     18.638513     18.638513     37.277027
     -2.457457     20.440269     20.440269     40.880538
     -2.447447     23.225195     23.225195     46.450391
     -2.437437     26.431304     26.431304     52.862609
     -2.427427     29.570406     29.570406     59.140812
     -2.417417     32.383049     32.383049     64.766098
     -2.407407     34.869472     34.869472     69.738945
     -2.397397     37.182907     37.182907     74.365814
     -2.387387     39.438171     39.438171     78.876342
     -2.377377     41.533940     41.533940     83.067881
     -2.367367     43.087214     43.087214     86.174428
     -2.357357     43.529036     43.529036     87.058072
     -2.347347     42.331454     42.331454     84.662907
     -2.337337     39.265255     39.265255     78.530509
     -2.327327     34.565506     34.565506     69.131013
     -2.317317     28.923639     28.923639     57.847278
     -2.307307     23.309316     23.309316     46.618632
     -2.297297     18.703551     18.703551     37.407102
     -2.287287     15.852906     15.852906     31.705812
     -2.277277     15.125207     15.125207     30.250414
     -2.267267     16.488626     16.488626     32.977252
     -2.257257     19.586562     19.586562     39.173124
     -2.247247     23.860348     23.860348     47.720697
     -2.237237     28.675834     28.675834     57.351668
     -2.227227     33.423860     33.423860     66.847719
     -2.217217     37.580078     37.580078     75.160156
     -2.207207     40.725963     40.725963     81.451927
     -2.197197     42.549363     42.549363     85.098726
     -2.187187     42.851850     42.851850     85.703700
     -2.177177     41.581153     41.581153     83.162305
     -2.167167     38.879267     38.879267     77.758533
     -2.157157     35.106908     35.106908     70.213816
     -2.147147     30.798679     30.798679     61.597358
     -2.137137     26.535044     26.535044     53.070088
     -2.127127     22.771965     22.771965     45.543931
     -2.117117     19.708288     19.708288     39.416576
     -2.107107     17.261321     17.261321     34.522642
     -2.097097     15.163608     15.163608     30.327216
     -2.087087     13.126045     13.126045     26.252090
     -2.077077     10.979983     10.979983     21.959966
     -2.067067      8.732850      8.732850     17.465699
     -2.057057      6.528350      6.528350     13.056700
     -2.047047      4.553360      4.553360      9.106721
     -2.037037      2.949856      2.949856      5.899711
     -2.027027      1.770750      1.770750      3.541500
     -2.017017      0.984815      0.984815      1.969631
     -2.007007      0.511359      0.511359      1.022718
     -1.996997      0.260113      0.260113      0.520226
     -1.986987      0.160854      0.160854      0.321708
     -1.976977      0.179526      0.179526      0.359053
     -1.966967      0.324790      0.324790      0.649581
     -1.956957      0.648976      0.648976      1.297951
     -1.946947      1.243043      1.243043      2.486086
     -1.936937      2.220967      2.220967      4.441934
     -1.926927      3.689115      3.689115      7.378231
     -1.916917      5.702566      5.702566     11.405133
     -1.906907      8.220506      8.220506     16.441011
     -1.896897     11.080375     11.080375     22.160750
     -1.886887     14.008474     14.008474     28.016949
     -1.876877     16.671821     16.671821     33.343641
     -1.866867     18.758895     18.758895     37.517789
     -1.856857     20.065238     20.065238     40.130476
     -1.846847     20.558314     20.558314     41.116628
     -1.836837     20.401248     20.401248     40.802496
     -1.826827     19.921934     19.921934     39.843868
     -1.816817     19.523733     19.523733     39.047466
     -1.806807     19.552076     19.552076     39.104153
     -1.796797     20.156675     20.156675     40.313350
     -1.786787     21.207044     21.207044     42.414089
     -1.776777     22.310428     22.310428     44.620856
     -1.766767     22.940393     22.940393     45.880786
     -1.756757     22.629896     22.629896     45.259792
     -1.746747     21.146983     21.146983     42.293967
     -1.736737     18.578108     18.578108     37.156217
     -1.726727     15.290430     15.290430     30.580859
     -1.716717     11.802665     11.802665     23.605331
     -1.706707      8.630652      8.630652     17.261304
     -1.696697      6.171025      6.171025     12.342051
     -1.686687      4.652019      4.652019      9.304038
     -1.676677      4.139458      4.139458      8.278916
     -1.666667      4.563765      4.563765      9.127531
     -1.656657      5.740144      5.740144     11.480287
     -1.646647      7.379576      7.379576     14.759153
     -1.636637      9.111688      9.111688     18.223376
     -1.626627     10.543186     10.543186     21.086373
