# EIG2DOS: Utility for SIESTA to obtain the electronic density of states
#  E. Artacho, Apr 1999, A. Garcia, Apr 2012
#  Nick R. Papior, Feb 2017
# ------------------------------------------
# Eigenvalues calculated from a non-polarized calculation
# Eigenvalues read from siesta.EIG
# Kpoint weights read from siesta.KP
# Using smearing parameter:   0.0500
# Using 1000 points in the energy range
# Selected bands: 1 to: 2981
# Emin, Emax in file for selected band(s):    -27.0810286    218.3446480
# Nbands, Nspin, Nk   =   2981     1     1
# E_F                 =    -4.2610 eV --> (shifted to ZERO)
# Broadening          =     0.0500 eV
#
#        E            N(up)  (=)   N(down)         Ntot
     -5.000000     34.446044     34.446044     68.892089
     -4.989990     38.024162     38.024162     76.048323
     -4.979980     41.202780     41.202780     82.405559
     -4.969970     43.409867     43.409867     86.819734
     -4.959960     44.223447     44.223447     88.446895
     -4.949950     43.487398     43.487398     86.974796
     -4.939940     41.357656     41.357656     82.715312
     -4.929930     38.274888     38.274888     76.549776
     -4.919920     34.888514     34.888514     69.777027
     -4.909910     31.961514     31.961514     63.923028
     -4.899900     30.265046     30.265046     60.530092
     -4.889890     30.448317     30.448317     60.896633
     -4.879880     32.871885     32.871885     65.743769
     -4.869870     37.432383     37.432383     74.864765
     -4.859860     43.458564     43.458564     86.917128
     -4.849850     49.774096     49.774096     99.548192
     -4.839840     54.968193     54.968193    109.936386
     -4.829830     57.807633     57.807633    115.615267
     -4.819820     57.628178     57.628178    115.256356
     -4.809810     54.529956     54.529956    109.059912
     -4.799800     49.290127     49.290127     98.580255
     -4.789790     43.046461     43.046461     86.092921
     -4.779780     36.909968     36.909968     73.819935
     -4.769770     31.673063     31.673063     63.346126
     -4.759760     27.700164     27.700164     55.400328
     -4.749750     24.983495     24.983495     49.966991
     -4.739740     23.282847     23.282847     46.565695
     -4.729730     22.265831     22.265831     44.531662
     -4.719720     21.602324     21.602324     43.204647
     -4.709710     21.008021     21.008021     42.016043
     -4.699700     20.257294     20.257294     40.514588
     -4.689690     19.192568     19.192568     38.385136
     -4.679680     17.749964     17.749964     35.499928
     -4.669670     16.002887     16.002887     32.005774
     -4.659660     14.204380     14.204380     28.408760
     -4.649650     12.796965     12.796965     25.593929
     -4.639640     12.363015     12.363015     24.726030
     -4.629630     13.506716     13.506716     27.013431
     -4.619620     16.682141     16.682141     33.364281
     -4.609610     22.005958     22.005958     44.011916
     -4.599600     29.115550     29.115550     58.231100
     -4.589590     37.144862     37.144862     74.289724
     -4.579580     44.872626     44.872626     89.745252
     -4.569570     51.038642     51.038642    102.077284
     -4.559560     54.739381     54.739381    109.478763
     -4.549550     55.749980     55.749980    111.499960
     -4.539540     54.623173     54.623173    109.246345
     -4.529530     52.499066     52.499066    104.998133
     -4.519520     50.685865     50.685865    101.371730
     -4.509510     50.176185     50.176185    100.352369
     -4.499499     51.293662     51.293662    102.587323
     -4.489489     53.606844     53.606844    107.213689
     -4.479479     56.131204     56.131204    112.262408
     -4.469469     57.719971     57.719971    115.439943
     -4.459459     57.474645     57.474645    114.949289
     -4.449449     55.015949     55.015949    110.031898
     -4.439439     50.536157     50.536157    101.072314
     -4.429429     44.659268     44.659268     89.318535
     -4.419419     38.210523     38.210523     76.421047
     -4.409409     32.006125     32.006125     64.012249
     -4.399399     26.724347     26.724347     53.448694
     -4.389389     22.852369     22.852369     45.704737
     -4.379379     20.665536     20.665536     41.331073
     -4.369369     20.206329     20.206329     40.412658
     -4.359359     21.269358     21.269358     42.538717
     -4.349349     23.427344     23.427344     46.854688
     -4.339339     26.124782     26.124782     52.249565
     -4.329329     28.826738     28.826738     57.653477
     -4.319319     31.170370     31.170370     62.340740
     -4.309309     33.056015     33.056015     66.112030
     -4.299299     34.639289     34.639289     69.278577
     -4.289289     36.227590     36.227590     72.455180
     -4.279279     38.119087     38.119087     76.238174
     -4.269269     40.438180     40.438180     80.876359
     -4.259259     43.022730     43.022730     86.045460
     -4.249249     45.410816     45.410816     90.821632
     -4.239239     46.953491     46.953491     93.906983
     -4.229229     47.036266     47.036266     94.072531
     -4.219219     45.333829     45.333829     90.667658
     -4.209209     41.983568     41.983568     83.967136
     -4.199199     37.581793     37.581793     75.163585
     -4.189189     32.987861     32.987861     65.975721
     -4.179179     29.022703     29.022703     58.045405
     -4.169169     26.205058     26.205058     52.410117
     -4.159159     24.644028     24.644028     49.288055
     -4.149149     24.118634     24.118634     48.237268
     -4.139139     24.280406     24.280406     48.560812
     -4.129129     24.864540     24.864540     49.729080
     -4.119119     25.805115     25.805115     51.610229
     -4.109109     27.204078     27.204078     54.408157
     -4.099099     29.175306     29.175306     58.350613
     -4.089089     31.648179     31.648179     63.296358
     -4.079079     34.245168     34.245168     68.490337
     -4.069069     36.323326     36.323326     72.646652
     -4.059059     37.189197     37.189197     74.378394
     -4.049049     36.396027     36.396027     72.792055
     -4.039039     33.972329     33.972329     67.944658
     -4.029029     30.457550     30.457550     60.915100
     -4.019019     26.723866     26.723866     53.447732
     -4.009009     23.678578     23.678578     47.357157
     -3.998999     21.995615     21.995615     43.991230
     -3.988989     21.987926     21.987926     43.975851
     -3.978979     23.638366     23.638366     47.276731
     -3.968969     26.721898     26.721898     53.443796
     -3.958959     30.927616     30.927616     61.855232
     -3.948949     35.927441     35.927441     71.854883
     -3.938939     41.398234     41.398234     82.796468
     -3.928929     47.036217     47.036217     94.072433
     -3.918919     52.587542     52.587542    105.175084
     -3.908909     57.878423     57.878423    115.756845
     -3.898899     62.804267     62.804267    125.608533
     -3.888889     67.255273     67.255273    134.510545
     -3.878879     71.005249     71.005249    142.010497
     -3.868869     73.633632     73.633632    147.267263
     -3.858859     74.552779     74.552779    149.105558
     -3.848849     73.165459     73.165459    146.330918
     -3.838839     69.105175     69.105175    138.210351
     -3.828829     62.456065     62.456065    124.912130
     -3.818819     53.843992     53.843992    107.687984
     -3.808809     44.342373     44.342373     88.684747
     -3.798799     35.218180     35.218180     70.436360
     -3.788789     27.611520     27.611520     55.223040
     -3.778779     22.262715     22.262715     44.525430
     -3.768769     19.370534     19.370534     38.741068
     -3.758759     18.608392     18.608392     37.216783
     -3.748749     19.272972     19.272972     38.545944
     -3.738739     20.510148     20.510148     41.020296
     -3.728729     21.556166     21.556166     43.112331
     -3.718719     21.938361     21.938361     43.876722
     -3.708709     21.591269     21.591269     43.182539
     -3.698699     20.859354     20.859354     41.718707
     -3.688689     20.379206     20.379206     40.758413
     -3.678679     20.863596     20.863596     41.727192
     -3.668669     22.843276     22.843276     45.686552
     -3.658659     26.448375     26.448375     52.896751
     -3.648649     31.312591     31.312591     62.625181
     -3.638639     36.647978     36.647978     73.295955
     -3.628629     41.471679     41.471679     82.943358
     -3.618619     44.897912     44.897912     89.795824
     -3.608609     46.378834     46.378834     92.757669
     -3.598599     45.807928     45.807928     91.615855
     -3.588589     43.471636     43.471636     86.943273
     -3.578579     39.902199     39.902199     79.804398
     -3.568569     35.707476     35.707476     71.414952
     -3.558559     31.430888     31.430888     62.861776
     -3.548549     27.458793     27.458793     54.917585
     -3.538539     23.975225     23.975225     47.950451
     -3.528529     20.967060     20.967060     41.934120
     -3.518519     18.284236     18.284236     36.568472
     -3.508509     15.743241     15.743241     31.486482
     -3.498498     13.236498     13.236498     26.472997
     -3.488488     10.800290     10.800290     21.600580
     -3.478478      8.612456      8.612456     17.224912
     -3.468468      6.926419      6.926419     13.852837
     -3.458458      5.975080      5.975080     11.950161
     -3.448448      5.882583      5.882583     11.765167
     -3.438438      6.609862      6.609862     13.219723
     -3.428428      7.946740      7.946740     15.893480
     -3.418418      9.555803      9.555803     19.111606
     -3.408408     11.064978     11.064978     22.129957
     -3.398398     12.188950     12.188950     24.377899
     -3.388388     12.838853     12.838853     25.677705
     -3.378378     13.172249     13.172249     26.344498
     -3.368368     13.554388     13.554388     27.108776
     -3.358358     14.441156     14.441156     28.882313
     -3.348348     16.229327     16.229327     32.458655
     -3.338338     19.127335     19.127335     38.254670
     -3.328328     23.078221     23.078221     46.156441
     -3.318318     27.737920     27.737920     55.475839
     -3.308308     32.502045     32.502045     65.004089
     -3.298298     36.585697     36.585697     73.171394
     -3.288288     39.169295     39.169295     78.338590
     -3.278278     39.602268     39.602268     79.204535
     -3.268268     37.609077     37.609077     75.218154
     -3.258258     33.407222     33.407222     66.814444
     -3.248248     27.665744     27.665744     55.331488
     -3.238238     21.306402     21.306402     42.612803
     -3.228228     15.231618     15.231618     30.463237
     -3.218218     10.096863     10.096863     20.193726
     -3.208208      6.210632      6.210632     12.421264
     -3.198198      3.572595      3.572595      7.145189
     -3.188188      1.999761      1.999761      3.999522
     -3.178178      1.271978      1.271978      2.543956
     -3.168168      1.246397      1.246397      2.492793
     -3.158158      1.919754      1.919754      3.839508
     -3.148148      3.435341      3.435341      6.870683
     -3.138138      6.034829      6.034829     12.069659
     -3.128128      9.955697      9.955697     19.911393
     -3.118118     15.287382     15.287382     30.574764
     -3.108108     21.826216     21.826216     43.652433
     -3.098098     28.995453     28.995453     57.990906
     -3.088088     35.896382     35.896382     71.792765
     -3.078078     41.512384     41.512384     83.024769
     -3.068068     45.011091     45.011091     90.022182
     -3.058058     46.022239     46.022239     92.044479
     -3.048048     44.758360     44.758360     89.516721
     -3.038038     41.910940     41.910940     83.821880
     -3.028028     38.365591     38.365591     76.731183
     -3.018018     34.872160     34.872160     69.744321
     -3.008008     31.824348     31.824348     63.648696
     -2.997998     29.239079     29.239079     58.478159
     -2.987988     26.919379     26.919379     53.838759
     -2.977978     24.697142     24.697142     49.394284
     -2.967968     22.626388     22.626388     45.252776
     -2.957958     21.036194     21.036194     42.072387
     -2.947948     20.426032     20.426032     40.852064
     -2.937938     21.256319     21.256319     42.512638
     -2.927928     23.726445     23.726445     47.452890
     -2.917918     27.633028     27.633028     55.266056
     -2.907908     32.368364     32.368364     64.736727
     -2.897898     37.066403     37.066403     74.132806
     -2.887888     40.847925     40.847925     81.695850
     -2.877878     43.076539     43.076539     86.153078
     -2.867868     43.529279     43.529279     87.058557
     -2.857858     42.416896     42.416896     84.833792
     -2.847848     40.250128     40.250128     80.500255
     -2.837838     37.613771     37.613771     75.227542
     -2.827828     34.949427     34.949427     69.898854
     -2.817818     32.439691     32.439691     64.879383
     -2.807808     30.033892     30.033892     60.067784
     -2.797798     27.584222     27.584222     55.168444
     -2.787788     25.008145     25.008145     50.016289
     -2.777778     22.386089     22.386089     44.772178
     -2.767768     19.945824     19.945824     39.891647
     -2.757758     17.952405     17.952405     35.904810
     -2.747748     16.576927     16.576927     33.153854
     -2.737738     15.826918     15.826918     31.653836
     -2.727728     15.580084     15.580084     31.160168
     -2.717718     15.695561     15.695561     31.391121
     -2.707708     16.125034     16.125034     32.250069
     -2.697698     16.944465     16.944465     33.888930
     -2.687688     18.279459     18.279459     36.558917
     -2.677678     20.171237     20.171237     40.342473
     -2.667668     22.476144     22.476144     44.952287
     -2.657658     24.875717     24.875717     49.751434
     -2.647648     27.003458     27.003458     54.006917
     -2.637638     28.614923     28.614923     57.229847
     -2.627628     29.695374     29.695374     59.390749
     -2.617618     30.438780     30.438780     60.877561
     -2.607608     31.116284     31.116284     62.232567
     -2.597598     31.920521     31.920521     63.841043
     -2.587588     32.875998     32.875998     65.751995
     -2.577578     33.847835     33.847835     67.695671
     -2.567568     34.612442     34.612442     69.224885
     -2.557558     34.928630     34.928630     69.857259
     -2.547548     34.578530     34.578530     69.157060
     -2.537538     33.396131     33.396131     66.792262
     -2.527528     31.317374     31.317374     62.634749
     -2.517518     28.454619     28.454619     56.909238
     -2.507508     25.151809     25.151809     50.303619
     -2.497497     21.961521     21.961521     43.923043
     -2.487487     19.519666     19.519666     39.039332
     -2.477477     18.354432     18.354432     36.708865
     -2.467467     18.710599     18.710599     37.421197
     -2.457457     20.470608     20.470608     40.941216
     -2.447447     23.211473     23.211473     46.422946
     -2.437437     26.374982     26.374982     52.749965
     -2.427427     29.476918     29.476918     58.953836
     -2.417417     32.261857     32.261857     64.523714
     -2.407407     34.733235     34.733235     69.466470
     -2.397397     37.045650     37.045650     74.091300
     -2.387387     39.313259     39.313259     78.626518
     -2.377377     41.432887     41.432887     82.865774
     -2.367367     43.019594     43.019594     86.039188
     -2.357357     43.502614     43.502614     87.005227
     -2.347347     42.351254     42.351254     84.702508
     -2.337337     39.331290     39.331290     78.662581
     -2.327327     34.670463     34.670463     69.340926
     -2.317317     29.052609     29.052609     58.105219
     -2.307307     23.442747     23.442747     46.885494
     -2.297297     18.822568     18.822568     37.645136
     -2.287287     15.944607     15.944607     31.889214
     -2.277277     15.185485     15.185485     30.370970
     -2.267267     16.521454     16.521454     33.042908
     -2.257257     19.600475     19.600475     39.200949
     -2.247247     23.864063     23.864063     47.728127
     -2.237237     28.675062     28.675062     57.350123
     -2.227227     33.420506     33.420506     66.841011
     -2.217217     37.573708     37.573708     75.147415
     -2.207207     40.716272     40.716272     81.432544
     -2.197197     42.538049     42.538049     85.076098
     -2.187187     42.842837     42.842837     85.685673
     -2.177177     41.579195     41.579195     83.158390
     -2.167167     38.887879     38.887879     77.775758
     -2.157157     35.126812     35.126812     70.253624
     -2.147147     30.827534     30.827534     61.655067
     -2.137137     26.568465     26.568465     53.136930
     -2.127127     22.805206     22.805206     45.610412
     -2.117117     19.737739     19.737739     39.475478
     -2.107107     17.285243     17.285243     34.570487
     -2.097097     15.181983     15.181983     30.363966
     -2.087087     13.139868     13.139868     26.279736
     -2.077077     10.990481     10.990481     21.980961
     -2.067067      8.740980      8.740980     17.481960
     -2.057057      6.534672      6.534672     13.069344
     -2.047047      4.558157      4.558157      9.116315
     -2.037037      2.953315      2.953315      5.906631
     -2.027027      1.773086      1.773086      3.546172
     -2.017017      0.986298      0.986298      1.972596
     -2.007007      0.512297      0.512297      1.024594
     -1.996997      0.260845      0.260845      0.521690
     -1.986987      0.161787      0.161787      0.323575
     -1.976977      0.181224      0.181224      0.362448
     -1.966967      0.328079      0.328079      0.656157
     -1.956957      0.655004      0.655004      1.310008
     -1.946947      1.253192      1.253192      2.506385
     -1.936937      2.236519      2.236519      4.473038
     -1.926927      3.710673      3.710673      7.421345
     -1.916917      5.729360      5.729360     11.458720
     -1.906907      8.249857      8.249857     16.499713
     -1.896897     11.107509     11.107509     22.215017
     -1.886887     14.026496     14.026496     28.052992
     -1.876877     16.670959     16.670959     33.341919
     -1.866867     18.723359     18.723359     37.446719
     -1.856857     19.965714     19.965714     39.931428
     -1.846847     20.338995     20.338995     40.677991
     -1.836837     19.963155     19.963155     39.926310
     -1.826827     19.109435     19.109435     38.218869
     -1.816817     18.127372     18.127372     36.254744
     -1.806807     17.343860     17.343860     34.687720
     -1.796797     16.967547     16.967547     33.935095
     -1.786787     17.036365     17.036365     34.072731
     -1.776777     17.428616     17.428616     34.857233
     -1.766767     17.925362     17.925362     35.850725
     -1.756757     18.286787     18.286787     36.573575
     -1.746747     18.307629     18.307629     36.615258
     -1.736737     17.843161     17.843161     35.686323
     -1.726727     16.822544     16.822544     33.645087
     -1.716717     15.267956     15.267956     30.535912
     -1.706707     13.317192     13.317192     26.634383
     -1.696697     11.226946     11.226946     22.453893
     -1.686687      9.334503      9.334503     18.669006
     -1.676677      7.976789      7.976789     15.953577
     -1.666667      7.390643      7.390643     14.781285
     -1.656657      7.630309      7.630309     15.260618
     -1.646647      8.534193      8.534193     17.068387
     -1.636637      9.758361      9.758361     19.516721
     -1.626627     10.874188     10.874188     21.748377
