# EIG2DOS: Utility for SIESTA to obtain the electronic density of states
#  E. Artacho, Apr 1999, A. Garcia, Apr 2012
#  Nick R. Papior, Feb 2017
# ------------------------------------------
# Eigenvalues calculated from a non-polarized calculation
# Eigenvalues read from siesta.EIG
# Kpoint weights read from siesta.KP
# Using smearing parameter:   0.0500
# Using 1000 points in the energy range
# Selected bands: 1 to: 2981
# Emin, Emax in file for selected band(s):    -27.0294993    218.3098180
# Nbands, Nspin, Nk   =   2981     1     1
# E_F                 =    -4.3071 eV --> (shifted to ZERO)
# Broadening          =     0.0500 eV
#
#        E            N(up)  (=)   N(down)         Ntot
     -5.000000     43.484803     43.484803     86.969605
     -4.989990     48.055017     48.055017     96.110033
     -4.979980     51.249745     51.249745    102.499490
     -4.969970     52.637557     52.637557    105.275114
     -4.959960     52.070079     52.070079    104.140158
     -4.949950     49.722171     49.722171     99.444342
     -4.939940     46.046015     46.046015     92.092030
     -4.929930     41.673163     41.673163     83.346325
     -4.919920     37.315418     37.315418     74.630836
     -4.909910     33.695952     33.695952     67.391905
     -4.899900     31.500698     31.500698     63.001396
     -4.889890     31.307157     31.307157     62.614315
     -4.879880     33.453036     33.453036     66.906072
     -4.869870     37.858729     37.858729     75.717457
     -4.859860     43.887793     43.887793     87.775585
     -4.849850     50.363513     50.363513    100.727027
     -4.839840     55.813072     55.813072    111.626143
     -4.829830     58.892198     58.892198    117.784397
     -4.819820     58.822300     58.822300    117.644600
     -4.809810     55.636471     55.636471    111.272942
     -4.799800     50.117511     50.117511    100.235021
     -4.789790     43.470405     43.470405     86.940809
     -4.779780     36.900278     36.900278     73.800555
     -4.769770     31.285792     31.285792     62.571583
     -4.759760     27.050615     27.050615     54.101231
     -4.749750     24.215888     24.215888     48.431776
     -4.739740     22.543450     22.543450     45.086900
     -4.729730     21.679715     21.679715     43.359430
     -4.719720     21.254319     21.254319     42.508638
     -4.709710     20.931837     20.931837     41.863673
     -4.699700     20.436377     20.436377     40.872755
     -4.689690     19.570827     19.570827     39.141653
     -4.679680     18.244850     18.244850     36.489700
     -4.669670     16.513144     16.513144     33.026287
     -4.659660     14.610548     14.610548     29.221096
     -4.649650     12.960292     12.960292     25.920584
     -4.639640     12.132760     12.132760     24.265520
     -4.629630     12.744570     12.744570     25.489141
     -4.619620     15.305493     15.305493     30.610987
     -4.609610     20.039946     20.039946     40.079892
     -4.599600     26.730823     26.730823     53.461646
     -4.589590     34.651201     34.651201     69.302401
     -4.579580     42.647110     42.647110     85.294220
     -4.569570     49.393606     49.393606     98.787211
     -4.559560     53.769824     53.769824    107.539648
     -4.549550     55.222681     55.222681    110.445363
     -4.539540     53.964358     53.964358    107.928717
     -4.529530     50.903947     50.903947    101.807894
     -4.519520     47.327760     47.327760     94.655519
     -4.509510     44.455709     44.455709     88.911418
     -4.499499     43.051981     43.051981     86.103962
     -4.489489     43.233491     43.233491     86.466982
     -4.479479     44.524156     44.524156     89.048313
     -4.469469     46.100089     46.100089     92.200177
     -4.459459     47.108629     47.108629     94.217258
     -4.449449     46.941495     46.941495     93.882990
     -4.439439     45.385609     45.385609     90.771218
     -4.429429     42.633827     42.633827     85.267655
     -4.419419     39.184278     39.184278     78.368555
     -4.409409     35.678869     35.678869     71.357738
     -4.399399     32.731666     32.731666     65.463333
     -4.389389     30.786547     30.786547     61.573094
     -4.379379     30.030128     30.030128     60.060257
     -4.369369     30.373429     30.373429     60.746859
     -4.359359     31.502420     31.502420     63.004840
     -4.349349     32.982362     32.982362     65.964724
     -4.339339     34.386644     34.386644     68.773288
     -4.329329     35.413676     35.413676     70.827353
     -4.319319     35.959650     35.959650     71.919301
     -4.309309     36.129895     36.129895     72.259789
     -4.299299     36.190946     36.190946     72.381891
     -4.289289     36.480789     36.480789     72.961577
     -4.279279     37.300140     37.300140     74.600281
     -4.269269     38.805319     38.805319     77.610637
     -4.259259     40.922348     40.922348     81.844697
     -4.249249     43.308786     43.308786     86.617572
     -4.239239     45.396283     45.396283     90.792566
     -4.229229     46.533307     46.533307     93.066615
     -4.219219     46.202760     46.202760     92.405520
     -4.209209     44.232627     44.232627     88.465254
     -4.199199     40.893487     40.893487     81.786974
     -4.189189     36.817771     36.817771     73.635542
     -4.179179     32.768221     32.768221     65.536443
     -4.169169     29.368244     29.368244     58.736488
     -4.159159     26.925977     26.925977     53.851954
     -4.149149     25.425334     25.425334     50.850667
     -4.139139     24.663161     24.663161     49.326323
     -4.129129     24.440637     24.440637     48.881273
     -4.119119     24.701859     24.701859     49.403719
     -4.109109     25.549039     25.549039     51.098077
     -4.099099     27.127728     27.127728     54.255456
     -4.089089     29.442021     29.442021     58.884042
     -4.079079     32.204045     32.204045     64.408090
     -4.069069     34.819787     34.819787     69.639573
     -4.059059     36.552146     36.552146     73.104291
     -4.049049     36.803710     36.803710     73.607420
     -4.039039     35.382107     35.382107     70.764215
     -4.029029     32.606926     32.606926     65.213852
     -4.019019     29.200570     29.200570     58.401141
     -4.009009     26.025537     26.025537     52.051074
     -3.998999     23.808600     23.808600     47.617199
     -3.988989     22.979460     22.979460     45.958920
     -3.978979     23.664455     23.664455     47.328911
     -3.968969     25.781363     25.781363     51.562727
     -3.958959     29.142852     29.142852     58.285705
     -3.948949     33.508789     33.508789     67.017578
     -3.938939     38.592804     38.592804     77.185608
     -3.928929     44.069729     44.069729     88.139457
     -3.918919     49.618533     49.618533     99.237067
     -3.908909     54.987609     54.987609    109.975219
     -3.898899     60.030517     60.030517    120.061034
     -3.888889     64.665645     64.665645    129.331289
     -3.878879     68.762037     68.762037    137.524075
     -3.868869     72.013196     72.013196    144.026392
     -3.858859     73.889371     73.889371    147.778743
     -3.848849     73.732785     73.732785    147.465571
     -3.838839     70.987170     70.987170    141.974341
     -3.828829     65.471326     65.471326    130.942653
     -3.818819     57.564998     57.564998    115.129995
     -3.808809     48.204203     48.204203     96.408405
     -3.798799     38.670142     38.670142     77.340285
     -3.788789     30.251732     30.251732     60.503465
     -3.778779     23.912880     23.912880     47.825760
     -3.768769     20.079802     20.079802     40.159604
     -3.758759     18.601284     18.601284     37.202567
     -3.748749     18.867014     18.867014     37.734027
     -3.738739     20.026904     20.026904     40.053808
     -3.728729     21.243185     21.243185     42.486370
     -3.718719     21.914750     21.914750     43.829500
     -3.708709     21.826501     21.826501     43.653003
     -3.698699     21.190805     21.190805     42.381611
     -3.688689     20.566715     20.566715     41.133430
     -3.678679     20.669354     20.669354     41.338708
     -3.668669     22.115415     22.115415     44.230831
     -3.658659     25.181328     25.181328     50.362657
     -3.648649     29.661548     29.661548     59.323096
     -3.638639     34.889969     34.889969     69.779937
     -3.628629     39.927119     39.927119     79.854237
     -3.618619     43.843151     43.843151     87.686301
     -3.608609     45.982121     45.982121     91.964242
     -3.598599     46.106783     46.106783     92.213566
     -3.588589     44.388614     44.388614     88.777229
     -3.578579     41.282121     41.282121     82.564242
     -3.568569     37.358987     37.358987     74.717974
     -3.558559     33.163578     33.163578     66.327156
     -3.548549     29.113814     29.113814     58.227629
     -3.538539     25.447270     25.447270     50.894541
     -3.528529     22.212579     22.212579     44.425158
     -3.518519     19.311913     19.311913     38.623827
     -3.508509     16.589767     16.589767     33.179533
     -3.498498     13.938397     13.938397     27.876794
     -3.488488     11.374327     11.374327     22.748653
     -3.478478      9.051517      9.051517     18.103033
     -3.468468      7.209279      7.209279     14.418558
     -3.458458      6.082955      6.082955     12.165910
     -3.448448      5.814784      5.814784     11.629568
     -3.438438      6.393156      6.393156     12.786313
     -3.428428      7.635204      7.635204     15.270407
     -3.418418      9.219633      9.219633     18.439266
     -3.408408     10.769525     10.769525     21.539051
     -3.398398     11.969699     11.969699     23.939398
     -3.388388     12.682003     12.682003     25.364006
     -3.378378     13.010173     13.010173     26.020346
     -3.368368     13.279445     13.279445     26.558890
     -3.358358     13.933298     13.933298     27.866597
     -3.348348     15.388396     15.388396     30.776791
     -3.338338     17.902699     17.902699     35.805397
     -3.328328     21.493327     21.493327     42.986654
     -3.318318     25.908664     25.908664     51.817328
     -3.308308     30.642418     30.642418     61.284836
     -3.298298     34.987389     34.987389     69.974778
     -3.288288     38.144688     38.144688     76.289376
     -3.278278     39.397877     39.397877     78.795755
     -3.268268     38.320052     38.320052     76.640104
     -3.258258     34.934150     34.934150     69.868300
     -3.248248     29.739873     29.739873     59.479746
     -3.238238     23.575014     23.575014     47.150029
     -3.228228     17.364290     17.364290     34.728579
     -3.218218     11.866068     11.866068     23.732136
     -3.208208      7.518872      7.518872     15.037744
     -3.198198      4.427141      4.427141      8.854283
     -3.188188      2.456128      2.456128      4.912256
     -3.178178      1.370030      1.370030      2.740061
     -3.168168      0.954213      0.954213      1.908425
     -3.158158      1.091640      1.091640      2.183281
     -3.148148      1.789905      1.789905      3.579811
     -3.138138      3.165810      3.165810      6.331619
     -3.128128      5.393501      5.393501     10.787002
     -3.118118      8.621673      8.621673     17.243345
     -3.108108     12.874245     12.874245     25.748490
     -3.098098     17.965480     17.965480     35.930960
     -3.088088     23.472030     23.472030     46.944061
     -3.078078     28.795111     28.795111     57.590222
     -3.068068     33.309499     33.309499     66.618998
     -3.058058     36.545953     36.545953     73.091906
     -3.048048     38.321277     38.321277     76.642553
     -3.038038     38.745577     38.745577     77.491154
     -3.028028     38.101849     38.101849     76.203698
     -3.018018     36.672434     36.672434     73.344869
     -3.008008     34.624479     34.624479     69.248957
     -2.997998     32.029250     32.029250     64.058501
     -2.987988     28.998776     28.998776     57.997552
     -2.977978     25.840600     25.840600     51.681200
     -2.967968     23.115143     23.115143     46.230286
     -2.957958     21.538195     21.538195     43.076390
     -2.947948     21.760442     21.760442     43.520884
     -2.937938     24.120283     24.120283     48.240566
     -2.927928     28.476074     28.476074     56.952148
     -2.917918     34.186750     34.186750     68.373501
     -2.907908     40.251610     40.251610     80.503219
     -2.897898     45.564920     45.564920     91.129840
     -2.887888     49.203903     49.203903     98.407806
     -2.877878     50.658298     50.658298    101.316595
     -2.867868     49.929501     49.929501     99.859001
     -2.857858     47.471873     47.471873     94.943746
     -2.847848     44.003181     44.003181     88.006362
     -2.837838     40.255786     40.255786     80.511572
     -2.827828     36.758800     36.758800     73.517600
     -2.817818     33.726649     33.726649     67.453297
     -2.807808     31.085580     31.085580     62.171161
     -2.797798     28.612337     28.612337     57.224675
     -2.787788     26.112078     26.112078     52.224157
     -2.777778     23.548309     23.548309     47.096618
     -2.767768     21.065470     21.065470     42.130940
     -2.757758     18.903243     18.903243     37.806486
     -2.747748     17.260670     17.260670     34.521339
     -2.737738     16.194642     16.194642     32.389283
     -2.727728     15.614273     15.614273     31.228546
     -2.717718     15.371823     15.371823     30.743646
     -2.707708     15.388329     15.388329     30.776659
     -2.697698     15.727582     15.727582     31.455164
     -2.687688     16.563212     16.563212     33.126424
     -2.677678     18.052877     18.052877     36.105755
     -2.667668     20.197165     20.197165     40.394330
     -2.657658     22.776546     22.776546     45.553092
     -2.647648     25.414382     25.414382     50.828764
     -2.637638     27.734570     27.734570     55.469139
     -2.627628     29.520713     29.520713     59.041427
     -2.617618     30.782614     30.782614     61.565227
     -2.607608     31.697537     31.697537     63.395073
     -2.597598     32.474804     32.474804     64.949609
     -2.587588     33.234017     33.234017     66.468033
     -2.577578     33.961584     33.961584     67.923168
     -2.567568     34.543449     34.543449     69.086898
     -2.557558     34.821964     34.821964     69.643928
     -2.547548     34.630747     34.630747     69.261493
     -2.537538     33.808556     33.808556     67.617113
     -2.527528     32.229845     32.229845     64.459691
     -2.517518     29.876984     29.876984     59.753969
     -2.507508     26.928275     26.928275     53.856551
     -2.497497     23.795871     23.795871     47.591743
     -2.487487     21.059079     21.059079     42.118158
     -2.477477     19.297391     19.297391     38.594782
     -2.467467     18.892087     18.892087     37.784175
     -2.457457     19.891364     19.891364     39.782728
     -2.447447     22.006590     22.006590     44.013181
     -2.437437     24.744039     24.744039     49.488078
     -2.427427     27.611164     27.611164     55.222327
     -2.417417     30.300452     30.300452     60.600904
     -2.407407     32.763722     32.763722     65.527445
     -2.397397     35.141842     35.141842     70.283683
     -2.387387     37.585874     37.585874     75.171748
     -2.377377     40.061771     40.061771     80.123542
     -2.367367     42.243551     42.243551     84.487102
     -2.357357     43.561364     43.561364     87.122728
     -2.347347     43.397445     43.397445     86.794890
     -2.337337     41.349181     41.349181     82.698362
     -2.327327     37.441210     37.441210     74.882420
     -2.317317     32.188639     32.188639     64.377278
     -2.307307     26.482093     26.482093     52.964187
     -2.297297     21.345598     21.345598     42.691196
     -2.287287     17.666978     17.666978     35.333956
     -2.277277     15.996319     15.996319     31.992638
     -2.267267     16.463686     16.463686     32.927372
     -2.257257     18.814838     18.814838     37.629677
     -2.247247     22.528591     22.528591     45.057182
     -2.237237     26.966811     26.966811     53.933622
     -2.227227     31.510155     31.510155     63.020311
     -2.217217     35.644023     35.644023     71.288045
     -2.207207     38.980830     38.980830     77.961661
     -2.197197     41.234894     41.234894     82.469788
     -2.187187     42.191671     42.191671     84.383342
     -2.177177     41.714316     41.714316     83.428631
     -2.167167     39.799084     39.799084     79.598168
     -2.157157     36.643771     36.643771     73.287541
     -2.147147     32.665084     32.665084     65.330167
     -2.137137     28.419221     28.419221     56.838442
     -2.127127     24.439294     24.439294     48.878589
     -2.117117     21.063947     21.063947     42.127894
     -2.107107     18.347926     18.347926     36.695852
     -2.097097     16.102161     16.102161     32.204323
     -2.087087     14.036372     14.036372     28.072743
     -2.077077     11.921951     11.921951     23.843902
     -2.067067      9.691522      9.691522     19.383043
     -2.057057      7.438900      7.438900     14.877800
     -2.047047      5.342709      5.342709     10.685419
     -2.037037      3.570319      3.570319      7.140637
     -2.027027      2.212796      2.212796      4.425593
     -2.017017      1.270547      1.270547      2.541093
     -2.007007      0.678601      0.678601      1.357202
     -1.996997      0.347045      0.347045      0.694089
     -1.986987      0.196300      0.196300      0.392600
     -1.976977      0.179116      0.179116      0.358231
     -1.966967      0.290802      0.290802      0.581604
     -1.956957      0.571887      0.571887      1.143775
     -1.946947      1.104257      1.104257      2.208513
     -1.936937      1.997360      1.997360      3.994721
     -1.926927      3.360055      3.360055      6.720109
     -1.916917      5.258704      5.258704     10.517408
     -1.906907      7.671888      7.671888     15.343777
     -1.896897     10.460387     10.460387     20.920774
     -1.886887     13.370755     13.370755     26.741511
     -1.876877     16.079121     16.079121     32.158242
     -1.866867     18.264527     18.264527     36.529053
     -1.856857     19.688507     19.688507     39.377015
     -1.846847     20.255925     20.255925     40.511850
     -1.836837     20.038841     20.038841     40.077681
     -1.826827     19.254196     19.254196     38.508392
     -1.816817     18.195751     18.195751     36.391502
     -1.806807     17.135008     17.135008     34.270016
     -1.796797     16.224191     16.224191     32.448381
     -1.786787     15.444820     15.444820     30.889639
     -1.776777     14.632716     14.632716     29.265432
     -1.766767     13.573302     13.573302     27.146605
     -1.756757     12.120859     12.120859     24.241718
     -1.746747     10.280849     10.280849     20.561699
     -1.736737      8.217844      8.217844     16.435687
     -1.726727      6.196762      6.196762     12.393524
     -1.716717      4.500525      4.500525      9.001050
     -1.706707      3.370395      3.370395      6.740789
     -1.696697      2.988611      2.988611      5.977222
     -1.686687      3.487879      3.487879      6.975757
     -1.676677      4.952710      4.952710      9.905419
     -1.666667      7.385342      7.385342     14.770684
     -1.656657     10.639422     10.639422     21.278843
     -1.646647     14.360068     14.360068     28.720136
     -1.636637     17.985954     17.985954     35.971909
     -1.626627     20.850776     20.850776     41.701552
