# EIG2DOS: Utility for SIESTA to obtain the electronic density of states
#  E. Artacho, Apr 1999, A. Garcia, Apr 2012
#  Nick R. Papior, Feb 2017
# ------------------------------------------
# Eigenvalues calculated from a non-polarized calculation
# Eigenvalues read from siesta.EIG
# Kpoint weights read from siesta.KP
# Using smearing parameter:   0.0500
# Using 1000 points in the energy range
# Selected bands: 1 to: 2981
# Emin, Emax in file for selected band(s):    -27.2776807    218.3845380
# Nbands, Nspin, Nk   =   2981     1     1
# E_F                 =    -4.2121 eV --> (shifted to ZERO)
# Broadening          =     0.0500 eV
#
#        E            N(up)  (=)   N(down)         Ntot
     -5.000000     32.060492     32.060492     64.120983
     -4.989990     36.820783     36.820783     73.641565
     -4.979980     41.252782     41.252782     82.505563
     -4.969970     44.616941     44.616941     89.233882
     -4.959960     46.290013     46.290013     92.580026
     -4.949950     45.971892     45.971892     91.943784
     -4.939940     43.792945     43.792945     87.585891
     -4.929930     40.291481     40.291481     80.582962
     -4.919920     36.290666     36.290666     72.581332
     -4.909910     32.732281     32.732281     65.464562
     -4.899900     30.509667     30.509667     61.019333
     -4.889890     30.308600     30.308600     60.617200
     -4.879880     32.451477     32.451477     64.902955
     -4.869870     36.764637     36.764637     73.529273
     -4.859860     42.528157     42.528157     85.056313
     -4.849850     48.576666     48.576666     97.153331
     -4.839840     53.570944     53.570944    107.141888
     -4.829830     56.371911     56.371911    112.743821
     -4.819820     56.376952     56.376952    112.753904
     -4.809810     53.676709     53.676709    107.353419
     -4.799800     48.968293     48.968293     97.936585
     -4.789790     43.275170     43.275170     86.550340
     -4.779780     37.607230     37.607230     75.214461
     -4.769770     32.701641     32.701641     65.403282
     -4.759760     28.922002     28.922002     57.844003
     -4.749750     26.306995     26.306995     52.613989
     -4.739740     24.700539     24.700539     49.401079
     -4.729730     23.884363     23.884363     47.768726
     -4.719720     23.659399     23.659399     47.318797
     -4.709710     23.860890     23.860890     47.721781
     -4.699700     24.326539     24.326539     48.653078
     -4.689690     24.859041     24.859041     49.718081
     -4.679680     25.227338     25.227338     50.454676
     -4.669670     25.230313     25.230313     50.460626
     -4.659660     24.807804     24.807804     49.615609
     -4.649650     24.145289     24.145289     48.290578
     -4.639640     23.703285     23.703285     47.406569
     -4.629630     24.123725     24.123725     48.247450
     -4.619620     26.017943     26.017943     52.035886
     -4.609610     29.702911     29.702911     59.405821
     -4.599600     34.994498     34.994498     69.988997
     -4.589590     41.163649     41.163649     82.327298
     -4.579580     47.105298     47.105298     94.210596
     -4.569570     51.678864     51.678864    103.357728
     -4.559560     54.094496     54.094496    108.188991
     -4.549550     54.186368     54.186368    108.372736
     -4.539540     52.455175     52.455175    104.910350
     -4.529530     49.859968     49.859968     99.719935
     -4.519520     47.447132     47.447132     94.894264
     -4.509510     45.970347     45.970347     91.940693
     -4.499499     45.651259     45.651259     91.302518
     -4.489489     46.162538     46.162538     92.325076
     -4.479479     46.817207     46.817207     93.634415
     -4.469469     46.865910     46.865910     93.731820
     -4.459459     45.772072     45.772072     91.544144
     -4.449449     43.363497     43.363497     86.726994
     -4.439439     39.828474     39.828474     79.656948
     -4.429429     35.597421     35.597421     71.194843
     -4.419419     31.190882     31.190882     62.381764
     -4.409409     27.104911     27.104911     54.209821
     -4.399399     23.758176     23.758176     47.516352
     -4.389389     21.475984     21.475984     42.951968
     -4.379379     20.469043     20.469043     40.938086
     -4.369369     20.788643     20.788643     41.577286
     -4.359359     22.282325     22.282325     44.564651
     -4.349349     24.597767     24.597767     49.195534
     -4.339339     27.265498     27.265498     54.530996
     -4.329329     29.843987     29.843987     59.687973
     -4.319319     32.067354     32.067354     64.134709
     -4.309309     33.926214     33.926214     67.852428
     -4.299299     35.640338     35.640338     71.280676
     -4.289289     37.528887     37.528887     75.057774
     -4.279279     39.825538     39.825538     79.651076
     -4.269269     42.508773     42.508773     85.017547
     -4.259259     45.219346     45.219346     90.438691
     -4.249249     47.315903     47.315903     94.631806
     -4.239239     48.073039     48.073039     96.146078
     -4.229229     46.961189     46.961189     93.922377
     -4.219219     43.893372     43.893372     87.786744
     -4.209209     39.318428     39.318428     78.636855
     -4.199199     34.102004     34.102004     68.204008
     -4.189189     29.239345     29.239345     58.478689
     -4.179179     25.528759     25.528759     51.057518
     -4.169169     23.350427     23.350427     46.700855
     -4.159159     22.634952     22.634952     45.269904
     -4.149149     23.009521     23.009521     46.019041
     -4.139139     24.031238     24.031238     48.062477
     -4.129129     25.391101     25.391101     50.782203
     -4.119119     26.999226     26.999226     53.998451
     -4.109109     28.922179     28.922179     57.844358
     -4.099099     31.212288     31.212288     62.424577
     -4.089089     33.723410     33.723410     67.446820
     -4.079079     36.024131     36.024131     72.048262
     -4.069069     37.480278     37.480278     74.960555
     -4.059059     37.491414     37.491414     74.982827
     -4.049049     35.773503     35.773503     71.547005
     -4.039039     32.540722     32.540722     65.081445
     -4.029029     28.485632     28.485632     56.971264
     -4.019019     24.564071     24.564071     49.128142
     -4.009009     21.692058     21.692058     43.384116
     -3.998999     20.495101     20.495101     40.990201
     -3.988989     21.203018     21.203018     42.406036
     -3.978979     23.695278     23.695278     47.390555
     -3.968969     27.631591     27.631591     55.263182
     -3.958959     32.586640     32.586640     65.173280
     -3.948949     38.141401     38.141401     76.282803
     -3.938939     43.930515     43.930515     87.861030
     -3.928929     49.668322     49.668322     99.336644
     -3.918919     55.164628     55.164628    110.329257
     -3.908909     60.315850     60.315850    120.631699
     -3.898899     65.050167     65.050167    130.100335
     -3.888889     69.230471     69.230471    138.460942
     -3.878879     72.559044     72.559044    145.118087
     -3.868869     74.549394     74.549394    149.098788
     -3.858859     74.610943     74.610943    149.221886
     -3.848849     72.237778     72.237778    144.475556
     -3.838839     67.233492     67.233492    134.466985
     -3.828829     59.874373     59.874373    119.748746
     -3.818819     50.930760     50.930760    101.861521
     -3.808809     41.523461     41.523461     83.046923
     -3.798799     32.860226     32.860226     65.720452
     -3.788789     25.943292     25.943292     51.886583
     -3.778779     21.343757     21.343757     42.687515
     -3.768769     19.105864     19.105864     38.211728
     -3.758759     18.795269     18.795269     37.590538
     -3.748749     19.662885     19.662885     39.325769
     -3.738739     20.871743     20.871743     41.743485
     -3.728729     21.728094     21.728094     43.456189
     -3.718719     21.863110     21.863110     43.726220
     -3.708709     21.323173     21.323173     42.646346
     -3.698699     20.543888     20.543888     41.087776
     -3.688689     20.206833     20.206833     40.413667
     -3.678679     21.008806     21.008806     42.017612
     -3.668669     23.405658     23.405658     46.811315
     -3.658659     27.414480     27.414480     54.828961
     -3.648649     32.552458     32.552458     65.104915
     -3.638639     37.948514     37.948514     75.897029
     -3.628629     42.594863     42.594863     85.189726
     -3.618619     45.642198     45.642198     91.284396
     -3.608609     46.622887     46.622887     93.245774
     -3.598599     45.526246     45.526246     91.052492
     -3.588589     42.724649     42.724649     85.449297
     -3.578579     38.811023     38.811023     77.622045
     -3.568569     34.423213     34.423213     68.846426
     -3.558559     30.104204     30.104204     60.208409
     -3.548549     26.213275     26.213275     52.426551
     -3.538539     22.888937     22.888937     45.777875
     -3.528529     20.067361     20.067361     40.134721
     -3.518519     17.557712     17.557712     35.115423
     -3.508509     15.156216     15.156216     30.312431
     -3.498498     12.756652     12.756652     25.513303
     -3.488488     10.410279     10.410279     20.820558
     -3.478478      8.311788      8.311788     16.623577
     -3.468468      6.724098      6.724098     13.448195
     -3.458458      5.878893      5.878893     11.757785
     -3.448448      5.890503      5.890503     11.781006
     -3.438438      6.706973      6.706973     13.413946
     -3.428428      8.109513      8.109513     16.219027
     -3.418418      9.764941      9.764941     19.529882
     -3.408408     11.327158     11.327158     22.654315
     -3.398398     12.565543     12.565543     25.131086
     -3.388388     13.476217     13.476217     26.952435
     -3.378378     14.324274     14.324274     28.648548
     -3.368368     15.584632     15.584632     31.169264
     -3.358358     17.790401     17.790401     35.580801
     -3.348348     21.337711     21.337711     42.675422
     -3.338338     26.312632     26.312632     52.625264
     -3.328328     32.394345     32.394345     64.788690
     -3.318318     38.862702     38.862702     77.725404
     -3.308308     44.713840     44.713840     89.427680
     -3.298298     48.868180     48.868180     97.736360
     -3.288288     50.432668     50.432668    100.865337
     -3.278278     48.950635     48.950635     97.901269
     -3.268268     44.553953     44.553953     89.107905
     -3.258258     37.948920     37.948920     75.897839
     -3.248248     30.227763     30.227763     60.455525
     -3.238238     22.574790     22.574790     45.149581
     -3.228228     15.982030     15.982030     31.964059
     -3.218218     11.072944     11.072944     22.145889
     -3.208208      8.067461      8.067461     16.134921
     -3.198198      6.853225      6.853225     13.706450
     -3.188188      7.099024      7.099024     14.198048
     -3.178178      8.363945      8.363945     16.727890
     -3.168168     10.192633     10.192633     20.385266
     -3.158158     12.206886     12.206886     24.413773
     -3.148148     14.191660     14.191660     28.383320
     -3.138138     16.145303     16.145303     32.290606
     -3.128128     18.251979     18.251979     36.503958
     -3.118118     20.760017     20.760017     41.520034
     -3.108108     23.804154     23.804154     47.608309
     -3.098098     27.256269     27.256269     54.512538
     -3.088088     30.691175     30.691175     61.382349
     -3.078078     33.501299     33.501299     67.002597
     -3.068068     35.113715     35.113715     70.227431
     -3.058058     35.203523     35.203523     70.407046
     -3.048048     33.797534     33.797534     67.595067
     -3.038038     31.224010     31.224010     62.448019
     -3.028028     27.950439     27.950439     55.900878
     -3.018018     24.408465     24.408465     48.816930
     -3.008008     20.898916     20.898916     41.797831
     -2.997998     17.609228     17.609228     35.218455
     -2.987988     14.704341     14.704341     29.408681
     -2.977978     12.415839     12.415839     24.831678
     -2.967968     11.067978     11.067978     22.135955
     -2.957958     11.023123     11.023123     22.046247
     -2.947948     12.570467     12.570467     25.140933
     -2.937938     15.801840     15.801840     31.603680
     -2.927928     20.519260     20.519260     41.038519
     -2.917918     26.210398     26.210398     52.420795
     -2.907908     32.114027     32.114027     64.228054
     -2.897898     37.373649     37.373649     74.747298
     -2.887888     41.244032     41.244032     82.488065
     -2.877878     43.284445     43.284445     86.568891
     -2.867868     43.463788     43.463788     86.927576
     -2.857858     42.129532     42.129532     84.259064
     -2.847848     39.848086     39.848086     79.696172
     -2.837838     37.183312     37.183312     74.366624
     -2.827828     34.510381     34.510381     69.020761
     -2.817818     31.944774     31.944774     63.889548
     -2.807808     29.407359     29.407359     58.814719
     -2.797798     26.776794     26.776794     53.553589
     -2.787788     24.038278     24.038278     48.076555
     -2.777778     21.346242     21.346242     42.692483
     -2.767768     18.972615     18.972615     37.945229
     -2.757758     17.180180     17.180180     34.360360
     -2.747748     16.102842     16.102842     32.205684
     -2.737738     15.706330     15.706330     31.412661
     -2.727728     15.848954     15.848954     31.697909
     -2.717718     16.395621     16.395621     32.791243
     -2.707708     17.302438     17.302438     34.604876
     -2.697698     18.609575     18.609575     37.219150
     -2.687688     20.345959     20.345959     40.691917
     -2.677678     22.416853     22.416853     44.833706
     -2.667668     24.565392     24.565392     49.130785
     -2.657658     26.452814     26.452814     52.905628
     -2.647648     27.818551     27.818551     55.637103
     -2.637638     28.619730     28.619730     57.239459
     -2.627628     29.056691     29.056691     58.113382
     -2.617618     29.464215     29.464215     58.928430
     -2.607608     30.134691     30.134691     60.269382
     -2.597598     31.177099     31.177099     62.354199
     -2.587588     32.480624     32.480624     64.961248
     -2.577578     33.776693     33.776693     67.553386
     -2.567568     34.738578     34.738578     69.477156
     -2.557558     35.060398     35.060398     70.120797
     -2.547548     34.502863     34.502863     69.005726
     -2.537538     32.932655     32.932655     65.865310
     -2.527528     30.379301     30.379301     60.758602
     -2.517518     27.094648     27.094648     54.189296
     -2.507508     23.566237     23.566237     47.132474
     -2.497497     20.441915     20.441915     40.883829
     -2.487487     18.368246     18.368246     36.736491
     -2.477477     17.797683     17.797683     35.595365
     -2.467467     18.844427     18.844427     37.688853
     -2.457457     21.253045     21.253045     42.506089
     -2.447447     24.497454     24.497454     48.994908
     -2.437437     27.972803     27.972803     55.945606
     -2.427427     31.201725     31.201725     62.403450
     -2.417417     33.966985     33.966985     67.933970
     -2.407407     36.311841     36.311841     72.623681
     -2.397397     38.408583     38.408583     76.817166
     -2.387387     40.359844     40.359844     80.719688
     -2.377377     42.035258     42.035258     84.070515
     -2.367367     43.036025     43.036025     86.072050
     -2.357357     42.821287     42.821287     85.642575
     -2.347347     40.948078     40.948078     81.896156
     -2.337337     37.313030     37.313030     74.626060
     -2.327327     32.276862     32.276862     64.553724
     -2.317317     26.609676     26.609676     53.219353
     -2.307307     21.284120     21.284120     42.568239
     -2.297297     17.211383     17.211383     34.422766
     -2.287287     15.025531     15.025531     30.051063
     -2.277277     14.979009     14.979009     29.958019
     -2.267267     16.952337     16.952337     33.904675
     -2.257257     20.540169     20.540169     41.080338
     -2.247247     25.166462     25.166462     50.332923
     -2.237237     30.193275     30.193275     60.386550
     -2.227227     35.004574     35.004574     70.009149
     -2.217217     39.060250     39.060250     78.120501
     -2.207207     41.926370     41.926370     83.852740
     -2.197197     43.295917     43.295917     86.591834
     -2.187187     43.015616     43.015616     86.031231
     -2.177177     41.123134     41.123134     82.246267
     -2.167167     37.876935     37.876935     75.753870
     -2.157157     33.743189     33.743189     67.486377
     -2.147147     29.310360     29.310360     58.620721
     -2.137137     25.138767     25.138767     50.277534
     -2.127127     21.599798     21.599798     43.199597
     -2.117117     18.781786     18.781786     37.563572
     -2.107107     16.513398     16.513398     33.026795
     -2.097097     14.492840     14.492840     28.985680
     -2.087087     12.453260     12.453260     24.906520
     -2.077077     10.280353     10.280353     20.560705
     -2.067067      8.034199      8.034199     16.068398
     -2.057057      5.885596      5.885596     11.771193
     -2.047047      4.018611      4.018611      8.037223
     -2.037037      2.554803      2.554803      5.109607
     -2.027027      1.528052      1.528052      3.056105
     -2.017017      0.906101      0.906101      1.812201
     -2.007007      0.635522      0.635522      1.271043
     -1.996997      0.685374      0.685374      1.370749
     -1.986987      1.073398      1.073398      2.146796
     -1.976977      1.867855      1.867855      3.735710
     -1.966967      3.164382      3.164382      6.328763
     -1.956957      5.042738      5.042738     10.085476
     -1.946947      7.515672      7.515672     15.031343
     -1.936937     10.489198     10.489198     20.978396
     -1.926927     13.754182     13.754182     27.508365
     -1.916917     17.018406     17.018406     34.036812
     -1.906907     19.969469     19.969469     39.938938
     -1.896897     22.342885     22.342885     44.685771
     -1.886887     23.967900     23.967900     47.935801
     -1.876877     24.778106     24.778106     49.556212
     -1.866867     24.795189     24.795189     49.590377
     -1.856857     24.107206     24.107206     48.214411
     -1.846847     22.858275     22.858275     45.716550
     -1.836837     21.247815     21.247815     42.495630
     -1.826827     19.519412     19.519412     39.038823
     -1.816817     17.918614     17.918614     35.837227
     -1.806807     16.620656     16.620656     33.241313
     -1.796797     15.659658     15.659658     31.319316
     -1.786787     14.905183     14.905183     29.810366
     -1.776777     14.113549     14.113549     28.227097
     -1.766767     13.037941     13.037941     26.075883
     -1.756757     11.543238     11.543238     23.086475
     -1.746747      9.666779      9.666779     19.333559
     -1.736737      7.599191      7.599191     15.198383
     -1.726727      5.605759      5.605759     11.211518
     -1.716717      3.937181      3.937181      7.874362
     -1.706707      2.773102      2.773102      5.546203
     -1.696697      2.211984      2.211984      4.423967
     -1.686687      2.289770      2.289770      4.579539
     -1.676677      2.996613      2.996613      5.993225
     -1.666667      4.270655      4.270655      8.541309
     -1.656657      5.971684      5.971684     11.943368
     -1.646647      7.860009      7.860009     15.720019
     -1.636637      9.612509      9.612509     19.225018
     -1.626627     10.892168     10.892168     21.784336
