# EIG2DOS: Utility for SIESTA to obtain the electronic density of states
#  E. Artacho, Apr 1999, A. Garcia, Apr 2012
#  Nick R. Papior, Feb 2017
# ------------------------------------------
# Eigenvalues calculated from a non-polarized calculation
# Eigenvalues read from siesta.EIG
# Kpoint weights read from siesta.KP
# Using smearing parameter:   0.0500
# Using 1000 points in the energy range
# Selected bands: 1 to: 2981
# Emin, Emax in file for selected band(s):    -27.1668134    218.3809240
# Nbands, Nspin, Nk   =   2981     1     1
# E_F                 =    -4.2180 eV --> (shifted to ZERO)
# Broadening          =     0.0500 eV
#
#        E            N(up)  (=)   N(down)         Ntot
     -5.000000     31.692628     31.692628     63.385255
     -4.989990     36.414359     36.414359     72.828719
     -4.979980     40.868513     40.868513     81.737027
     -4.969970     44.323816     44.323816     88.647633
     -4.959960     46.143655     46.143655     92.287310
     -4.949950     45.995749     45.995749     91.991498
     -4.939940     43.970374     43.970374     87.940748
     -4.929930     40.571223     40.571223     81.142447
     -4.919920     36.602195     36.602195     73.204390
     -4.909910     33.004553     33.004553     66.009105
     -4.899900     30.687859     30.687859     61.375718
     -4.889890     30.366067     30.366067     60.732133
     -4.879880     32.395648     32.395648     64.791296
     -4.869870     36.635391     36.635391     73.270782
     -4.859860     42.387298     42.387298     84.774596
     -4.849850     48.489537     48.489537     96.979074
     -4.839840     53.585410     53.585410    107.170820
     -4.829830     56.502796     56.502796    113.005592
     -4.819820     56.602659     56.602659    113.205317
     -4.809810     53.949210     53.949210    107.898421
     -4.799800     49.231261     49.231261     98.462522
     -4.789790     43.481524     43.481524     86.963047
     -4.779780     37.728481     37.728481     75.456961
     -4.769770     32.725425     32.725425     65.450849
     -4.759760     28.837996     28.837996     57.675993
     -4.749750     26.083327     26.083327     52.166653
     -4.739740     24.253819     24.253819     48.507638
     -4.729730     23.049208     23.049208     46.098417
     -4.719720     22.168820     22.168820     44.337640
     -4.709710     21.354529     21.354529     42.709059
     -4.699700     20.403398     20.403398     40.806797
     -4.689690     19.179392     19.179392     38.358784
     -4.679680     17.645572     17.645572     35.291144
     -4.669670     15.916637     15.916637     31.833275
     -4.659660     14.307802     14.307802     28.615603
     -4.649650     13.343228     13.343228     26.686456
     -4.639640     13.692516     13.692516     27.385031
     -4.629630     16.024007     16.024007     32.048013
     -4.619620     20.792449     20.792449     41.584898
     -4.609610     28.011941     28.011941     56.023881
     -4.599600     37.096722     37.096722     74.193443
     -4.589590     46.863691     46.863691     93.727381
     -4.579580     55.755955     55.755955    111.511911
     -4.569570     62.259144     62.259144    124.518288
     -4.559560     65.375778     65.375778    130.751557
     -4.549550     64.962782     64.962782    129.925564
     -4.539540     61.773844     61.773844    123.547688
     -4.529530     57.174684     57.174684    114.349367
     -4.519520     52.648483     52.648483    105.296965
     -4.509510     49.298875     49.298875     98.597751
     -4.499499     47.544899     47.544899     95.089799
     -4.489489     47.102408     47.102408     94.204815
     -4.479479     47.217697     47.217697     94.435393
     -4.469469     47.023826     47.023826     94.047651
     -4.459459     45.864393     45.864393     91.728785
     -4.449449     43.472640     43.472640     86.945281
     -4.439439     39.975654     39.975654     79.951307
     -4.429429     35.771832     35.771832     71.543665
     -4.419419     31.369679     31.369679     62.739358
     -4.409409     27.264000     27.264000     54.528000
     -4.399399     23.876639     23.876639     47.753278
     -4.389389     21.537749     21.537749     43.075498
     -4.379379     20.464432     20.464432     40.928864
     -4.369369     20.716284     20.716284     41.432569
     -4.359359     22.149916     22.149916     44.299833
     -4.349349     24.419670     24.419670     48.839339
     -4.339339     27.056610     27.056610     54.113220
     -4.329329     29.611878     29.611878     59.223756
     -4.319319     31.806627     31.806627     63.613254
     -4.309309     33.619096     33.619096     67.238191
     -4.299299     35.265329     35.265329     70.530658
     -4.289289     37.075646     37.075646     74.151293
     -4.279279     39.310556     39.310556     78.621113
     -4.269269     41.984351     41.984351     83.968702
     -4.259259     44.769359     44.769359     89.538717
     -4.249249     47.036382     47.036382     94.072763
     -4.239239     48.042544     48.042544     96.085088
     -4.229229     47.212186     47.212186     94.424372
     -4.219219     44.397315     44.397315     88.794630
     -4.209209     39.992054     39.992054     79.984108
     -4.199199     34.832612     34.832612     69.665224
     -4.189189     29.917921     29.917921     59.835842
     -4.179179     26.077049     26.077049     52.154098
     -4.169169     23.732480     23.732480     47.464960
     -4.159159     22.852047     22.852047     45.704093
     -4.149149     23.084581     23.084581     46.169161
     -4.139139     23.991701     23.991701     47.983402
     -4.129129     25.257779     25.257779     50.515559
     -4.119119     26.784829     26.784829     53.569658
     -4.109109     28.638677     28.638677     57.277353
     -4.099099     30.882257     30.882257     61.764514
     -4.089089     33.388070     33.388070     66.776140
     -4.079079     35.741441     35.741441     71.482882
     -4.069069     37.311031     37.311031     74.622062
     -4.059059     37.478166     37.478166     74.956332
     -4.049049     35.922355     35.922355     71.844709
     -4.039039     32.815663     32.815663     65.631326
     -4.029029     28.818911     28.818911     57.637822
     -4.019019     24.877673     24.877673     49.755346
     -4.009009     21.920183     21.920183     43.840366
     -3.998999     20.598512     20.598512     41.197023
     -3.988989     21.171797     21.171797     42.343593
     -3.978979     23.542678     23.542678     47.085355
     -3.968969     27.384572     27.384572     54.769144
     -3.958959     32.277490     32.277490     64.554981
     -3.948949     37.801733     37.801733     75.603466
     -3.938939     43.586821     43.586821     87.173642
     -3.928929     49.338702     49.338702     98.677404
     -3.918919     54.858025     54.858025    109.716051
     -3.908909     60.035672     60.035672    120.071343
     -3.898899     64.801970     64.801970    129.603939
     -3.888889     69.029859     69.029859    138.059719
     -3.878879     72.434257     72.434257    144.868514
     -3.868869     74.535277     74.535277    149.070553
     -3.858859     74.736104     74.736104    149.472208
     -3.848849     72.511008     72.511008    145.022017
     -3.838839     67.635994     67.635994    135.271988
     -3.828829     60.361086     60.361086    120.722171
     -3.818819     51.439668     51.439668    102.879336
     -3.808809     41.989061     41.989061     83.978121
     -3.798799     33.227058     33.227058     66.454117
     -3.788789     26.176619     26.176619     52.353239
     -3.778779     21.435670     21.435670     42.871341
     -3.768769     19.075861     19.075861     38.151722
     -3.758759     18.685001     18.685001     37.370002
     -3.748749     19.525734     19.525734     39.051467
     -3.738739     20.759243     20.759243     41.518485
     -3.728729     21.676395     21.676395     43.352790
     -3.718719     21.883194     21.883194     43.766388
     -3.708709     21.397974     21.397974     42.795949
     -3.698699     20.633792     20.633792     41.267584
     -3.688689     20.262576     20.262576     40.525152
     -3.678679     20.988154     20.988154     41.976308
     -3.668669     23.288387     23.288387     46.576773
     -3.658659     27.210108     27.210108     54.420216
     -3.648649     32.297577     32.297577     64.595154
     -3.638639     37.694773     37.694773     75.389547
     -3.628629     42.392755     42.392755     84.785510
     -3.618619     45.527439     45.527439     91.054879
     -3.608609     46.610182     46.610182     93.220364
     -3.598599     45.610895     45.610895     91.221790
     -3.588589     42.888731     42.888731     85.777462
     -3.578579     39.030063     39.030063     78.060126
     -3.568569     34.671166     34.671166     69.342333
     -3.558559     30.357042     30.357042     60.714084
     -3.548549     26.452164     26.452164     52.904328
     -3.538539     23.102901     23.102901     46.205803
     -3.528529     20.254061     20.254061     40.508123
     -3.518519     17.721218     17.721218     35.442437
     -3.508509     15.302372     15.302372     30.604744
     -3.498498     12.888300     12.888300     25.776600
     -3.488488     10.524749     10.524749     21.049499
     -3.478478      8.401645      8.401645     16.803290
     -3.468468      6.780364      6.780364     13.560727
     -3.458458      5.895005      5.895005     11.790009
     -3.448448      5.865293      5.865293     11.730586
     -3.438438      6.645322      6.645322     13.290645
     -3.428428      8.019352      8.019352     16.038704
     -3.418418      9.648992      9.648992     19.297985
     -3.408408     11.167964     11.167964     22.335929
     -3.398398     12.303504     12.303504     24.607008
     -3.388388     12.983117     12.983117     25.966234
     -3.378378     13.379176     13.379176     26.758351
     -3.368368     13.864471     13.864471     27.728942
     -3.358358     14.891651     14.891651     29.783301
     -3.348348     16.843334     16.843334     33.686667
     -3.338338     19.905282     19.905282     39.810565
     -3.328328     23.992982     23.992982     47.985965
     -3.318318     28.735663     28.735663     57.471326
     -3.308308     33.514373     33.514373     67.028746
     -3.298298     37.560745     37.560745     75.121491
     -3.288288     40.124104     40.124104     80.248209
     -3.278278     40.683905     40.683905     81.367811
     -3.268268     39.134479     39.134479     78.268958
     -3.258258     35.845252     35.845252     71.690505
     -3.248248     31.540366     31.540366     63.080732
     -3.238238     27.035330     27.035330     54.070660
     -3.228228     22.953843     22.953843     45.907686
     -3.218218     19.561949     19.561949     39.123898
     -3.208208     16.787204     16.787204     33.574407
     -3.198198     14.386118     14.386118     28.772235
     -3.188188     12.153213     12.153213     24.306425
     -3.178178     10.067219     10.067219     20.134438
     -3.168168      8.327881      8.327881     16.655763
     -3.158158      7.301096      7.301096     14.602193
     -3.148148      7.419074      7.419074     14.838147
     -3.138138      9.070147      9.070147     18.140294
     -3.128128     12.486651     12.486651     24.973302
     -3.118118     17.631731     17.631731     35.263461
     -3.108108     24.107391     24.107391     48.214781
     -3.098098     31.135503     31.135503     62.271007
     -3.088088     37.665048     37.665048     75.330096
     -3.078078     42.612535     42.612535     85.225069
     -3.068068     45.166278     45.166278     90.332555
     -3.058058     45.028596     45.028596     90.057191
     -3.048048     42.480243     42.480243     84.960486
     -3.038038     38.234089     38.234089     76.468178
     -3.028028     33.153734     33.153734     66.307468
     -3.018018     27.978574     27.978574     55.957149
     -3.008008     23.178675     23.178675     46.357351
     -2.997998     18.976955     18.976955     37.953910
     -2.987988     15.482117     15.482117     30.964235
     -2.977978     12.830457     12.830457     25.660914
     -2.967968     11.253969     11.253969     22.507937
     -2.957958     11.048461     11.048461     22.096922
     -2.947948     12.467502     12.467502     24.935004
     -2.937938     15.592822     15.592822     31.185645
     -2.927928     20.232144     20.232144     40.464288
     -2.917918     25.884463     25.884463     51.768925
     -2.907908     31.796720     31.796720     63.593440
     -2.897898     37.111436     37.111436     74.222872
     -2.887888     41.071336     41.071336     82.142671
     -2.877878     43.215352     43.215352     86.430703
     -2.867868     43.490208     43.490208     86.980416
     -2.857858     42.226779     42.226779     84.453558
     -2.847848     39.985514     39.985514     79.971028
     -2.837838     37.335298     37.335298     74.670595
     -2.827828     34.662864     34.662864     69.325729
     -2.817818     32.094871     32.094871     64.189742
     -2.807808     29.557138     29.557138     59.114276
     -2.797798     26.925290     26.925290     53.850580
     -2.787788     24.176538     24.176538     48.353076
     -2.777778     21.458198     21.458198     42.916396
     -2.767768     19.040899     19.040899     38.081798
     -2.757758     17.192775     17.192775     34.385550
     -2.747748     16.055728     16.055728     32.111456
     -2.737738     15.599890     15.599890     31.199780
     -2.727728     15.680586     15.680586     31.361173
     -2.717718     16.154847     16.154847     32.309695
     -2.707708     16.974693     16.974693     33.949386
     -2.697698     18.189774     18.189774     36.379547
     -2.687688     19.855315     19.855315     39.710631
     -2.677678     21.911458     21.911458     43.822915
     -2.667668     24.127229     24.127229     48.254457
     -2.657658     26.163434     26.163434     52.326867
     -2.647648     27.726954     27.726954     55.453908
     -2.637638     28.721292     28.721292     57.442584
     -2.627628     29.294787     29.294787     58.589574
     -2.617618     29.753475     29.753475     59.506950
     -2.607608     30.393190     30.393190     60.786380
     -2.597598     31.351833     31.351833     62.703666
     -2.587588     32.557259     32.557259     65.114518
     -2.577578     33.774733     33.774733     67.549466
     -2.567568     34.699210     34.699210     69.398421
     -2.557558     35.033458     35.033458     70.066917
     -2.547548     34.534861     34.534861     69.069722
     -2.537538     33.055018     33.055018     66.110037
     -2.527528     30.597375     30.597375     61.194750
     -2.517518     27.381290     27.381290     54.762580
     -2.507508     23.864886     23.864886     47.729771
     -2.497497     20.680900     20.680900     41.361799
     -2.487487     18.482639     18.482639     36.965278
     -2.477477     17.750857     17.750857     35.501714
     -2.467467     18.641061     18.641061     37.282122
     -2.457457     20.938583     20.938583     41.877167
     -2.447447     24.144256     24.144256     48.288512
     -2.437437     27.658257     27.658257     55.316513
     -2.427427     30.986573     30.986573     61.973146
     -2.417417     33.881710     33.881710     67.763420
     -2.407407     36.355191     36.355191     72.710381
     -2.397397     38.556879     38.556879     77.113757
     -2.387387     40.581299     40.581299     81.162598
     -2.377377     42.302352     42.302352     84.604703
     -2.367367     43.331177     43.331177     86.662354
     -2.357357     43.135152     43.135152     86.270305
     -2.347347     41.273418     41.273418     82.546836
     -2.337337     37.638670     37.638670     75.277340
     -2.327327     32.585264     32.585264     65.170527
     -2.317317     26.879042     26.879042     53.758084
     -2.307307     21.493303     21.493303     42.986606
     -2.297297     17.344730     17.344730     34.689460
     -2.287287     15.075465     15.075465     30.150930
     -2.277277     14.945940     14.945940     29.891880
     -2.267267     16.843021     16.843021     33.686041
     -2.257257     20.366103     20.366103     40.732206
     -2.247247     24.943338     24.943338     49.886677
     -2.237237     29.941413     29.941413     59.882826
     -2.227227     34.749321     34.749321     69.498642
     -2.217217     38.830974     38.830974     77.661948
     -2.207207     41.753021     41.753021     83.506042
     -2.197197     43.203192     43.203192     86.406384
     -2.187187     43.016150     43.016150     86.032300
     -2.177177     41.212347     41.212347     82.424694
     -2.167167     38.032392     38.032392     76.064785
     -2.157157     33.930105     33.930105     67.860211
     -2.147147     29.492246     29.492246     58.984493
     -2.137137     25.289356     25.289356     50.578711
     -2.127127     21.711053     21.711053     43.422105
     -2.117117     18.864175     18.864175     37.728351
     -2.107107     16.588364     16.588364     33.176728
     -2.097097     14.581367     14.581367     29.162735
     -2.087087     12.566259     12.566259     25.132518
     -2.077077     10.415082     10.415082     20.830164
     -2.067067      8.177275      8.177275     16.354550
     -2.057057      6.019610      6.019610     12.039221
     -2.047047      4.127920      4.127920      8.255840
     -2.037037      2.626837      2.626837      5.253673
     -2.027027      1.548259      1.548259      3.096518
     -2.017017      0.846004      0.846004      1.692008
     -2.007007      0.434189      0.434189      0.868379
     -1.996997      0.226215      0.226215      0.452431
     -1.986987      0.162359      0.162359      0.324717
     -1.976977      0.225829      0.225829      0.451658
     -1.966967      0.452606      0.452606      0.905211
     -1.956957      0.938284      0.938284      1.876568
     -1.946947      1.838400      1.838400      3.676800
     -1.936937      3.351991      3.351991      6.703983
     -1.926927      5.677055      5.677055     11.354110
     -1.916917      8.935435      8.935435     17.870871
     -1.906907     13.083132     13.083132     26.166265
     -1.896897     17.841836     17.841836     35.683671
     -1.886887     22.694618     22.694618     45.389236
     -1.876877     26.972196     26.972196     53.944392
     -1.866867     30.018266     30.018266     60.036533
     -1.856857     31.381126     31.381126     62.762252
     -1.846847     30.957648     30.957648     61.915297
     -1.836837     29.028389     29.028389     58.056779
     -1.826827     26.164324     26.164324     52.328649
     -1.816817     23.037319     23.037319     46.074638
     -1.806807     20.205676     20.205676     40.411352
     -1.796797     17.956788     17.956788     35.913576
     -1.786787     16.265521     16.265521     32.531042
     -1.776777     14.877232     14.877232     29.754463
     -1.766767     13.469423     13.469423     26.938847
     -1.756757     11.813516     11.813516     23.627031
     -1.746747      9.866162      9.866162     19.732323
     -1.736737      7.763049      7.763049     15.526098
     -1.726727      5.740210      5.740210     11.480420
     -1.716717      4.037703      4.037703      8.075406
     -1.706707      2.834439      2.834439      5.668879
     -1.696697      2.231369      2.231369      4.462739
     -1.686687      2.266996      2.266996      4.533993
     -1.676677      2.934051      2.934051      5.868103
     -1.666667      4.174561      4.174561      8.349122
     -1.656657      5.854115      5.854115     11.708230
     -1.646647      7.739397      7.739397     15.478794
     -1.636637      9.511100      9.511100     19.022199
     -1.626627     10.830142     10.830142     21.660284
