# EIG2DOS: Utility for SIESTA to obtain the electronic density of states
#  E. Artacho, Apr 1999, A. Garcia, Apr 2012
#  Nick R. Papior, Feb 2017
# ------------------------------------------
# Eigenvalues calculated from a non-polarized calculation
# Eigenvalues read from siesta.EIG
# Kpoint weights read from siesta.KP
# Using smearing parameter:   0.0500
# Using 1000 points in the energy range
# Selected bands: 1 to: 2981
# Emin, Emax in file for selected band(s):    -27.3118468    218.4074480
# Nbands, Nspin, Nk   =   2981     1     1
# E_F                 =    -4.1932 eV --> (shifted to ZERO)
# Broadening          =     0.0500 eV
#
#        E            N(up)  (=)   N(down)         Ntot
     -5.000000     32.471706     32.471706     64.943412
     -4.989990     37.533660     37.533660     75.067320
     -4.979980     42.181121     42.181121     84.362242
     -4.969970     45.596368     45.596368     91.192735
     -4.959960     47.130979     47.130979     94.261957
     -4.949950     46.523166     46.523166     93.046333
     -4.939940     43.988938     43.988938     87.977877
     -4.929930     40.167116     40.167116     80.334233
     -4.919920     35.963455     35.963455     71.926911
     -4.909910     32.362254     32.362254     64.724507
     -4.899900     30.250098     30.250098     60.500196
     -4.889890     30.258491     30.258491     60.516982
     -4.879880     32.620669     32.620669     65.241339
     -4.869870     37.064300     37.064300     74.128599
     -4.859860     42.796734     42.796734     85.593468
     -4.849850     48.639154     48.639154     97.278307
     -4.839840     53.311848     53.311848    106.623697
     -4.829830     55.791735     55.791735    111.583470
     -4.819820     55.608823     55.608823    111.217647
     -4.809810     52.961643     52.961643    105.923285
     -4.799800     48.609836     48.609836     97.219673
     -4.789790     43.600340     43.600340     87.200680
     -4.779780     38.945862     38.945862     77.891723
     -4.769770     35.371618     35.371618     70.743236
     -4.759760     33.192429     33.192429     66.384858
     -4.749750     32.318833     32.318833     64.637666
     -4.739740     32.353084     32.353084     64.706168
     -4.729730     32.730073     32.730073     65.460147
     -4.719720     32.867570     32.867570     65.735141
     -4.709710     32.298253     32.298253     64.596507
     -4.699700     30.761705     30.761705     61.523411
     -4.689690     28.245038     28.245038     56.490076
     -4.679680     24.976585     24.976585     49.953171
     -4.669670     21.388479     21.388479     42.776959
     -4.659660     18.062311     18.062311     36.124622
     -4.649650     15.659988     15.659988     31.319975
     -4.639640     14.830948     14.830948     29.661896
     -4.629630     16.087910     16.087910     32.175820
     -4.619620     19.660002     19.660002     39.320003
     -4.609610     25.359326     25.359326     50.718653
     -4.599600     32.520951     32.520951     65.041901
     -4.589590     40.076670     40.076670     80.153340
     -4.579580     46.784644     46.784644     93.569288
     -4.569570     51.566594     51.566594    103.133187
     -4.559560     53.836316     53.836316    107.672632
     -4.549550     53.682487     53.682487    107.364974
     -4.539540     51.817519     51.817519    103.635037
     -4.529530     49.303090     49.303090     98.606180
     -4.519520     47.160931     47.160931     94.321863
     -4.509510     46.024635     46.024635     92.049270
     -4.499499     45.964324     45.964324     91.928648
     -4.489489     46.536697     46.536697     93.073394
     -4.479479     47.017678     47.017678     94.035355
     -4.469469     46.706124     46.706124     93.412248
     -4.459459     45.172196     45.172196     90.344392
     -4.449449     42.365019     42.365019     84.730038
     -4.439439     38.567559     38.567559     77.135119
     -4.429429     34.254691     34.254691     68.509382
     -4.419419     29.940119     29.940119     59.880238
     -4.409409     26.077719     26.077719     52.155438
     -4.399399     23.030263     23.030263     46.060527
     -4.389389     21.070362     21.070362     42.140724
     -4.379379     20.367218     20.367218     40.734435
     -4.369369     20.943415     20.943415     41.886830
     -4.359359     22.631029     22.631029     45.262058
     -4.349349     25.077535     25.077535     50.155070
     -4.339339     27.830350     27.830350     55.660700
     -4.329329     30.479257     30.479257     60.958513
     -4.319319     32.794301     32.794301     65.588601
     -4.309309     34.791113     34.791113     69.582227
     -4.299299     36.687619     36.687619     73.375238
     -4.289289     38.764686     38.764686     77.529372
     -4.279279     41.184163     41.184163     82.368325
     -4.269269     43.837698     43.837698     87.675396
     -4.259259     46.295922     46.295922     92.591845
     -4.249249     47.898869     47.898869     95.797738
     -4.239239     47.975865     47.975865     95.951729
     -4.229229     46.119861     46.119861     92.239722
     -4.219219     42.398432     42.398432     84.796865
     -4.209209     37.394857     37.394857     74.789713
     -4.199199     32.044811     32.044811     64.089622
     -4.189189     27.333133     27.333133     54.666267
     -4.179179     23.983972     23.983972     47.967944
     -4.169169     22.276442     22.276442     44.552884
     -4.159159     22.050538     22.050538     44.101075
     -4.149149     22.876286     22.876286     45.752573
     -4.139139     24.290908     24.290908     48.581816
     -4.129129     25.990620     25.990620     51.981239
     -4.119119     27.894521     27.894521     55.789042
     -4.109109     30.060190     30.060190     60.120380
     -4.099099     32.501443     32.501443     65.002886
     -4.089089     35.012086     35.012086     70.024172
     -4.079079     37.107764     37.107764     74.215528
     -4.069069     38.145562     38.145562     76.291124
     -4.059059     37.584228     37.584228     75.168455
     -4.049049     35.259272     35.259272     70.518545
     -4.039039     31.525738     31.525738     63.051476
     -4.029029     27.187527     27.187527     54.375055
     -4.019019     23.246636     23.246636     46.493271
     -4.009009     20.595688     20.595688     41.191376
     -3.998999     19.790291     19.790291     39.580582
     -3.988989     20.976134     20.976134     41.952268
     -3.978979     23.958061     23.958061     47.916121
     -3.968969     28.339628     28.339628     56.679256
     -3.958959     33.657610     33.657610     67.315220
     -3.948949     39.472724     39.472724     78.945448
     -3.938939     45.419018     45.419018     90.838036
     -3.928929     51.229590     51.229590    102.459180
     -3.918919     56.742623     56.742623    113.485246
     -3.908909     61.872895     61.872895    123.745790
     -3.898899     66.537217     66.537217    133.074434
     -3.888889     70.552714     70.552714    141.105429
     -3.878879     73.561122     73.561122    147.122245
     -3.868869     75.038836     75.038836    150.077672
     -3.858859     74.418478     74.418478    148.836956
     -3.848849     71.290262     71.290262    142.580525
     -3.838839     65.604070     65.604070    131.208140
     -3.828829     57.783212     57.783212    115.566425
     -3.818819     48.693395     48.693395     97.386790
     -3.808809     39.468107     39.468107     78.936214
     -3.798799     31.246672     31.246672     62.493344
     -3.788789     24.910120     24.910120     49.820241
     -3.778779     20.894543     20.894543     41.789086
     -3.768769     19.129683     19.129683     38.259365
     -3.758759     19.109077     19.109077     38.218154
     -3.748749     20.062869     20.062869     40.125739
     -3.738739     21.183224     21.183224     42.366447
     -3.728729     21.845481     21.845481     43.690963
     -3.718719     21.772426     21.772426     43.544853
     -3.708709     21.101402     21.101402     42.202804
     -3.698699     20.333403     20.333403     40.666806
     -3.688689     20.169491     20.169491     40.338982
     -3.678679     21.271393     21.271393     42.542786
     -3.668669     24.013492     24.013492     48.026985
     -3.658659     28.309801     28.309801     56.619603
     -3.648649     33.586881     33.586881     67.173762
     -3.638639     38.925859     38.925859     77.851719
     -3.628629     43.327857     43.327857     86.655713
     -3.618619     46.001202     46.001202     92.002404
     -3.608609     46.560381     46.560381     93.120763
     -3.598599     45.073752     45.073752     90.147504
     -3.588589     41.970672     41.970672     83.941343
     -3.578579     37.872598     37.872598     75.745195
     -3.568569     33.419833     33.419833     66.839666
     -3.558559     29.137102     29.137102     58.274203
     -3.548549     25.350669     25.350669     50.701337
     -3.538539     22.159228     22.159228     44.318457
     -3.528529     19.463306     19.463306     38.926612
     -3.518519     17.052014     17.052014     34.104028
     -3.508509     14.723994     14.723994     29.447988
     -3.498498     12.397295     12.397295     24.794590
     -3.488488     10.163207     10.163207     20.326414
     -3.478478      8.266078      8.266078     16.532156
     -3.468468      7.025792      7.025792     14.051583
     -3.458458      6.738037      6.738037     13.476074
     -3.448448      7.582872      7.582872     15.165744
     -3.438438      9.557791      9.557791     19.115582
     -3.428428     12.444943     12.444943     24.889886
     -3.418418     15.826162     15.826162     31.652324
     -3.408408     19.160544     19.160544     38.321087
     -3.398398     21.922673     21.922673     43.845346
     -3.388388     23.766980     23.766980     47.533961
     -3.378378     24.655777     24.655777     49.311553
     -3.368368     24.889657     24.889657     49.779314
     -3.358358     25.015463     25.015463     50.030927
     -3.348348     25.639729     25.639729     51.279457
     -3.338338     27.213685     27.213685     54.427370
     -3.328328     29.861503     29.861503     59.723006
     -3.318318     33.303075     33.303075     66.606149
     -3.308308     36.895535     36.895535     73.791071
     -3.298298     39.793082     39.793082     79.586165
     -3.288288     41.195011     41.195011     82.390021
     -3.278278     40.612015     40.612015     81.224031
     -3.268268     38.048795     38.048795     76.097590
     -3.258258     34.011728     34.011728     68.023457
     -3.248248     29.320252     29.320252     58.640505
     -3.238238     24.799474     24.799474     49.598948
     -3.228228     20.997176     20.997176     41.994352
     -3.218218     18.054040     18.054040     36.108080
     -3.208208     15.769317     15.769317     31.538633
     -3.198198     13.801691     13.801691     27.603382
     -3.188188     11.888898     11.888898     23.777796
     -3.178178      9.984900      9.984900     19.969799
     -3.168168      8.277069      8.277069     16.554138
     -3.158158      7.110050      7.110050     14.220100
     -3.148148      6.871019      6.871019     13.742038
     -3.138138      7.879106      7.879106     15.758212
     -3.128128     10.294143     10.294143     20.588285
     -3.118118     14.045472     14.045472     28.090943
     -3.108108     18.790312     18.790312     37.580623
     -3.098098     23.928085     23.928085     47.856170
     -3.088088     28.696878     28.696878     57.393756
     -3.078078     32.347679     32.347679     64.695359
     -3.068068     34.344706     34.344706     68.689412
     -3.058058     34.509088     34.509088     69.018175
     -3.048048     33.037401     33.037401     66.074802
     -3.038038     30.385976     30.385976     60.771951
     -3.028028     27.082731     27.082731     54.165463
     -3.018018     23.564439     23.564439     47.128877
     -3.008008     20.114314     20.114314     40.228628
     -2.997998     16.909256     16.909256     33.818512
     -2.987988     14.122612     14.122612     28.245224
     -2.977978     12.006057     12.006057     24.012114
     -2.967968     10.898719     10.898719     21.797438
     -2.957958     11.157813     11.157813     22.315625
     -2.947948     13.041771     13.041771     26.083542
     -2.937938     16.590830     16.590830     33.181660
     -2.927928     21.547141     21.547141     43.094281
     -2.917918     27.346758     27.346758     54.693515
     -2.907908     33.201061     33.201061     66.402123
     -2.897898     38.260801     38.260801     76.521602
     -2.887888     41.823110     41.823110     83.646221
     -2.877878     43.513677     43.513677     87.027353
     -2.867868     43.371978     43.371978     86.743955
     -2.857858     41.798270     41.798270     83.596541
     -2.847848     39.378523     39.378523     78.757047
     -2.837838     36.660827     36.660827     73.321653
     -2.827828     33.981973     33.981973     67.963946
     -2.817818     31.418404     31.418404     62.836808
     -2.807808     28.871553     28.871553     57.743107
     -2.797798     26.228167     26.228167     52.456334
     -2.787788     23.500480     23.500480     47.000961
     -2.777778     20.869398     20.869398     41.738796
     -2.767768     18.614658     18.614658     37.229315
     -2.757758     16.983127     16.983127     33.966255
     -2.747748     16.080250     16.080250     32.160500
     -2.737738     15.850242     15.850242     31.700484
     -2.727728     16.150214     16.150214     32.300428
     -2.717718     16.860184     16.860184     33.720369
     -2.707708     17.947080     17.947080     35.894160
     -2.697698     19.434591     19.434591     38.869181
     -2.687688     21.301474     21.301474     42.602948
     -2.677678     23.389369     23.389369     46.778737
     -2.667668     25.402580     25.402580     50.805160
     -2.657658     27.020646     27.020646     54.041291
     -2.647648     28.061263     28.061263     56.122526
     -2.637638     28.587466     28.587466     57.174932
     -2.627628     28.883574     28.883574     57.767148
     -2.617618     29.309170     29.309170     58.618340
     -2.607608     30.117724     30.117724     60.235448
     -2.597598     31.341402     31.341402     62.682804
     -2.587588     32.790262     32.790262     65.580524
     -2.577578     34.138465     34.138465     68.276930
     -2.567568     35.030200     35.030200     70.060400
     -2.557558     35.156088     35.156088     70.312176
     -2.547548     34.298952     34.298952     68.597905
     -2.537538     32.377329     32.377329     64.754658
     -2.527528     29.501078     29.501078     59.002156
     -2.517518     26.014539     26.014539     52.029079
     -2.507508     22.479860     22.479860     44.959721
     -2.497497     19.571277     19.571277     39.142554
     -2.487487     17.899189     17.899189     35.798379
     -2.477477     17.827137     17.827137     35.654274
     -2.467467     19.357350     19.357350     38.714701
     -2.457457     22.136041     22.136041     44.272082
     -2.447447     25.581581     25.581581     51.163162
     -2.437437     29.087959     29.087959     58.175919
     -2.427427     32.222109     32.222109     64.444218
     -2.417417     34.831779     34.831779     69.663557
     -2.407407     37.015480     37.015480     74.030959
     -2.397397     38.967119     38.967119     77.934239
     -2.387387     40.769899     40.769899     81.539798
     -2.377377     42.246371     42.246371     84.492742
     -2.367367     42.953065     42.953065     85.906130
     -2.357357     42.340488     42.340488     84.680976
     -2.347347     40.012358     40.012358     80.024716
     -2.337337     35.959099     35.959099     71.918198
     -2.327327     30.647900     30.647900     61.295800
     -2.317317     24.924614     24.924614     49.849227
     -2.307307     19.777588     19.777588     39.555176
     -2.297297     16.072491     16.072491     32.144983
     -2.287287     14.360545     14.360545     28.721090
     -2.277277     14.807072     14.807072     29.614144
     -2.267267     17.226279     17.226279     34.452559
     -2.257257     21.175730     21.175730     42.351460
     -2.247247     26.064992     26.064992     52.129983
     -2.237237     31.251126     31.251126     62.502252
     -2.227227     36.111521     36.111521     72.223042
     -2.217217     40.095483     40.095483     80.190966
     -2.207207     42.762022     42.762022     85.524044
     -2.197197     43.814398     43.814398     87.628795
     -2.187187     43.139495     43.139495     86.278989
     -2.177177     40.848131     40.848131     81.696261
     -2.167167     37.294299     37.294299     74.588597
     -2.157157     33.041110     33.041110     66.082220
     -2.147147     28.754593     28.754593     57.509185
     -2.137137     25.043890     25.043890     50.087780
     -2.127127     22.305180     22.305180     44.610361
     -2.117117     20.635704     20.635704     41.271408
     -2.107107     19.851585     19.851585     39.703169
     -2.097097     19.589567     19.589567     39.179135
     -2.087087     19.436523     19.436523     38.873046
     -2.077077     19.034095     19.034095     38.068190
     -2.067067     18.138177     18.138177     36.276353
     -2.057057     16.642534     16.642534     33.285067
     -2.047047     14.581646     14.581646     29.163291
     -2.037037     12.115432     12.115432     24.230865
     -2.027027      9.489718      9.489718     18.979435
     -2.017017      6.973899      6.973899     13.947798
     -2.007007      4.793842      4.793842      9.587684
     -1.996997      3.086136      3.086136      6.172273
     -1.986987      1.890880      1.890880      3.781760
     -1.976977      1.180894      1.180894      2.361787
     -1.966967      0.909298      0.909298      1.818595
     -1.956957      1.052747      1.052747      2.105494
     -1.946947      1.632860      1.632860      3.265721
     -1.936937      2.707856      2.707856      5.415712
     -1.926927      4.336506      4.336506      8.673013
     -1.916917      6.526394      6.526394     13.052788
     -1.906907      9.186681      9.186681     18.373362
     -1.896897     12.107778     12.107778     24.215555
     -1.886887     14.982445     14.982445     29.964890
     -1.876877     17.466560     17.466560     34.933120
     -1.866867     19.261220     19.261220     38.522441
     -1.856857     20.189753     20.189753     40.379506
     -1.846847     20.245487     20.245487     40.490974
     -1.836837     19.594163     19.594163     39.188327
     -1.826827     18.524821     18.524821     37.049643
     -1.816817     17.356608     17.356608     34.713217
     -1.806807     16.328088     16.328088     32.656176
     -1.796797     15.512632     15.512632     31.025265
     -1.786787     14.802506     14.802506     29.605011
     -1.776777     13.975980     13.975980     27.951959
     -1.766767     12.817847     12.817847     25.635695
     -1.756757     11.232559     11.232559     22.465117
     -1.746747      9.294122      9.294122     18.588245
     -1.736737      7.215516      7.215516     14.431032
     -1.726727      5.265789      5.265789     10.531578
     -1.716717      3.685377      3.685377      7.370754
     -1.706707      2.638722      2.638722      5.277444
     -1.696697      2.211290      2.211290      4.422580
     -1.686687      2.429329      2.429329      4.858658
     -1.676677      3.272192      3.272192      6.544385
     -1.666667      4.660706      4.660706      9.321411
     -1.656657      6.429999      6.429999     12.859997
     -1.646647      8.315287      8.315287     16.630574
     -1.636637      9.980713      9.980713     19.961425
     -1.626627     11.100954     11.100954     22.201909
