# EIG2DOS: Utility for SIESTA to obtain the electronic density of states
#  E. Artacho, Apr 1999, A. Garcia, Apr 2012
#  Nick R. Papior, Feb 2017
# ------------------------------------------
# Eigenvalues calculated from a non-polarized calculation
# Eigenvalues read from siesta.EIG
# Kpoint weights read from siesta.KP
# Using smearing parameter:   0.0500
# Using 1000 points in the energy range
# Selected bands: 1 to: 2981
# Emin, Emax in file for selected band(s):    -27.3258741    218.3748080
# Nbands, Nspin, Nk   =   2981     1     1
# E_F                 =    -4.2322 eV --> (shifted to ZERO)
# Broadening          =     0.0500 eV
#
#        E            N(up)  (=)   N(down)         Ntot
     -5.000000     31.423218     31.423218     62.846436
     -4.989990     35.823878     35.823878     71.647757
     -4.979980     40.009850     40.009850     80.019700
     -4.969970     43.338827     43.338827     86.677655
     -4.959960     45.220642     45.220642     90.441285
     -4.949950     45.307718     45.307718     90.615436
     -4.939940     43.620182     43.620182     87.240364
     -4.929930     40.564043     40.564043     81.128086
     -4.919920     36.851175     36.851175     73.702351
     -4.909910     33.362377     33.362377     66.724754
     -4.899900     30.991739     30.991739     61.983478
     -4.889890     30.485084     30.485084     60.970168
     -4.879880     32.271084     32.271084     64.542168
     -4.869870     36.303578     36.303578     72.607155
     -4.859860     41.974184     41.974184     83.948367
     -4.849850     48.172650     48.172650     96.345300
     -4.839840     53.532931     53.532931    107.065861
     -4.829830     56.813571     56.813571    113.627142
     -4.819820     57.274799     57.274799    114.549597
     -4.809810     54.894138     54.894138    109.788275
     -4.799800     50.330484     50.330484    100.660968
     -4.789790     44.666187     44.666187     89.332374
     -4.779780     39.054318     39.054318     78.108637
     -4.769770     34.417482     34.417482     68.834963
     -4.759760     31.285359     31.285359     62.570718
     -4.749750     29.772351     29.772351     59.544701
     -4.739740     29.642738     29.642738     59.285476
     -4.729730     30.410229     30.410229     60.820458
     -4.719720     31.448672     31.448672     62.897344
     -4.709710     32.113635     32.113635     64.227270
     -4.699700     31.872416     31.872416     63.744831
     -4.689690     30.423112     30.423112     60.846224
     -4.679680     27.772638     27.772638     55.545277
     -4.669670     24.250462     24.250462     48.500925
     -4.659660     20.454578     20.454578     40.909156
     -4.649650     17.145424     17.145424     34.290847
     -4.639640     15.111375     15.111375     30.222751
     -4.629630     15.024804     15.024804     30.049609
     -4.619620     17.299808     17.299808     34.599617
     -4.609610     21.964698     21.964698     43.929397
     -4.599600     28.578939     28.578939     57.157878
     -4.589590     36.242780     36.242780     72.485560
     -4.579580     43.743353     43.743353     87.486707
     -4.569570     49.837205     49.837205     99.674410
     -4.559560     53.598669     53.598669    107.197337
     -4.549550     54.706901     54.706901    109.413802
     -4.539540     53.544354     53.544354    107.088708
     -4.529530     51.048029     51.048029    102.096058
     -4.519520     48.361679     48.361679     96.723359
     -4.509510     46.426836     46.426836     92.853673
     -4.499499     45.676576     45.676576     91.353152
     -4.489489     45.946145     45.946145     91.892289
     -4.479479     46.615842     46.615842     93.231684
     -4.469469     46.903344     46.903344     93.806688
     -4.459459     46.170730     46.170730     92.341460
     -4.449449     44.125456     44.125456     88.250912
     -4.439439     40.860395     40.860395     81.720789
     -4.429429     36.757851     36.757851     73.515702
     -4.419419     32.335139     32.335139     64.670278
     -4.409409     28.111822     28.111822     56.223644
     -4.399399     24.537662     24.537662     49.075324
     -4.389389     21.967573     21.967573     43.935146
     -4.379379     20.642478     20.642478     41.284956
     -4.369369     20.649605     20.649605     41.299210
     -4.359359     21.876281     21.876281     43.752562
     -4.349349     24.001421     24.001421     48.002842
     -4.339339     26.561491     26.561491     53.122982
     -4.329329     29.086117     29.086117     58.172234
     -4.319319     31.252790     31.252790     62.505579
     -4.309309     32.991771     32.991771     65.983542
     -4.299299     34.491304     34.491304     68.982609
     -4.289289     36.094876     36.094876     72.189751
     -4.279279     38.124191     38.124191     76.248381
     -4.269269     40.689901     40.689901     81.379803
     -4.259259     43.563658     43.563658     87.127315
     -4.249249     46.176365     46.176365     92.352729
     -4.239239     47.770999     47.770999     95.541998
     -4.229229     47.674108     47.674108     95.348216
     -4.219219     45.581810     45.581810     91.163619
     -4.209209     41.726767     41.726767     83.453535
     -4.199199     36.834242     36.834242     73.668483
     -4.189189     31.876229     31.876229     63.752458
     -4.179179     27.736319     27.736319     55.472638
     -4.169169     24.940329     24.940329     49.880658
     -4.159159     23.564816     23.564816     47.129632
     -4.149149     23.338321     23.338321     46.676642
     -4.139139     23.858588     23.858588     47.717176
     -4.129129     24.808398     24.808398     49.616795
     -4.119119     26.070901     26.070901     52.141803
     -4.109109     27.701646     27.701646     55.403291
     -4.099099     29.781617     29.781617     59.563234
     -4.089089     32.231874     32.231874     64.463747
     -4.079079     34.696066     34.696066     69.392133
     -4.069069     36.574661     36.574661     73.149321
     -4.059059     37.222124     37.222124     74.444249
     -4.049049     36.225774     36.225774     72.451549
     -4.039039     33.626993     33.626993     67.253987
     -4.029029     29.965246     29.965246     59.930493
     -4.019019     26.117246     26.117246     52.234492
     -4.009009     23.011761     23.011761     46.023521
     -3.998999     21.357380     21.357380     42.714760
     -3.988989     21.495414     21.495414     42.990828
     -3.978979     23.407988     23.407988     46.815977
     -3.968969     26.830134     26.830134     53.660268
     -3.958959     31.382429     31.382429     62.764859
     -3.948949     36.665578     36.665578     73.331155
     -3.938939     42.308815     42.308815     84.617630
     -3.928929     47.997128     47.997128     95.994255
     -3.918919     53.496540     53.496540    106.993080
     -3.908909     58.666887     58.666887    117.333774
     -3.898899     63.432829     63.432829    126.865657
     -3.888889     67.700256     67.700256    135.400511
     -3.878879     71.248236     71.248236    142.496473
     -3.868869     73.662505     73.662505    147.325011
     -3.858859     74.373567     74.373567    148.747134
     -3.848849     72.815579     72.815579    145.631158
     -3.838839     68.655905     68.655905    137.311810
     -3.828829     61.997958     61.997958    123.995916
     -3.818819     53.460004     53.460004    106.920009
     -3.808809     44.082025     44.082025     88.164050
     -3.798799     35.085994     35.085994     70.171987
     -3.788789     27.574574     27.574574     55.149147
     -3.778779     22.271556     22.271556     44.543112
     -3.768769     19.381869     19.381869     38.763739
     -3.758759     18.599368     18.599368     37.198737
     -3.748749     19.243024     19.243024     38.486049
     -3.738739     20.472714     20.472714     40.945428
     -3.728729     21.526009     21.526009     43.052019
     -3.718719     21.920452     21.920452     43.840904
     -3.708709     21.575480     21.575480     43.150960
     -3.698699     20.822927     20.822927     41.645854
     -3.688689     20.296482     20.296482     40.592964
     -3.678679     20.719809     20.719809     41.439617
     -3.668669     22.646826     22.646826     45.293651
     -3.658659     26.235106     26.235106     52.470212
     -3.648649     31.137835     31.137835     62.275670
     -3.638639     36.567572     36.567572     73.135144
     -3.628629     41.519469     41.519469     83.038938
     -3.618619     45.070466     45.070466     90.140933
     -3.608609     46.635339     46.635339     93.270679
     -3.598599     46.085502     46.085502     92.171005
     -3.588589     43.708318     43.708318     87.416636
     -3.578579     40.056697     40.056697     80.113394
     -3.568569     35.768082     35.768082     71.536164
     -3.558559     31.412688     31.412688     62.825375
     -3.548549     27.393680     27.393680     54.787360
     -3.538539     23.900365     23.900365     47.800731
     -3.528529     20.915263     20.915263     41.830526
     -3.518519     18.277164     18.277164     36.554328
     -3.508509     15.787394     15.787394     31.574789
     -3.498498     13.322318     13.322318     26.644636
     -3.488488     10.904895     10.904895     21.809789
     -3.478478      8.705878      8.705878     17.411756
     -3.468468      6.980318      6.980318     13.960636
     -3.458458      5.972855      5.972855     11.945711
     -3.448448      5.830640      5.830640     11.661281
     -3.438438      6.550662      6.550662     13.101323
     -3.428428      7.974042      7.974042     15.948083
     -3.418418      9.830816      9.830816     19.661633
     -3.408408     11.828975     11.828975     23.657950
     -3.398398     13.763622     13.763622     27.527243
     -3.388388     15.602063     15.602063     31.204126
     -3.378378     17.497718     17.497718     34.995436
     -3.368368     19.714251     19.714251     39.428502
     -3.358358     22.491078     22.491078     44.982156
     -3.348348     25.918431     25.918431     51.836863
     -3.338338     29.883056     29.883056     59.766112
     -3.328328     34.095847     34.095847     68.191695
     -3.318318     38.159539     38.159539     76.319078
     -3.308308     41.623622     41.623622     83.247245
     -3.298298     44.013928     44.013928     88.027857
     -3.288288     44.875090     44.875090     89.750180
     -3.278278     43.870277     43.870277     87.740554
     -3.268268     40.929009     40.929009     81.858018
     -3.258258     36.365070     36.365070     72.730139
     -3.248248     30.868430     30.868430     61.736861
     -3.238238     25.333688     25.333688     50.667376
     -3.228228     20.584089     20.584089     41.168179
     -3.218218     17.115606     17.115606     34.231212
     -3.208208     14.976967     14.976967     29.953935
     -3.198198     13.830544     13.830544     27.661087
     -3.188188     13.153033     13.153033     26.306066
     -3.178178     12.480069     12.480069     24.960138
     -3.168168     11.594765     11.594765     23.189530
     -3.158158     10.598264     10.598264     21.196528
     -3.148148      9.854995      9.854995     19.709989
     -3.138138      9.849529      9.849529     19.699059
     -3.128128     11.010388     11.010388     22.020776
     -3.118118     13.551537     13.551537     27.103075
     -3.108108     17.369065     17.369065     34.738129
     -3.098098     22.019558     22.019558     44.039116
     -3.088088     26.795617     26.795617     53.591234
     -3.078078     30.891975     30.891975     61.783949
     -3.068068     33.620302     33.620302     67.240603
     -3.058058     34.598057     34.598057     69.196113
     -3.048048     33.833458     33.833458     67.666915
     -3.038038     31.669304     31.669304     63.338607
     -3.028028     28.617083     28.617083     57.234166
     -3.018018     25.168788     25.168788     50.337576
     -3.008008     21.679527     21.679527     43.359054
     -2.997998     18.364888     18.364888     36.729777
     -2.987988     15.386459     15.386459     30.772918
     -2.977978     12.953097     12.953097     25.906194
     -2.967968     11.368574     11.368574     22.737147
     -2.957958     10.996152     10.996152     21.992305
     -2.947948     12.155893     12.155893     24.311785
     -2.937938     14.996968     14.996968     29.993937
     -2.927928     19.392339     19.392339     38.784679
     -2.917918     24.895974     24.895974     49.791947
     -2.907908     30.789134     30.789134     61.578267
     -2.897898     36.219442     36.219442     72.438884
     -2.887888     40.403301     40.403301     80.806603
     -2.877878     42.828950     42.828950     85.657901
     -2.867868     43.383630     43.383630     86.767260
     -2.857858     42.349153     42.349153     84.698306
     -2.847848     40.262637     40.262637     80.525274
     -2.837838     37.699853     37.699853     75.399705
     -2.827828     35.075671     35.075671     70.151342
     -2.817818     32.547631     32.547631     65.095262
     -2.807808     30.056542     30.056542     60.113084
     -2.797798     27.468620     27.468620     54.937239
     -2.787788     24.733907     24.733907     49.467814
     -2.777778     21.972767     21.972767     43.945533
     -2.767768     19.447377     19.447377     38.894754
     -2.757758     17.442818     17.442818     34.885635
     -2.747748     16.133839     16.133839     32.267679
     -2.737738     15.519050     15.519050     31.038101
     -2.727728     15.460294     15.460294     30.920588
     -2.717718     15.797387     15.797387     31.594774
     -2.707708     16.458939     16.458939     32.917877
     -2.697698     17.491668     17.491668     34.983335
     -2.687688     18.985276     18.985276     37.970553
     -2.677678     20.943665     20.943665     41.887330
     -2.667668     23.195985     23.195985     46.391970
     -2.657658     25.420143     25.420143     50.840286
     -2.647648     27.277103     27.277103     54.554206
     -2.637638     28.576405     28.576405     57.152810
     -2.627628     29.367570     29.367570     58.735141
     -2.617618     29.898842     29.898842     59.797685
     -2.607608     30.471276     30.471276     60.942551
     -2.597598     31.279824     31.279824     62.559648
     -2.587588     32.329492     32.329492     64.658985
     -2.577578     33.452771     33.452771     66.905543
     -2.567568     34.387574     34.387574     68.775148
     -2.557558     34.854275     34.854275     69.708550
     -2.547548     34.603171     34.603171     69.206342
     -2.537538     33.450090     33.450090     66.900180
     -2.527528     31.331044     31.331044     62.662089
     -2.517518     28.375598     28.375598     56.751196
     -2.507508     24.955499     24.955499     49.910999
     -2.497497     21.653596     21.653596     43.307191
     -2.487487     19.133031     19.133031     38.266062
     -2.477477     17.944410     17.944410     35.888820
     -2.467467     18.349504     18.349504     36.699008
     -2.457457     20.239627     20.239627     40.479255
     -2.447447     23.187283     23.187283     46.374567
     -2.437437     26.611826     26.611826     53.223652
     -2.427427     29.989210     29.989210     59.978420
     -2.417417     33.014124     33.014124     66.028248
     -2.407407     35.641824     35.641824     71.283648
     -2.397397     37.992094     37.992094     75.984189
     -2.387387     40.165668     40.165668     80.331335
     -2.377377     42.070715     42.070715     84.141431
     -2.367367     43.357455     43.357455     86.714910
     -2.357357     43.508598     43.508598     87.017196
     -2.347347     42.054704     42.054704     84.109409
     -2.337337     38.816116     38.816116     77.632231
     -2.327327     34.054357     34.054357     68.108714
     -2.317317     28.458288     28.458288     56.916576
     -2.307307     22.970854     22.970854     45.941707
     -2.297297     18.534586     18.534586     37.069172
     -2.287287     15.858947     15.858947     31.717895
     -2.277277     15.284410     15.284410     30.568819
     -2.267267     16.763610     16.763610     33.527221
     -2.257257     19.933919     19.933919     39.867837
     -2.247247     24.236246     24.236246     48.472492
     -2.237237     29.038173     29.038173     58.076346
     -2.227227     33.732567     33.732567     67.465134
     -2.217217     37.797787     37.797787     75.595574
     -2.207207     40.821111     40.821111     81.642222
     -2.197197     42.502160     42.502160     85.004320
     -2.187187     42.661040     42.661040     85.322079
     -2.177177     41.267739     41.267739     82.535478
     -2.167167     38.484027     38.484027     76.968054
     -2.157157     34.681419     34.681419     69.362838
     -2.147147     30.392952     30.392952     60.785904
     -2.137137     26.186496     26.186496     52.372992
     -2.127127     22.499555     22.499555     44.999110
     -2.117117     19.512987     19.512987     39.025974
     -2.107107     17.131400     17.131400     34.262800
     -2.097097     15.081775     15.081775     30.163550
     -2.087087     13.075682     13.075682     26.151364
     -2.077077     10.949090     10.949090     21.898180
     -2.067067      8.716006      8.716006     17.432012
     -2.057057      6.528413      6.528413     13.056826
     -2.047047      4.585483      4.585483      9.170965
     -2.037037      3.050576      3.050576      6.101152
     -2.027027      2.014062      2.014062      4.028124
     -2.017017      1.504405      1.504405      3.008809
     -2.007007      1.522995      1.522995      3.045990
     -1.996997      2.071291      2.071291      4.142582
     -1.986987      3.149937      3.149937      6.299875
     -1.976977      4.729868      4.729868      9.459736
     -1.966967      6.715192      6.715192     13.430385
     -1.956957      8.927614      8.927614     17.855228
     -1.946947     11.134778     11.134778     22.269556
     -1.936937     13.120154     13.120154     26.240308
     -1.926927     14.762005     14.762005     29.524011
     -1.916917     16.074662     16.074662     32.149324
     -1.906907     17.181300     17.181300     34.362599
     -1.896897     18.227486     18.227486     36.454972
     -1.886887     19.282510     19.282510     38.565021
     -1.876877     20.284317     20.284317     40.568635
     -1.866867     21.058186     21.058186     42.116372
     -1.856857     21.398059     21.398059     42.796119
     -1.846847     21.168600     21.168600     42.337201
     -1.836837     20.379247     20.379247     40.758495
     -1.826827     19.195831     19.195831     38.391662
     -1.816817     17.881454     17.881454     35.762907
     -1.806807     16.688375     16.688375     33.376750
     -1.796797     15.747914     15.747914     31.495828
     -1.786787     15.012729     15.012729     30.025457
     -1.776777     14.284830     14.284830     28.569660
     -1.766767     13.318707     13.318707     26.637414
     -1.756757     11.946832     11.946832     23.893664
     -1.746747     10.162824     10.162824     20.325649
     -1.736737      8.124698      8.124698     16.249395
     -1.726727      6.088023      6.088023     12.176045
     -1.716717      4.314465      4.314465      8.628930
     -1.706707      3.004169      3.004169      6.008339
     -1.696697      2.274609      2.274609      4.549217
     -1.686687      2.175260      2.175260      4.350520
     -1.676677      2.708386      2.708386      5.416773
     -1.666667      3.830183      3.830183      7.660366
     -1.656657      5.427933      5.427933     10.855866
     -1.646647      7.293311      7.293311     14.586622
     -1.636637      9.124264      9.124264     18.248528
     -1.626627     10.578620     10.578620     21.157240
