# EIG2DOS: Utility for SIESTA to obtain the electronic density of states
#  E. Artacho, Apr 1999, A. Garcia, Apr 2012
#  Nick R. Papior, Feb 2017
# ------------------------------------------
# Eigenvalues calculated from a non-polarized calculation
# Eigenvalues read from siesta.EIG
# Kpoint weights read from siesta.KP
# Using smearing parameter:   0.0500
# Using 1000 points in the energy range
# Selected bands: 1 to: 2981
# Emin, Emax in file for selected band(s):    -27.0343959    218.3049700
# Nbands, Nspin, Nk   =   2981     1     1
# E_F                 =    -4.3050 eV --> (shifted to ZERO)
# Broadening          =     0.0500 eV
#
#        E            N(up)  (=)   N(down)         Ntot
     -5.000000     45.406518     45.406518     90.813037
     -4.989990     49.279958     49.279958     98.559917
     -4.979980     51.544541     51.544541    103.089082
     -4.969970     51.967207     51.967207    103.934414
     -4.959960     50.606554     50.606554    101.213107
     -4.949950     47.778779     47.778779     95.557559
     -4.939940     43.972192     43.972192     87.944383
     -4.929930     39.759445     39.759445     79.518891
     -4.919920     35.743941     35.743941     71.487882
     -4.909910     32.541214     32.541214     65.082429
     -4.899900     30.759892     30.759892     61.519785
     -4.889890     30.932427     30.932427     61.864854
     -4.879880     33.368963     33.368963     66.737927
     -4.869870     37.966137     37.966137     75.932275
     -4.859860     44.066968     44.066968     88.133936
     -4.849850     50.489284     50.489284    100.978569
     -4.839840     55.782965     55.782965    111.565929
     -4.829830     58.656072     58.656072    117.312145
     -4.819820     58.397208     58.397208    116.794416
     -4.809810     55.097398     55.097398    110.194797
     -4.799800     49.567933     49.567933     99.135866
     -4.789790     43.006748     43.006748     86.013496
     -4.779780     36.585155     36.585155     73.170310
     -4.769770     31.137544     31.137544     62.275088
     -4.759760     27.047755     27.047755     54.095509
     -4.749750     24.310197     24.310197     48.620394
     -4.739740     22.675711     22.675711     45.351422
     -4.729730     21.794330     21.794330     43.588661
     -4.719720     21.310638     21.310638     42.621275
     -4.709710     20.910423     20.910423     41.820846
     -4.699700     20.339277     20.339277     40.678554
     -4.689690     19.416837     19.416837     38.833674
     -4.679680     18.062873     18.062873     36.125745
     -4.669670     16.337133     16.337133     32.674266
     -4.659660     14.477796     14.477796     28.955592
     -4.649650     12.911933     12.911933     25.823865
     -4.639640     12.213171     12.213171     24.426342
     -4.629630     12.995985     12.995985     25.991970
     -4.619620     15.755946     15.755946     31.511892
     -4.609610     20.686491     20.686491     41.372982
     -4.599600     27.524587     27.524587     55.049175
     -4.589590     35.493861     35.493861     70.987722
     -4.579580     43.406648     43.406648     86.813296
     -4.569570     49.939397     49.939397     99.878794
     -4.559560     54.016132     54.016132    108.032263
     -4.549550     55.161973     55.161973    110.323947
     -4.539540     53.673585     53.673585    107.347170
     -4.529530     50.518525     50.518525    101.037050
     -4.519520     46.993454     46.993454     93.986908
     -4.509510     44.279113     44.279113     88.558227
     -4.499499     43.070391     43.070391     86.140781
     -4.489489     43.415669     43.415669     86.831338
     -4.479479     44.800490     44.800490     89.600979
     -4.469469     46.409748     46.409748     92.819496
     -4.459459     47.445387     47.445387     94.890773
     -4.449449     47.378807     47.378807     94.757614
     -4.439439     46.065371     46.065371     92.130742
     -4.429429     43.713209     43.713209     87.426417
     -4.419419     40.752059     40.752059     81.504119
     -4.409409     37.672601     37.672601     75.345202
     -4.399399     34.898607     34.898607     69.797214
     -4.389389     32.722107     32.722107     65.444214
     -4.379379     31.294273     31.294273     62.588546
     -4.369369     30.642719     30.642719     61.285439
     -4.359359     30.689701     30.689701     61.379402
     -4.349349     31.267596     31.267596     62.535193
     -4.339339     32.147073     32.147073     64.294146
     -4.329329     33.091753     33.091753     66.183506
     -4.319319     33.931955     33.931955     67.863910
     -4.309309     34.627764     34.627764     69.255529
     -4.299299     35.287800     35.287800     70.575600
     -4.289289     36.127540     36.127540     72.255079
     -4.279279     37.376275     37.376275     74.752551
     -4.269269     39.160125     39.160125     78.320250
     -4.259259     41.397665     41.397665     82.795329
     -4.249249     43.749483     43.749483     87.498965
     -4.239239     45.660447     45.660447     91.320895
     -4.229229     46.510030     46.510030     93.020059
     -4.219219     45.835541     45.835541     91.671082
     -4.209209     43.537591     43.537591     87.075183
     -4.199199     39.959986     39.959986     79.919971
     -4.189189     35.786244     35.786244     71.572489
     -4.179179     31.791853     31.791853     63.583707
     -4.169169     28.573371     28.573371     57.146742
     -4.159159     26.386397     26.386397     52.772793
     -4.149149     25.158246     25.158246     50.316492
     -4.139139     24.644350     24.644350     49.288700
     -4.129129     24.628670     24.628670     49.257341
     -4.119119     25.058376     25.058376     50.116752
     -4.109109     26.045116     26.045116     52.090231
     -4.099099     27.734055     27.734055     55.468109
     -4.089089     30.110236     30.110236     60.220472
     -4.079079     32.853407     32.853407     65.706814
     -4.069069     35.342339     35.342339     70.684677
     -4.059059     36.839622     36.839622     73.679244
     -4.049049     36.785636     36.785636     73.571271
     -4.039039     35.055894     35.055894     70.111789
     -4.029029     32.043738     32.043738     64.087477
     -4.019019     28.523841     28.523841     57.047681
     -4.009009     25.373536     25.373536     50.747072
     -3.998999     23.298886     23.298886     46.597772
     -3.988989     22.688368     22.688368     45.376736
     -3.978979     23.623983     23.623983     47.247966
     -3.968969     25.987028     25.987028     51.974056
     -3.958959     29.564253     29.564253     59.128505
     -3.948949     34.098610     34.098610     68.197220
     -3.938939     39.294810     39.294810     78.589620
     -3.928929     44.827631     44.827631     89.655261
     -3.918919     50.385031     50.385031    100.770061
     -3.908909     55.729522     55.729522    111.459044
     -3.898899     60.725596     60.725596    121.451193
     -3.888889     65.290776     65.290776    130.581551
     -3.878879     69.278869     69.278869    138.557738
     -3.868869     72.361226     72.361226    144.722452
     -3.858859     73.994549     73.994549    147.989098
     -3.848849     73.531750     73.531750    147.063500
     -3.838839     70.457598     70.457598    140.915196
     -3.828829     64.653512     64.653512    129.307024
     -3.818819     56.562671     56.562671    113.125343
     -3.808809     47.162275     47.162275     94.324550
     -3.798799     37.737849     37.737849     75.475698
     -3.788789     29.545360     29.545360     59.090720
     -3.778779     23.490569     23.490569     46.981138
     -3.768769     19.934359     19.934359     39.868718
     -3.758759     18.670007     18.670007     37.340015
     -3.748749     19.053371     19.053371     38.106741
     -3.738739     20.227654     20.227654     40.455308
     -3.728729     21.374819     21.374819     42.749637
     -3.718719     21.933701     21.933701     43.867402
     -3.708709     21.738540     21.738540     43.477080
     -3.698699     21.046866     21.046866     42.093731
     -3.688689     20.445519     20.445519     40.891038
     -3.678679     20.651067     20.651067     41.302134
     -3.668669     22.254070     22.254070     44.508140
     -3.658659     25.485222     25.485222     50.970445
     -3.648649     30.088869     30.088869     60.177737
     -3.638639     35.361449     35.361449     70.722899
     -3.628629     40.350555     40.350555     80.701110
     -3.618619     44.139705     44.139705     88.279410
     -3.608609     46.104522     46.104522     92.209045
     -3.598599     46.044680     46.044680     92.089361
     -3.588589     44.162970     44.162970     88.325939
     -3.578579     40.934273     40.934273     81.868547
     -3.568569     36.939283     36.939283     73.878566
     -3.558559     32.721407     32.721407     65.442814
     -3.548549     28.689077     28.689077     57.378154
     -3.538539     25.064035     25.064035     50.128070
     -3.528529     21.877132     21.877132     43.754263
     -3.518519     19.016926     19.016926     38.033851
     -3.508509     16.323420     16.323420     32.646840
     -3.498498     13.694261     13.694261     27.388522
     -3.488488     11.157209     11.157209     22.314418
     -3.478478      8.876874      8.876874     17.753748
     -3.468468      7.097180      7.097180     14.194361
     -3.458458      6.049670      6.049670     12.099340
     -3.448448      5.865151      5.865151     11.730303
     -3.438438      6.515966      6.515966     13.031932
     -3.428428      7.803099      7.803099     15.606197
     -3.418418      9.394501      9.394501     18.789001
     -3.408408     10.913076     10.913076     21.826153
     -3.398398     12.056620     12.056620     24.113241
     -3.388388     12.710911     12.710911     25.421821
     -3.378378     13.007510     13.007510     26.015020
     -3.368368     13.294170     13.294170     26.588339
     -3.358358     14.024168     14.024168     28.048335
     -3.348348     15.608174     15.608174     31.216347
     -3.338338     18.283278     18.283278     36.566555
     -3.328328     22.033756     22.033756     44.067513
     -3.318318     26.567196     26.567196     53.134391
     -3.308308     31.335204     31.335204     62.670408
     -3.298298     35.598387     35.598387     71.196775
     -3.288288     38.549742     38.549742     77.099483
     -3.278278     39.499173     39.499173     78.998345
     -3.268268     38.078803     38.078803     76.157606
     -3.258258     34.386200     34.386200     68.772399
     -3.248248     28.985194     28.985194     57.970389
     -3.238238     22.744985     22.744985     45.489971
     -3.228228     16.581710     16.581710     33.163420
     -3.218218     11.215020     11.215020     22.430040
     -3.208208      7.034208      7.034208     14.068416
     -3.198198      4.102498      4.102498      8.204997
     -3.188188      2.261913      2.261913      4.523827
     -3.178178      1.271829      1.271829      2.543658
     -3.168168      0.925730      0.925730      1.851459
     -3.158158      1.120813      1.120813      2.241626
     -3.148148      1.879390      1.879390      3.758781
     -3.138138      3.329297      3.329297      6.658594
     -3.128128      5.648513      5.648513     11.297025
     -3.118118      8.979279      8.979279     17.958558
     -3.108108     13.327276     13.327276     26.654552
     -3.098098     18.478840     18.478840     36.957680
     -3.088088     23.980109     23.980109     47.960217
     -3.078078     29.210334     29.210334     58.420668
     -3.068068     33.542119     33.542119     67.084238
     -3.058058     36.529739     36.529739     73.059478
     -3.048048     38.035785     38.035785     76.071571
     -3.038038     38.225891     38.225891     76.451782
     -3.028028     37.431439     37.431439     74.862878
     -3.018018     35.961716     35.961716     71.923433
     -3.008008     33.983113     33.983113     67.966227
     -2.997998     31.541933     31.541933     63.083866
     -2.987988     28.711987     28.711987     57.423973
     -2.977978     25.763078     25.763078     51.526155
     -2.967968     23.229540     23.229540     46.459079
     -2.957958     21.817217     21.817217     43.634434
     -2.947948     22.179364     22.179364     44.358728
     -2.937938     24.659963     24.659963     49.319926
     -2.927928     29.115927     29.115927     58.231854
     -2.917918     34.893072     34.893072     69.786145
     -2.907908     40.969882     40.969882     81.939765
     -2.897898     46.223055     46.223055     92.446109
     -2.887888     49.727431     49.727431     99.454862
     -2.877878     50.991535     50.991535    101.983071
     -2.867868     50.052769     50.052769    100.105537
     -2.857858     47.406260     47.406260     94.812519
     -2.847848     43.800377     43.800377     87.600753
     -2.837838     39.977812     39.977812     79.955625
     -2.827828     36.457156     36.457156     72.914311
     -2.817818     33.430140     33.430140     66.860280
     -2.807808     30.801196     30.801196     61.602392
     -2.797798     28.336587     28.336587     56.673174
     -2.787788     25.844966     25.844966     51.689931
     -2.777778     23.301360     23.301360     46.602720
     -2.767768     20.859433     20.859433     41.718866
     -2.757758     18.757837     18.757837     37.515673
     -2.747748     17.184055     17.184055     34.368111
     -2.737738     16.180690     16.180690     32.361380
     -2.727728     15.650584     15.650584     31.301169
     -2.717718     15.453777     15.453777     30.907553
     -2.707708     15.529144     15.529144     31.058289
     -2.697698     15.955451     15.955451     31.910902
     -2.687688     16.904180     16.904180     33.808360
     -2.677678     18.507987     18.507987     37.015974
     -2.667668     20.728051     20.728051     41.456103
     -2.657658     23.310625     23.310625     46.621250
     -2.647648     25.869855     25.869855     51.739710
     -2.637638     28.053047     28.053047     56.106095
     -2.627628     29.689733     29.689733     59.379465
     -2.617618     30.835959     30.835959     61.671917
     -2.607608     31.694702     31.694702     63.389405
     -2.597598     32.472741     32.472741     64.945482
     -2.587588     33.266299     33.266299     66.532597
     -2.577578     34.032052     34.032052     68.064104
     -2.567568     34.630840     34.630840     69.261680
     -2.557558     34.887851     34.887851     69.775701
     -2.547548     34.627174     34.627174     69.254348
     -2.537538     33.687983     33.687983     67.375967
     -2.527528     31.960767     31.960767     63.921533
     -2.517518     29.462458     29.462458     58.924916
     -2.507508     26.417586     26.417586     52.835172
     -2.497497     23.279215     23.279215     46.558430
     -2.487487     20.643181     20.643181     41.286362
     -2.477477     19.070976     19.070976     38.141952
     -2.467467     18.896485     18.896485     37.792970
     -2.457457     20.109355     20.109355     40.218711
     -2.447447     22.373705     22.373705     44.747410
     -2.437437     25.176097     25.176097     50.352194
     -2.427427     28.035050     28.035050     56.070100
     -2.417417     30.674688     30.674688     61.349375
     -2.407407     33.081074     33.081074     66.162149
     -2.397397     35.414993     35.414993     70.829986
     -2.387387     37.824791     37.824791     75.649581
     -2.377377     40.254506     40.254506     80.509012
     -2.367367     42.350009     42.350009     84.700017
     -2.357357     43.523545     43.523545     87.047090
     -2.347347     43.162458     43.162458     86.324916
     -2.337337     40.895383     40.895383     81.790767
     -2.327327     36.795689     36.795689     73.591378
     -2.317317     31.427368     31.427368     62.854737
     -2.307307     25.711842     25.711842     51.423684
     -2.297297     20.675174     20.675174     41.350347
     -2.287287     17.179920     17.179920     34.359839
     -2.277277     15.735258     15.735258     31.470517
     -2.267267     16.429971     16.429971     32.859942
     -2.257257     18.979882     18.979882     37.959765
     -2.247247     22.849301     22.849301     45.698602
     -2.237237     27.397531     27.397531     54.795062
     -2.227227     32.006842     32.006842     64.013684
     -2.217217     36.161182     36.161182     72.322365
     -2.207207     39.466072     39.466072     78.932143
     -2.197197     41.627834     41.627834     83.255669
     -2.187187     42.431949     42.431949     84.863898
     -2.177177     41.757954     41.757954     83.515908
     -2.167167     39.636155     39.636155     79.272310
     -2.157157     36.307189     36.307189     72.614378
     -2.147147     32.223256     32.223256     64.446512
     -2.137137     27.953421     27.953421     55.906842
     -2.127127     24.015463     24.015463     48.030926
     -2.117117     20.712452     20.712452     41.424903
     -2.107107     18.060744     18.060744     36.121488
     -2.097097     15.847315     15.847315     31.694630
     -2.087087     13.780327     13.780327     27.560653
     -2.077077     11.647687     11.647687     23.295374
     -2.067067      9.404296      9.404296     18.808592
     -2.057057      7.159760      7.159760     14.319520
     -2.047047      5.096069      5.096069     10.192139
     -2.037037      3.373214      3.373214      6.746428
     -2.027027      2.070278      2.070278      4.140557
     -2.017017      1.177227      1.177227      2.354455
     -2.007007      0.623526      0.623526      1.247051
     -1.996997      0.318767      0.318767      0.637535
     -1.986987      0.186410      0.186410      0.372819
     -1.976977      0.183992      0.183992      0.367985
     -1.966967      0.312153      0.312153      0.624306
     -1.956957      0.616494      0.616494      1.232988
     -1.946947      1.182790      1.182790      2.365579
     -1.936937      2.121746      2.121746      4.243492
     -1.926927      3.539142      3.539142      7.078283
     -1.916917      5.492989      5.492989     10.985978
     -1.906907      7.949271      7.949271     15.898542
     -1.896897     10.755418     10.755418     21.510835
     -1.886887     13.648864     13.648864     27.297729
     -1.876877     16.305132     16.305132     32.610263
     -1.866867     18.412569     18.412569     36.825139
     -1.856857     19.749653     19.749653     39.499306
     -1.846847     20.240756     20.240756     40.481513
     -1.836837     19.974025     19.974025     39.948050
     -1.826827     19.173851     19.173851     38.347701
     -1.816817     18.129834     18.129834     36.259668
     -1.806807     17.098302     17.098302     34.196604
     -1.796797     16.210269     16.210269     32.420539
     -1.786787     15.428490     15.428490     30.856980
     -1.776777     14.581057     14.581057     29.162115
     -1.766767     13.460935     13.460935     26.921869
     -1.756757     11.942447     11.942447     23.884893
     -1.746747     10.055385     10.055385     20.110771
     -1.736737      7.984190      7.984190     15.968381
     -1.726727      6.004879      6.004879     12.009759
     -1.716717      4.404163      4.404163      8.808325
     -1.706707      3.423858      3.423858      6.847716
     -1.696697      3.244818      3.244818      6.489636
     -1.686687      3.991396      3.991396      7.982792
     -1.676677      5.723036      5.723036     11.446071
     -1.666667      8.392831      8.392831     16.785663
     -1.656657     11.785349     11.785349     23.570698
     -1.646647     15.476980     15.476980     30.953959
     -1.636637     18.869045     18.869045     37.738090
     -1.626627     21.315703     21.315703     42.631406
