# EIG2DOS: Utility for SIESTA to obtain the electronic density of states
#  E. Artacho, Apr 1999, A. Garcia, Apr 2012
#  Nick R. Papior, Feb 2017
# ------------------------------------------
# Eigenvalues calculated from a non-polarized calculation
# Eigenvalues read from siesta.EIG
# Kpoint weights read from siesta.KP
# Using smearing parameter:   0.0500
# Using 1000 points in the energy range
# Selected bands: 1 to: 2981
# Emin, Emax in file for selected band(s):    -27.2928084    218.3882230
# Nbands, Nspin, Nk   =   2981     1     1
# E_F                 =    -4.2118 eV --> (shifted to ZERO)
# Broadening          =     0.0500 eV
#
#        E            N(up)  (=)   N(down)         Ntot
     -5.000000     31.117056     31.117056     62.234111
     -4.989990     35.913106     35.913106     71.826211
     -4.979980     40.533854     40.533854     81.067708
     -4.969970     44.225023     44.225023     88.450045
     -4.959960     46.303263     46.303263     92.606526
     -4.949950     46.380539     46.380539     92.761079
     -4.939940     44.501067     44.501067     89.002134
     -4.929930     41.145794     41.145794     82.291589
     -4.919920     37.121628     37.121628     74.243255
     -4.909910     33.390520     33.390520     66.781040
     -4.899900     30.888407     30.888407     61.776813
     -4.889890     30.353184     30.353184     60.706369
     -4.879880     32.162512     32.162512     64.325024
     -4.869870     36.198829     36.198829     72.397659
     -4.859860     41.794508     41.794508     83.589016
     -4.849850     47.821916     47.821916     95.643833
     -4.839840     52.951146     52.951146    105.902292
     -4.829830     56.015218     56.015218    112.030436
     -4.819820     56.350502     56.350502    112.701005
     -4.809810     53.971991     53.971991    107.943982
     -4.799800     49.512844     49.512844     99.025688
     -4.789790     43.967452     43.967452     87.934905
     -4.779780     38.362507     38.362507     76.725014
     -4.769770     33.494124     33.494124     66.988248
     -4.759760     29.811649     29.811649     59.623297
     -4.749750     27.443438     27.443438     54.886876
     -4.739740     26.298221     26.298221     52.596443
     -4.729730     26.164062     26.164062     52.328123
     -4.719720     26.758325     26.758325     53.516650
     -4.709710     27.730429     27.730429     55.460859
     -4.699700     28.657719     28.657719     57.315438
     -4.689690     29.084748     29.084748     58.169497
     -4.679680     28.630900     28.630900     57.261800
     -4.669670     27.141961     27.141961     54.283922
     -4.659660     24.817328     24.817328     49.634657
     -4.649650     22.237010     22.237010     44.474019
     -4.639640     20.250110     20.250110     40.500220
     -4.629630     19.746824     19.746824     39.493647
     -4.619620     21.384564     21.384564     42.769128
     -4.609610     25.355780     25.355780     50.711559
     -4.599600     31.273144     31.273144     62.546288
     -4.589590     38.218615     38.218615     76.437230
     -4.579580     44.960955     44.960955     89.921911
     -4.569570     50.292949     50.292949    100.585898
     -4.559560     53.386991     53.386991    106.773983
     -4.549550     54.042538     54.042538    108.085076
     -4.539540     52.725026     52.725026    105.450051
     -4.529530     50.372213     50.372213    100.744427
     -4.519520     48.038868     48.038868     96.077735
     -4.509510     46.518891     46.518891     93.037783
     -4.499499     46.091859     46.091859     92.183718
     -4.489489     46.484442     46.484442     92.968883
     -4.479479     47.043264     47.043264     94.086528
     -4.469469     47.028577     47.028577     94.057155
     -4.459459     45.897645     45.897645     91.795289
     -4.449449     43.468802     43.468802     86.937603
     -4.439439     39.925933     39.925933     79.851866
     -4.429429     35.700360     35.700360     71.400719
     -4.419419     31.312919     31.312919     62.625838
     -4.409409     27.253159     27.253159     54.506318
     -4.399399     23.925546     23.925546     47.851093
     -4.389389     21.639401     21.639401     43.278801
     -4.379379     20.596757     20.596757     41.193514
     -4.369369     20.853536     20.853536     41.707073
     -4.359359     22.273518     22.273518     44.547036
     -4.349349     24.523288     24.523288     49.046576
     -4.339339     27.144113     27.144113     54.288225
     -4.329329     29.691078     29.691078     59.382156
     -4.319319     31.883700     31.883700     63.767400
     -4.309309     33.697204     33.697204     67.394408
     -4.299299     35.347422     35.347422     70.694844
     -4.289289     37.168032     37.168032     74.336063
     -4.279279     39.422972     39.422972     78.845944
     -4.269269     42.124663     42.124663     84.249326
     -4.259259     44.935216     44.935216     89.870432
     -4.249249     47.209233     47.209233     94.418467
     -4.239239     48.188894     48.188894     96.377788
     -4.229229     47.292821     47.292821     94.585642
     -4.219219     44.380284     44.380284     88.760567
     -4.209209     39.862990     39.862990     79.725979
     -4.199199     34.598019     34.598019     69.196038
     -4.189189     29.601565     29.601565     59.203130
     -4.179179     25.713138     25.713138     51.426275
     -4.169169     23.359671     23.359671     46.719342
     -4.159159     22.509832     22.509832     45.019664
     -4.149149     22.810669     22.810669     45.621337
     -4.139139     23.817897     23.817897     47.635793
     -4.129129     25.203338     25.203338     50.406676
     -4.119119     26.849239     26.849239     53.698477
     -4.109109     28.798157     28.798157     57.596314
     -4.099099     31.093897     31.093897     62.187795
     -4.089089     33.601969     33.601969     67.203939
     -4.079079     35.916313     35.916313     71.832625
     -4.069069     37.425852     37.425852     74.851705
     -4.059059     37.534082     37.534082     75.068165
     -4.049049     35.934602     35.934602     71.869203
     -4.039039     32.801176     32.801176     65.602352
     -4.029029     28.787411     28.787411     57.574823
     -4.019019     24.830986     24.830986     49.661971
     -4.009009     21.858604     21.858604     43.717207
     -3.998999     20.528428     20.528428     41.056856
     -3.988989     21.108448     21.108448     42.216896
     -3.978979     23.505745     23.505745     47.011490
     -3.968969     27.389273     27.389273     54.778546
     -3.958959     32.326635     32.326635     64.653270
     -3.948949     37.883171     37.883171     75.766341
     -3.938939     43.676980     43.676980     87.353959
     -3.928929     49.409320     49.409320     98.818640
     -3.918919     54.882167     54.882167    109.764335
     -3.908909     59.991147     59.991147    119.982294
     -3.898899     64.673432     64.673432    129.346864
     -3.888889     68.812365     68.812365    137.624730
     -3.878879     72.139311     72.139311    144.278621
     -3.868869     74.196497     74.196497    148.392993
     -3.858859     74.408886     74.408886    148.817772
     -3.848849     72.261998     72.261998    144.523997
     -3.838839     67.523833     67.523833    135.047666
     -3.828829     60.416139     60.416139    120.832278
     -3.818819     51.652602     51.652602    103.305205
     -3.808809     42.314173     42.314173     84.628346
     -3.798799     33.598670     33.598670     67.197341
     -3.788789     26.530582     26.530582     53.061164
     -3.778779     21.726681     21.726681     43.453363
     -3.768769     19.284863     19.284863     38.569725
     -3.758759     18.816345     18.816345     37.632691
     -3.748749     19.597840     19.597840     39.195680
     -3.738739     20.793618     20.793618     41.587236
     -3.728729     21.688750     21.688750     43.377500
     -3.718719     21.878474     21.878474     43.756949
     -3.708709     21.369671     21.369671     42.739343
     -3.698699     20.567197     20.567197     41.134393
     -3.688689     20.141308     20.141308     40.282616
     -3.678679     20.802659     20.802659     41.605318
     -3.668669     23.043983     23.043983     46.087966
     -3.658659     26.931211     26.931211     53.862422
     -3.648649     32.025087     32.025087     64.050173
     -3.638639     37.476040     37.476040     74.952081
     -3.628629     42.267275     42.267275     84.534549
     -3.618619     45.514284     45.514284     91.028567
     -3.608609     46.702914     46.702914     93.405828
     -3.598599     45.782019     45.782019     91.564038
     -3.588589     43.100856     43.100856     86.201712
     -3.578579     39.248032     39.248032     78.496064
     -3.568569     34.870147     34.870147     69.740294
     -3.558559     30.524828     30.524828     61.049656
     -3.548549     26.587119     26.587119     53.174239
     -3.538539     23.210127     23.210127     46.420253
     -3.528529     20.341605     20.341605     40.683211
     -3.518519     17.796931     17.796931     35.593862
     -3.508509     15.371466     15.371466     30.742931
     -3.498498     12.951910     12.951910     25.903820
     -3.488488     10.580090     10.580090     21.160179
     -3.478478      8.444385      8.444385     16.888770
     -3.468468      6.809819      6.809819     13.619637
     -3.458458      5.923000      5.923000     11.846001
     -3.448448      5.929923      5.929923     11.859845
     -3.438438      6.830305      6.830305     13.660609
     -3.428428      8.477131      8.477131     16.954262
     -3.418418     10.620671     10.620671     21.241342
     -3.408408     12.987008     12.987008     25.974017
     -3.398398     15.366771     15.366771     30.733541
     -3.388388     17.677513     17.677513     35.355026
     -3.378378     19.968592     19.968592     39.937184
     -3.368368     22.366133     22.366133     44.732266
     -3.358358     24.991210     24.991210     49.982420
     -3.348348     27.897629     27.897629     55.795259
     -3.338338     31.052504     31.052504     62.105009
     -3.328328     34.341929     34.341929     68.683858
     -3.318318     37.564640     37.564640     75.129280
     -3.308308     40.401590     40.401590     80.803179
     -3.298298     42.399026     42.399026     84.798051
     -3.288288     43.026824     43.026824     86.053648
     -3.278278     41.837725     41.837725     83.675450
     -3.268268     38.675043     38.675043     77.350085
     -3.258258     33.818178     33.818178     67.636356
     -3.248248     27.969558     27.969558     55.939117
     -3.238238     22.069196     22.069196     44.138392
     -3.228228     17.015836     17.015836     34.031672
     -3.218218     13.414802     13.414802     26.829603
     -3.208208     11.445425     11.445425     22.890851
     -3.198198     10.877089     10.877089     21.754179
     -3.188188     11.206211     11.206211     22.412423
     -3.178178     11.857796     11.857796     23.715592
     -3.168168     12.388712     12.388712     24.777425
     -3.158158     12.634156     12.634156     25.268312
     -3.148148     12.752229     12.752229     25.504458
     -3.138138     13.148906     13.148906     26.297813
     -3.128128     14.304631     14.304631     28.609261
     -3.118118     16.561005     16.561005     33.122010
     -3.108108     19.945104     19.945104     39.890209
     -3.098098     24.100281     24.100281     48.200562
     -3.088088     28.357053     28.357053     56.714106
     -3.078078     31.925597     31.925597     63.851194
     -3.068068     34.140148     34.140148     68.280296
     -3.058058     34.658121     34.658121     69.316242
     -3.048048     33.532100     33.532100     67.064201
     -3.038038     31.130975     31.130975     62.261950
     -3.028028     27.960509     27.960509     55.921018
     -3.018018     24.480946     24.480946     48.961893
     -3.008008     21.010203     21.010203     42.020407
     -2.997998     17.742223     17.742223     35.484446
     -2.987988     14.840827     14.840827     29.681654
     -2.977978     12.533348     12.533348     25.066695
     -2.967968     11.141345     11.141345     22.282690
     -2.957958     11.029323     11.029323     22.058646
     -2.947948     12.494421     12.494421     24.988842
     -2.937938     15.641126     15.641126     31.282253
     -2.927928     20.286349     20.286349     40.572698
     -2.917918     25.931784     25.931784     51.863568
     -2.907908     31.826139     31.826139     63.652278
     -2.897898     37.116099     37.116099     74.232198
     -2.887888     41.051586     41.051586     82.103172
     -2.877878     43.179800     43.179800     86.359600
     -2.867868     43.453366     43.453366     86.906732
     -2.857858     42.203711     42.203711     84.407421
     -2.847848     39.985761     39.985761     79.971521
     -2.837838     37.358922     37.358922     74.717844
     -2.827828     34.700439     34.700439     69.400877
     -2.817818     32.131256     32.131256     64.262511
     -2.807808     29.577134     29.577134     59.154267
     -2.797798     26.918689     26.918689     53.837379
     -2.787788     24.140827     24.140827     48.281654
     -2.777778     21.398565     21.398565     42.797129
     -2.767768     18.968406     18.968406     37.936812
     -2.757758     17.121994     17.121994     34.243987
     -2.747748     16.002774     16.002774     32.005549
     -2.737738     15.581008     15.581008     31.162015
     -2.727728     15.710701     15.710701     31.421403
     -2.717718     16.245268     16.245268     32.490536
     -2.707708     17.129515     17.129515     34.259029
     -2.697698     18.401559     18.401559     36.803118
     -2.687688     20.101841     20.101841     40.203681
     -2.677678     22.156018     22.156018     44.312035
     -2.667668     24.324328     24.324328     48.648655
     -2.657658     26.269440     26.269440     52.538879
     -2.647648     27.712433     27.712433     55.424866
     -2.637638     28.580107     28.580107     57.160214
     -2.627628     29.046050     29.046050     58.092099
     -2.617618     29.435698     29.435698     58.871396
     -2.607608     30.053497     30.053497     60.106994
     -2.597598     31.034719     31.034719     62.069439
     -2.587588     32.296519     32.296519     64.593038
     -2.577578     33.589885     33.589885     67.179770
     -2.567568     34.595727     34.595727     69.191453
     -2.557558     35.005267     35.005267     70.010535
     -2.547548     34.567753     34.567753     69.135506
     -2.537538     33.130161     33.130161     66.260323
     -2.527528     30.694612     30.694612     61.389225
     -2.517518     27.482109     27.482109     54.964218
     -2.507508     23.954914     23.954914     47.909829
     -2.497497     20.751618     20.751618     41.503236
     -2.487487     18.531857     18.531857     37.063714
     -2.477477     17.781615     17.781615     35.563231
     -2.467467     18.659053     18.659053     37.318107
     -2.457457     20.948853     20.948853     41.897707
     -2.447447     24.148398     24.148398     48.296795
     -2.437437     27.653228     27.653228     55.306456
     -2.427427     30.965447     30.965447     61.930895
     -2.417417     33.835734     33.835734     67.671468
     -2.407407     36.276209     36.276209     72.552419
     -2.397397     38.439778     38.439778     76.879556
     -2.387387     40.426853     40.426853     80.853705
     -2.377377     42.120539     42.120539     84.241077
     -2.367367     43.143469     43.143469     86.286938
     -2.357357     42.972987     42.972987     85.945975
     -2.347347     41.171054     41.171054     82.342107
     -2.337337     37.622055     37.622055     75.244110
     -2.327327     32.662043     32.662043     65.324086
     -2.317317     27.035235     27.035235     54.070470
     -2.307307     21.698677     21.698677     43.397354
     -2.297297     17.563885     17.563885     35.127770
     -2.287287     15.278744     15.278744     30.557487
     -2.277277     15.115242     15.115242     30.230483
     -2.267267     16.971232     16.971232     33.942464
     -2.257257     20.452373     20.452373     40.904745
     -2.247247     24.987890     24.987890     49.975781
     -2.237237     29.942842     29.942842     59.885683
     -2.227227     34.705433     34.705433     69.410865
     -2.217217     38.742332     38.742332     77.484664
     -2.207207     41.627073     41.627073     83.254145
     -2.197197     43.056433     43.056433     86.112866
     -2.187187     42.872476     42.872476     85.744951
     -2.177177     41.097463     41.097463     82.194925
     -2.167167     37.966352     37.966352     75.932704
     -2.157157     33.921533     33.921533     67.843066
     -2.147147     29.537596     29.537596     59.075193
     -2.137137     25.378777     25.378777     50.757555
     -2.127127     21.840296     21.840296     43.680591
     -2.117117     19.051017     19.051017     38.102034
     -2.107107     16.892417     16.892417     33.784835
     -2.097097     15.126156     15.126156     30.252311
     -2.087087     13.559744     13.559744     27.119487
     -2.077077     12.158848     12.158848     24.317697
     -2.067067     11.048575     11.048575     22.097151
     -2.057057     10.411205     10.411205     20.822411
     -2.047047     10.343937     10.343937     20.687873
     -2.037037     10.757447     10.757447     21.514894
     -2.027027     11.369961     11.369961     22.739922
     -2.017017     11.799898     11.799898     23.599795
     -2.007007     11.710738     11.710738     23.421476
     -1.996997     10.938598     10.938598     21.877197
     -1.986987      9.546439      9.546439     19.092878
     -1.976977      7.789739      7.789739     15.579478
     -1.966967      6.022549      6.022549     12.045098
     -1.956957      4.594785      4.594785      9.189570
     -1.946947      3.781759      3.781759      7.563518
     -1.936937      3.756769      3.756769      7.513539
     -1.926927      4.590291      4.590291      9.180582
     -1.916917      6.252103      6.252103     12.504205
     -1.906907      8.606037      8.606037     17.212074
     -1.896897     11.406652     11.406652     22.813304
     -1.886887     14.316535     14.316535     28.633071
     -1.876877     16.955589     16.955589     33.911179
     -1.866867     18.976213     18.976213     37.952427
     -1.856857     20.143325     20.143325     40.286650
     -1.846847     20.393417     20.393417     40.786833
     -1.836837     19.851362     19.851362     39.702725
     -1.826827     18.793406     18.793406     37.586811
     -1.816817     17.559149     17.559149     35.118298
     -1.806807     16.435400     16.435400     32.870801
     -1.796797     15.554526     15.554526     31.109052
     -1.786787     14.854603     14.854603     29.709206
     -1.776777     14.126123     14.126123     28.252245
     -1.766767     13.126662     13.126662     26.253324
     -1.756757     11.706773     11.706773     23.413545
     -1.746747      9.884449      9.884449     19.768899
     -1.736737      7.837281      7.837281     15.674563
     -1.726727      5.828959      5.828959     11.657918
     -1.716717      4.118381      4.118381      8.236762
     -1.706707      2.897566      2.897566      5.795132
     -1.696697      2.276002      2.276002      4.552005
     -1.686687      2.296746      2.296746      4.593493
     -1.676677      2.953910      2.953910      5.907819
     -1.666667      4.188844      4.188844      8.377689
     -1.656657      5.865529      5.865529     11.731057
     -1.646647      7.748973      7.748973     15.497946
     -1.636637      9.518711      9.518711     19.037422
     -1.626627     10.835303     10.835303     21.670607
