# EIG2DOS: Utility for SIESTA to obtain the electronic density of states
#  E. Artacho, Apr 1999, A. Garcia, Apr 2012
#  Nick R. Papior, Feb 2017
# ------------------------------------------
# Eigenvalues calculated from a non-polarized calculation
# Eigenvalues read from siesta.EIG
# Kpoint weights read from siesta.KP
# Using smearing parameter:   0.0500
# Using 1000 points in the energy range
# Selected bands: 1 to: 2981
# Emin, Emax in file for selected band(s):    -27.0607521    218.3336630
# Nbands, Nspin, Nk   =   2981     1     1
# E_F                 =    -4.2738 eV --> (shifted to ZERO)
# Broadening          =     0.0500 eV
#
#        E            N(up)  (=)   N(down)         Ntot
     -5.000000     35.615883     35.615883     71.231765
     -4.989990     38.505871     38.505871     77.011742
     -4.979980     41.115624     41.115624     82.231248
     -4.969970     42.928820     42.928820     85.857640
     -4.959960     43.547824     43.547824     87.095647
     -4.949950     42.804679     42.804679     85.609359
     -4.939940     40.809244     40.809244     81.618489
     -4.929930     37.933778     37.933778     75.867556
     -4.919920     34.755466     34.755466     69.510932
     -4.909910     31.979685     31.979685     63.959371
     -4.899900     30.347896     30.347896     60.695791
     -4.889890     30.513292     30.513292     61.026584
     -4.879880     32.871185     32.871185     65.742369
     -4.869870     37.371161     37.371161     74.742322
     -4.859860     43.392398     43.392398     86.784796
     -4.849850     49.784205     49.784205     99.568410
     -4.839840     55.123481     55.123481    110.246962
     -4.829830     58.130886     58.130886    116.261772
     -4.819820     58.082910     58.082910    116.165821
     -4.809810     55.033634     55.033634    110.067268
     -4.799800     49.745501     49.745501     99.491002
     -4.789790     43.374746     43.374746     86.749493
     -4.779780     37.071937     37.071937     74.143874
     -4.769770     31.673279     31.673279     63.346558
     -4.759760     27.578212     27.578212     55.156424
     -4.749750     24.799173     24.799173     49.598345
     -4.739740     23.100519     23.100519     46.201037
     -4.729730     22.140526     22.140526     44.281053
     -4.719720     21.569301     21.569301     43.138602
     -4.709710     21.077791     21.077791     42.155582
     -4.699700     20.417302     20.417302     40.834604
     -4.689690     19.414199     19.414199     38.828398
     -4.679680     17.996929     17.996929     35.993859
     -4.669670     16.236681     16.236681     32.473362
     -4.659660     14.384746     14.384746     28.769491
     -4.649650     12.878770     12.878770     25.757541
     -4.639640     12.293668     12.293668     24.587335
     -4.629630     13.229170     13.229170     26.458341
     -4.619620     16.147198     16.147198     32.294397
     -4.609610     21.193382     21.193382     42.386763
     -4.599600     28.056813     28.056813     56.113626
     -4.589590     35.933699     35.933699     71.867399
     -4.579580     43.648128     43.648128     87.296255
     -4.569570     49.933988     49.933988     99.867976
     -4.559560     53.806727     53.806727    107.613454
     -4.549550     54.890730     54.890730    109.781461
     -4.539540     53.561888     53.561888    107.123775
     -4.529530     50.831140     50.831140    101.662280
     -4.519520     48.004357     48.004357     96.008714
     -4.509510     46.249407     46.249407     92.498814
     -4.499499     46.233838     46.233838     92.467676
     -4.489489     47.955001     47.955001     95.910002
     -4.479479     50.797585     50.797585    101.595170
     -4.469469     53.768136     53.768136    107.536272
     -4.459459     55.807918     55.807918    111.615837
     -4.449449     56.083037     56.083037    112.166075
     -4.439439     54.180018     54.180018    108.360036
     -4.429429     50.175483     50.175483    100.350966
     -4.419419     44.585525     44.585525     89.171049
     -4.409409     38.226448     38.226448     76.452897
     -4.399399     32.030206     32.030206     64.060412
     -4.389389     26.855624     26.855624     53.711248
     -4.379379     23.327156     23.327156     46.654312
     -4.369369     21.725491     21.725491     43.450982
     -4.359359     21.951436     21.951436     43.902872
     -4.349349     23.578297     23.578297     47.156594
     -4.339339     25.988759     25.988759     51.977518
     -4.329329     28.561849     28.561849     57.123698
     -4.319319     30.850277     30.850277     61.700554
     -4.309309     32.687035     32.687035     65.374069
     -4.299299     34.186825     34.186825     68.373650
     -4.289289     35.647883     35.647883     71.295766
     -4.279279     37.391978     37.391978     74.783957
     -4.269269     39.594617     39.594617     79.189233
     -4.259259     42.158471     42.158471     84.316942
     -4.249249     44.677773     44.677773     89.355545
     -4.239239     46.525326     46.525326     93.050652
     -4.229229     47.055659     47.055659     94.111318
     -4.219219     45.860438     45.860438     91.720876
     -4.209209     42.965842     42.965842     85.931684
     -4.199199     38.867210     38.867210     77.734421
     -4.189189     34.368136     34.368136     68.736273
     -4.179179     30.293801     30.293801     60.587602
     -4.169169     27.216623     27.216623     54.433246
     -4.159159     25.321073     25.321073     50.642146
     -4.149149     24.453465     24.453465     48.906930
     -4.139139     24.305633     24.305633     48.611266
     -4.129129     24.623606     24.623606     49.247213
     -4.119119     25.334800     25.334800     50.669601
     -4.109109     26.536292     26.536292     53.072585
     -4.099099     28.355447     28.355447     56.710894
     -4.089089     30.757570     30.757570     61.515140
     -4.079079     33.410282     33.410282     66.820565
     -4.069069     35.699133     35.699133     71.398266
     -4.059059     36.917775     36.917775     73.835550
     -4.049049     36.557265     36.557265     73.114530
     -4.039039     34.550695     34.550695     69.101390
     -4.029029     31.341698     31.341698     62.683396
     -4.019019     27.738607     27.738607     55.477214
     -4.009009     24.633023     24.633023     49.266046
     -3.998999     22.726849     22.726849     45.453697
     -3.988989     22.387128     22.387128     44.774257
     -3.978979     23.658179     23.658179     47.316359
     -3.968969     26.371290     26.371290     52.742581
     -3.958959     30.260414     30.260414     60.520828
     -3.948949     35.026716     35.026716     70.053431
     -3.938939     40.356527     40.356527     80.713054
     -3.928929     45.934001     45.934001     91.868003
     -3.918919     51.477046     51.477046    102.954093
     -3.908909     56.782019     56.782019    113.564037
     -3.898899     61.732055     61.732055    123.464110
     -3.888889     66.235974     66.235974    132.471948
     -3.878879     70.113790     70.113790    140.227581
     -3.868869     72.995779     72.995779    145.991557
     -3.858859     74.316318     74.316318    148.632636
     -3.848849     73.445639     73.445639    146.891278
     -3.838839     69.928867     69.928867    139.857734
     -3.828829     63.733121     63.733121    127.466241
     -3.818819     55.381851     55.381851    110.763702
     -3.808809     45.898326     45.898326     91.796651
     -3.798799     36.566299     36.566299     73.132599
     -3.788789     28.597713     28.597713     57.195426
     -3.778779     22.831176     22.831176     45.662351
     -3.768769     19.559619     19.559619     39.119238
     -3.758759     18.524493     18.524493     37.048985
     -3.748749     19.054039     19.054039     38.108079
     -3.738739     20.288478     20.288478     40.576955
     -3.728729     21.427068     21.427068     42.854136
     -3.718719     21.939522     21.939522     43.879045
     -3.708709     21.696586     21.696586     43.393172
     -3.698699     20.989291     20.989291     41.978582
     -3.688689     20.426533     20.426533     40.853066
     -3.678679     20.728967     20.728967     41.457933
     -3.668669     22.470887     22.470887     44.941774
     -3.658659     25.849915     25.849915     51.699830
     -3.648649     30.569967     30.569967     61.139933
     -3.638639     35.892410     35.892410     71.784821
     -3.628629     40.846338     40.846338     81.692676
     -3.618619     44.518420     44.518420     89.036839
     -3.608609     46.306230     46.306230     92.612459
     -3.598599     46.041665     46.041665     92.083331
     -3.588589     43.960479     43.960479     87.920957
     -3.578579     40.564547     40.564547     81.129093
     -3.568569     36.452589     36.452589     72.905178
     -3.558559     32.176313     32.176313     64.352627
     -3.548549     28.142713     28.142713     56.285425
     -3.538539     24.563161     24.563161     49.126322
     -3.528529     21.451790     21.451790     42.903580
     -3.518519     18.678579     18.678579     37.357159
     -3.508509     16.068004     16.068004     32.136009
     -3.498498     13.508433     13.508433     27.016866
     -3.488488     11.024895     11.024895     22.049790
     -3.478478      8.783769      8.783769     17.567538
     -3.468468      7.032484      7.032484     14.064968
     -3.458458      6.005847      6.005847     12.011694
     -3.448448      5.837027      5.837027     11.674054
     -3.438438      6.500140      6.500140     13.000280
     -3.428428      7.798004      7.798004     15.596009
     -3.418418      9.400927      9.400927     18.801855
     -3.408408     10.934744     10.934744     21.869489
     -3.398398     12.100298     12.100298     24.200595
     -3.388388     12.785587     12.785587     25.571175
     -3.378378     13.122377     13.122377     26.244753
     -3.368368     13.455720     13.455720     26.911439
     -3.358358     14.233471     14.233471     28.466942
     -3.348348     15.859640     15.859640     31.719279
     -3.338338     18.565497     18.565497     37.130995
     -3.328328     22.331475     22.331475     44.662950
     -3.318318     26.862374     26.862374     53.724748
     -3.308308     31.605906     31.605906     63.211813
     -3.298298     35.816845     35.816845     71.633691
     -3.288288     38.683260     38.683260     77.366521
     -3.278278     39.516871     39.516871     79.033743
     -3.268268     37.963080     37.963080     75.926161
     -3.258258     34.143180     34.143180     68.286360
     -3.248248     28.647363     28.647363     57.294726
     -3.238238     22.363196     22.363196     44.726391
     -3.228228     16.210030     16.210030     32.420061
     -3.218218     10.895890     10.895890     21.791781
     -3.208208      6.790530      6.790530     13.581060
     -3.198198      3.938950      3.938950      7.877900
     -3.188188      2.173421      2.173421      4.346841
     -3.178178      1.255377      1.255377      2.510754
     -3.168168      0.992640      0.992640      1.985279
     -3.158158      1.308516      1.308516      2.617031
     -3.148148      2.262779      2.262779      4.525559
     -3.138138      4.031129      4.031129      8.062259
     -3.128128      6.846223      6.846223     13.692445
     -3.118118     10.902641     10.902641     21.805282
     -3.108108     16.238634     16.238634     32.477268
     -3.098098     22.627038     22.627038     45.254075
     -3.088088     29.523857     29.523857     59.047714
     -3.078078     36.119239     36.119239     72.238479
     -3.068068     41.502940     41.502940     83.005880
     -3.058058     44.903490     44.903490     89.806981
     -3.048048     45.914083     45.914083     91.828166
     -3.038038     44.610255     44.610255     89.220510
     -3.028028     41.507674     41.507674     83.015347
     -3.018018     37.382545     37.382545     74.765089
     -3.008008     33.038622     33.038622     66.077243
     -2.997998     29.117546     29.117546     58.235093
     -2.987988     26.011892     26.011892     52.023785
     -2.977978     23.883699     23.883699     47.767399
     -2.967968     22.749907     22.749907     45.499814
     -2.957958     22.582390     22.582390     45.164780
     -2.947948     23.375764     23.375764     46.751529
     -2.937938     25.151567     25.151567     50.303134
     -2.927928     27.893414     27.893414     55.786827
     -2.917918     31.444429     31.444429     62.888858
     -2.907908     35.430241     35.430241     70.860482
     -2.897898     39.272506     39.272506     78.545011
     -2.887888     42.316597     42.316597     84.633194
     -2.877878     44.031245     44.031245     88.062489
     -2.867868     44.188209     44.188209     88.376418
     -2.857858     42.930742     42.930742     85.861485
     -2.847848     40.693101     40.693101     81.386202
     -2.837838     38.009316     38.009316     76.018632
     -2.827828     35.304726     35.304726     70.609453
     -2.817818     32.768702     32.768702     65.537403
     -2.807808     30.360773     30.360773     60.721547
     -2.797798     27.931334     27.931334     55.862667
     -2.787788     25.380418     25.380418     50.760835
     -2.777778     22.763825     22.763825     45.527649
     -2.767768     20.291275     20.291275     40.582551
     -2.757758     18.225998     18.225998     36.451997
     -2.747748     16.752456     16.752456     33.504912
     -2.737738     15.895780     15.895780     31.791561
     -2.727728     15.542327     15.542327     31.084655
     -2.717718     15.545353     15.545353     31.090705
     -2.707708     15.843315     15.843315     31.686629
     -2.697698     16.507824     16.507824     33.015648
     -2.687688     17.683119     17.683119     35.366239
     -2.677678     19.452330     19.452330     38.904659
     -2.667668     21.719642     21.719642     43.439283
     -2.657658     24.193613     24.193613     48.387227
     -2.647648     26.494085     26.494085     52.988170
     -2.637638     28.323237     28.323237     56.646474
     -2.627628     29.596384     29.596384     59.192767
     -2.617618     30.453072     30.453072     60.906144
     -2.607608     31.147697     31.147697     62.295395
     -2.597598     31.894765     31.894765     63.789531
     -2.587588     32.762706     32.762706     65.525411
     -2.577578     33.662479     33.662479     67.324959
     -2.567568     34.406313     34.406313     68.812626
     -2.557558     34.776063     34.776063     69.552126
     -2.547548     34.563007     34.563007     69.126014
     -2.537538     33.590988     33.590988     67.181976
     -2.527528     31.759981     31.759981     63.519962
     -2.517518     29.122358     29.122358     58.244716
     -2.507508     25.954116     25.954116     51.908231
     -2.497497     22.757446     22.757446     45.514892
     -2.487487     20.157176     20.157176     40.314353
     -2.477477     18.715350     18.715350     37.430701
     -2.467467     18.741994     18.741994     37.483989
     -2.457457     20.190834     20.190834     40.381668
     -2.447447     22.691485     22.691485     45.382969
     -2.437437     25.706153     25.706153     51.412306
     -2.427427     28.740640     28.740640     57.481279
     -2.417417     31.513125     31.513125     63.026251
     -2.407407     34.002595     34.002595     68.005190
     -2.397397     36.355356     36.355356     72.710712
     -2.387387     38.697811     38.697811     77.395623
     -2.377377     40.952781     40.952781     81.905563
     -2.367367     42.759770     42.759770     85.519541
     -2.357357     43.552813     43.552813     87.105625
     -2.347347     42.773352     42.773352     85.546704
     -2.337337     40.126404     40.126404     80.252807
     -2.327327     35.761879     35.761879     71.523757
     -2.317317     30.295544     30.295544     60.591087
     -2.307307     24.659574     24.659574     49.319148
     -2.297297     19.849333     19.849333     39.698665
     -2.287287     16.669395     16.669395     33.338791
     -2.277277     15.564574     15.564574     31.129147
     -2.267267     16.571062     16.571062     33.142123
     -2.257257     19.373104     19.373104     38.746209
     -2.247247     23.423453     23.423453     46.846906
     -2.237237     28.081520     28.081520     56.163039
     -2.227227     32.730962     32.730962     65.461923
     -2.217217     36.851909     36.851909     73.703818
     -2.207207     40.042364     40.042364     80.084728
     -2.197197     42.006594     42.006594     84.013188
     -2.187187     42.544851     42.544851     85.089702
     -2.177177     41.573881     41.573881     83.147762
     -2.167167     39.177811     39.177811     78.355622
     -2.157157     35.651118     35.651118     71.302236
     -2.147147     31.479811     31.479811     62.959621
     -2.137137     27.233408     27.233408     54.466816
     -2.127127     23.397484     23.397484     46.794968
     -2.117117     20.224992     20.224992     40.449985
     -2.107107     17.685647     17.685647     35.371295
     -2.097097     15.540557     15.540557     31.081114
     -2.087087     13.498184     13.498184     26.996368
     -2.077077     11.365629     11.365629     22.731258
     -2.067067      9.121885      9.121885     18.243770
     -2.057057      6.893157      6.893157     13.786313
     -2.047047      4.865306      4.865306      9.730611
     -2.037037      3.191758      3.191758      6.383516
     -2.027027      1.940830      1.940830      3.881661
     -2.017017      1.093309      1.093309      2.186618
     -2.007007      0.573915      0.573915      1.147830
     -1.996997      0.291787      0.291787      0.583573
     -1.986987      0.172462      0.172462      0.344924
     -1.976977      0.176253      0.176253      0.352507
     -1.966967      0.306140      0.306140      0.612281
     -1.956957      0.609389      0.609389      1.218779
     -1.946947      1.173155      1.173155      2.346309
     -1.936937      2.109923      2.109923      4.219846
     -1.926927      3.528206      3.528206      7.056412
     -1.916917      5.489637      5.489637     10.979274
     -1.906907      7.963614      7.963614     15.927227
     -1.896897     10.798681     10.798681     21.597363
     -1.886887     13.728787     13.728787     27.457573
     -1.876877     16.420312     16.420312     32.840624
     -1.866867     18.548439     18.548439     37.096878
     -1.856857     19.878945     19.878945     39.757891
     -1.846847     20.329792     20.329792     40.659583
     -1.836837     19.993317     19.993317     39.986634
     -1.826827     19.109201     19.109201     38.218401
     -1.816817     17.989830     17.989830     35.979659
     -1.806807     16.916437     16.916437     33.832875
     -1.796797     16.043569     16.043569     32.087138
     -1.786787     15.357536     15.357536     30.715072
     -1.776777     14.716773     14.716773     29.433546
     -1.766767     13.960145     13.960145     27.920289
     -1.756757     13.026934     13.026934     26.053867
     -1.746747     12.019754     12.019754     24.039507
     -1.736737     11.171228     11.171228     22.342456
     -1.726727     10.730398     10.730398     21.460796
     -1.716717     10.831583     10.831583     21.663165
     -1.706707     11.418927     11.418927     22.837854
     -1.696697     12.268740     12.268740     24.537479
     -1.686687     13.096914     13.096914     26.193829
     -1.676677     13.690713     13.690713     27.381426
     -1.666667     13.990313     13.990313     27.980625
     -1.656657     14.075423     14.075423     28.150846
     -1.646647     14.070154     14.070154     28.140308
     -1.636637     14.030208     14.030208     28.060417
     -1.626627     13.887383     13.887383     27.774765
