# EIG2DOS: Utility for SIESTA to obtain the electronic density of states
#  E. Artacho, Apr 1999, A. Garcia, Apr 2012
#  Nick R. Papior, Feb 2017
# ------------------------------------------
# Eigenvalues calculated from a non-polarized calculation
# Eigenvalues read from siesta.EIG
# Kpoint weights read from siesta.KP
# Using smearing parameter:   0.0500
# Using 1000 points in the energy range
# Selected bands: 1 to: 2981
# Emin, Emax in file for selected band(s):    -27.2014155    218.3478290
# Nbands, Nspin, Nk   =   2981     1     1
# E_F                 =    -4.2575 eV --> (shifted to ZERO)
# Broadening          =     0.0500 eV
#
#        E            N(up)  (=)   N(down)         Ntot
     -5.000000     33.647362     33.647362     67.294724
     -4.989990     37.521474     37.521474     75.042947
     -4.979980     40.921494     40.921494     81.842988
     -4.969970     43.303571     43.303571     86.607142
     -4.959960     44.256012     44.256012     88.512025
     -4.949950     43.620434     43.620434     87.240869
     -4.939940     41.548270     41.548270     83.096539
     -4.929930     38.480562     38.480562     76.961123
     -4.919920     35.072689     35.072689     70.145378
     -4.909910     32.095459     32.095459     64.190917
     -4.899900     30.326210     30.326210     60.652420
     -4.889890     30.418929     30.418929     60.837857
     -4.879880     32.741589     32.741589     65.483178
     -4.869870     37.205353     37.205353     74.410706
     -4.859860     43.161071     43.161071     86.322143
     -4.849850     49.456167     49.456167     98.912334
     -4.839840     54.694848     54.694848    109.389697
     -4.829830     57.640782     57.640782    115.281564
     -4.819820     57.606322     57.606322    115.212645
     -4.809810     54.655308     54.655308    109.310616
     -4.799800     49.529500     49.529500     99.059000
     -4.789790     43.345194     43.345194     86.690388
     -4.779780     37.211740     37.211740     74.423479
     -4.769770     31.936608     31.936608     63.873215
     -4.759760     27.907050     27.907050     55.814100
     -4.749750     25.136375     25.136375     50.272749
     -4.739740     23.397530     23.397530     46.795060
     -4.729730     22.361731     22.361731     44.723462
     -4.719720     21.694873     21.694873     43.389747
     -4.709710     21.105030     21.105030     42.210061
     -4.699700     20.359779     20.359779     40.719559
     -4.689690     19.299447     19.299447     38.598893
     -4.679680     17.865207     17.865207     35.730414
     -4.669670     16.143428     16.143428     32.286856
     -4.659660     14.407381     14.407381     28.814763
     -4.649650     13.125899     13.125899     26.251798
     -4.639640     12.913095     12.913095     25.826190
     -4.629630     14.410927     14.410927     28.821854
     -4.619620     18.118316     18.118316     36.236633
     -4.609610     24.201548     24.201548     48.403097
     -4.599600     32.340079     32.340079     64.680158
     -4.589590     41.674559     41.674559     83.349118
     -4.579580     50.914931     50.914931    101.829861
     -4.569570     58.621633     58.621633    117.243265
     -4.559560     63.598083     63.598083    127.196167
     -4.549550     65.261654     65.261654    130.523307
     -4.539540     63.839198     63.839198    127.678396
     -4.529530     60.287982     60.287982    120.575965
     -4.519520     55.956558     55.956558    111.913115
     -4.509510     52.117198     52.117198    104.234396
     -4.499499     49.559214     49.559214     99.118428
     -4.489489     48.399297     48.399297     96.798593
     -4.479479     48.160118     48.160118     96.320235
     -4.469469     48.049188     48.049188     96.098376
     -4.459459     47.296933     47.296933     94.593867
     -4.449449     45.415314     45.415314     90.830628
     -4.439439     42.302177     42.302177     84.604354
     -4.429429     38.199175     38.199175     76.398350
     -4.419419     33.568183     33.568183     67.136365
     -4.409409     28.959804     28.959804     57.919607
     -4.399399     24.915190     24.915190     49.830380
     -4.389389     21.899074     21.899074     43.798148
     -4.379379     20.240115     20.240115     40.480229
     -4.369369     20.067242     20.067242     40.134485
     -4.359359     21.262066     21.262066     42.524131
     -4.349349     23.466509     23.466509     46.933018
     -4.339339     26.170537     26.170537     52.341075
     -4.329329     28.863446     28.863446     57.726892
     -4.319319     31.192420     31.192420     62.384841
     -4.309309     33.061724     33.061724     66.123448
     -4.299299     34.630979     34.630979     69.261958
     -4.289289     36.213844     36.213844     72.427688
     -4.279279     38.114850     38.114850     76.229700
     -4.269269     40.460325     40.460325     80.920649
     -4.259259     43.082148     43.082148     86.164295
     -4.249249     45.505118     45.505118     91.010236
     -4.239239     47.064909     47.064909     94.129818
     -4.229229     47.136674     47.136674     94.273348
     -4.219219     45.394692     45.394692     90.789385
     -4.209209     41.985822     41.985822     83.971644
     -4.199199     37.521106     37.521106     75.042211
     -4.189189     32.873802     32.873802     65.747603
     -4.179179     28.873710     28.873710     57.747420
     -4.169169     26.042531     26.042531     52.085062
     -4.159159     24.487876     24.487876     48.975752
     -4.149149     23.984548     23.984548     47.969096
     -4.139139     24.177758     24.177758     48.355516
     -4.129129     24.794200     24.794200     49.588399
     -4.119119     25.758034     25.758034     51.516068
     -4.109109     27.162793     27.162793     54.325586
     -4.099099     29.119932     29.119932     58.239863
     -4.089089     31.565840     31.565840     63.131681
     -4.079079     34.138611     34.138611     68.277221
     -4.069069     36.213274     36.213274     72.426548
     -4.059059     37.107567     37.107567     74.215134
     -4.049049     36.372312     36.372312     72.744623
     -4.039039     34.020018     34.020018     68.040036
     -4.029029     30.567894     30.567894     61.135787
     -4.019019     26.870025     26.870025     53.740051
     -4.009009     23.827157     23.827157     47.654314
     -3.998999     22.118834     22.118834     44.237669
     -3.988989     22.070531     22.070531     44.141062
     -3.978979     23.677507     23.677507     47.355014
     -3.968969     26.722453     26.722453     53.444907
     -3.958959     30.896960     30.896960     61.793920
     -3.948949     35.872207     35.872207     71.744415
     -3.938939     41.322994     41.322994     82.645987
     -3.928929     46.942514     46.942514     93.885029
     -3.918919     52.472445     52.472445    104.944890
     -3.908909     57.733870     57.733870    115.467740
     -3.898899     62.619896     62.619896    125.239793
     -3.888889     67.026214     67.026214    134.052428
     -3.878879     70.742589     70.742589    141.485178
     -3.868869     73.371333     73.371333    146.742665
     -3.858859     74.344290     74.344290    148.688579
     -3.848849     73.067972     73.067972    146.135944
     -3.838839     69.157244     69.157244    138.314488
     -3.828829     62.659742     62.659742    125.319484
     -3.818819     54.161339     54.161339    108.322677
     -3.808809     44.708433     44.708433     89.416866
     -3.798799     35.563630     35.563630     71.127259
     -3.788789     27.884042     27.884042     55.768083
     -3.778779     22.438652     22.438652     44.877303
     -3.768769     19.454664     19.454664     38.909329
     -3.758759     18.625108     18.625108     37.250216
     -3.748749     19.254157     19.254157     38.508314
     -3.738739     20.484058     20.484058     40.968115
     -3.728729     21.539605     21.539605     43.079210
     -3.718719     21.932924     21.932924     43.865848
     -3.708709     21.583748     21.583748     43.167496
     -3.698699     20.826170     20.826170     41.652340
     -3.688689     20.294341     20.294341     40.588682
     -3.678679     20.708647     20.708647     41.417294
     -3.668669     22.617054     22.617054     45.234108
     -3.658659     26.172473     26.172473     52.344945
     -3.648649     31.029670     31.029670     62.059339
     -3.638639     36.411801     36.411801     72.823602
     -3.628629     41.331579     41.331579     82.663157
     -3.618619     44.883522     44.883522     89.767044
     -3.608609     46.491347     46.491347     92.982694
     -3.598599     46.021255     46.021255     92.042510
     -3.588589     43.742273     43.742273     87.484546
     -3.578579     40.183020     40.183020     80.366040
     -3.568569     35.960002     35.960002     71.920004
     -3.558559     31.632444     31.632444     63.264887
     -3.548549     27.603767     27.603767     55.207535
     -3.538539     24.071677     24.071677     48.143353
     -3.528529     21.030710     21.030710     42.061420
     -3.518519     18.331917     18.331917     36.663834
     -3.508509     15.787536     15.787536     31.575071
     -3.498498     13.282810     13.282810     26.565620
     -3.488488     10.846763     10.846763     21.693525
     -3.478478      8.652233      8.652233     17.304466
     -3.468468      6.951078      6.951078     13.902156
     -3.458458      5.978039      5.978039     11.956077
     -3.448448      5.861636      5.861636     11.723272
     -3.438438      6.568453      6.568453     13.136906
     -3.428428      7.893702      7.893702     15.787404
     -3.418418      9.503385      9.503385     19.006770
     -3.408408     11.025334     11.025334     22.050667
     -3.398398     12.169907     12.169907     24.339815
     -3.388388     12.840402     12.840402     25.680805
     -3.378378     13.185116     13.185116     26.370232
     -3.368368     13.561309     13.561309     27.122618
     -3.358358     14.420485     14.420485     28.840970
     -3.348348     16.160124     16.160124     32.320247
     -3.338338     18.995294     18.995294     37.990589
     -3.328328     22.882105     22.882105     45.764210
     -3.318318     27.495930     27.495930     54.991859
     -3.308308     32.256989     32.256989     64.513979
     -3.298298     36.408044     36.408044     72.816087
     -3.288288     39.159093     39.159093     78.318185
     -3.278278     39.893522     39.893522     79.787044
     -3.268268     38.380146     38.380146     76.760292
     -3.258258     34.895178     34.895178     69.790357
     -3.248248     30.172364     30.172364     60.344728
     -3.238238     25.175475     25.175475     50.350950
     -3.228228     20.781301     20.781301     41.562602
     -3.218218     17.511512     17.511512     35.023023
     -3.208208     15.426624     15.426624     30.853247
     -3.198198     14.213435     14.213435     28.426870
     -3.188188     13.408562     13.408562     26.817125
     -3.178178     12.650177     12.650177     25.300354
     -3.168168     11.854264     11.854264     23.708528
     -3.158158     11.257536     11.257536     22.515072
     -3.148148     11.327353     11.327353     22.654707
     -3.138138     12.582915     12.582915     25.165830
     -3.128128     15.390341     15.390341     30.780682
     -3.118118     19.792393     19.792393     39.584785
     -3.108108     25.422383     25.422383     50.844765
     -3.098098     31.535190     31.535190     63.070380
     -3.088088     37.161292     37.161292     74.322584
     -3.078078     41.349898     41.349898     82.699795
     -3.068068     43.426174     43.426174     86.852347
     -3.058058     43.168707     43.168707     86.337414
     -3.048048     40.836134     40.836134     81.672268
     -3.038038     37.033681     37.033681     74.067362
     -3.028028     32.482775     32.482775     64.965551
     -3.018018     27.800021     27.800021     55.600042
     -3.008008     23.379484     23.379484     46.758968
     -2.997998     19.411079     19.411079     38.822157
     -2.987988     15.994786     15.994786     31.989572
     -2.977978     13.268341     13.268341     26.536682
     -2.967968     11.474087     11.474087     22.948174
     -2.957958     10.934346     10.934346     21.868691
     -2.947948     11.951712     11.951712     23.903424
     -2.937938     14.677876     14.677876     29.355751
     -2.927928     18.999927     18.999927     37.999854
     -2.917918     24.486581     24.486581     48.973162
     -2.907908     30.424037     30.424037     60.848073
     -2.897898     35.948904     35.948904     71.897808
     -2.887888     40.251467     40.251467     80.502935
     -2.877878     42.786576     42.786576     85.573153
     -2.867868     43.412539     43.412539     86.825078
     -2.857858     42.397429     42.397429     84.794859
     -2.847848     40.285163     40.285163     80.570326
     -2.837838     37.676577     37.676577     75.353153
     -2.827828     35.020639     35.020639     70.041277
     -2.817818     32.504976     32.504976     65.009952
     -2.807808     30.084445     30.084445     60.168890
     -2.797798     27.617115     27.617115     55.234231
     -2.787788     25.025228     25.025228     50.050455
     -2.777778     22.391889     22.391889     44.783779
     -2.767768     19.945734     19.945734     39.891467
     -2.757758     17.952124     17.952124     35.904248
     -2.747748     16.583145     16.583145     33.166290
     -2.737738     15.848345     15.848345     31.696690
     -2.727728     15.627669     15.627669     31.255338
     -2.717718     15.781030     15.781030     31.562060
     -2.707708     16.257482     16.257482     32.514964
     -2.697698     17.125493     17.125493     34.250985
     -2.687688     18.498260     18.498260     36.996521
     -2.677678     20.401866     20.401866     40.803731
     -2.667668     22.679285     22.679285     45.358569
     -2.657658     25.006056     25.006056     50.012112
     -2.647648     27.021227     27.021227     54.042455
     -2.637638     28.497717     28.497717     56.995435
     -2.627628     29.445547     29.445547     58.891095
     -2.617618     30.083424     30.083424     60.166847
     -2.607608     30.700064     30.700064     61.400128
     -2.597598     31.494589     31.494589     62.989177
     -2.587588     32.487219     32.487219     64.974437
     -2.577578     33.531579     33.531579     67.063158
     -2.567568     34.389973     34.389973     68.779947
     -2.557558     34.808087     34.808087     69.616174
     -2.547548     34.557352     34.557352     69.114703
     -2.537538     33.463084     33.463084     66.926167
     -2.527528     31.453686     31.453686     62.907371
     -2.517518     28.635201     28.635201     57.270401
     -2.507508     25.347999     25.347999     50.695998
     -2.497497     22.145760     22.145760     44.291520
     -2.487487     19.670770     19.670770     39.341540
     -2.477477     18.461036     18.461036     36.922073
     -2.467467     18.770879     18.770879     37.541757
     -2.457457     20.488349     20.488349     40.976698
     -2.447447     23.190637     23.190637     46.381274
     -2.437437     26.315782     26.315782     52.631564
     -2.427427     29.375384     29.375384     58.750768
     -2.417417     32.112699     32.112699     64.225398
     -2.407407     34.534061     34.534061     69.068121
     -2.397397     36.800566     36.800566     73.601132
     -2.387387     39.035224     39.035224     78.070449
     -2.377377     41.145170     41.145170     82.290339
     -2.367367     42.755980     42.755980     85.511960
     -2.357357     43.304380     43.304380     86.608759
     -2.347347     42.258865     42.258865     84.517729
     -2.337337     39.371740     39.371740     78.743479
     -2.327327     34.845451     34.845451     69.690903
     -2.317317     29.334431     29.334431     58.668862
     -2.307307     23.781567     23.781567     47.563133
     -2.297297     19.162422     19.162422     38.324844
     -2.287287     16.240462     16.240462     32.480924
     -2.277277     15.413446     15.413446     30.826892
     -2.267267     16.678512     16.678512     33.357025
     -2.257257     19.695910     19.695910     39.391820
     -2.247247     23.908375     23.908375     47.816751
     -2.237237     28.672601     28.672601     57.345202
     -2.227227     33.369210     33.369210     66.738420
     -2.217217     37.471250     37.471250     74.942499
     -2.207207     40.568453     40.568453     81.136906
     -2.197197     42.364067     42.364067     84.728133
     -2.187187     42.673720     42.673720     85.347440
     -2.177177     41.449387     41.449387     82.898774
     -2.167167     38.823763     38.823763     77.647527
     -2.157157     35.137771     35.137771     70.275542
     -2.147147     30.903900     30.903900     61.807801
     -2.137137     26.687096     26.687096     53.374193
     -2.127127     22.939496     22.939496     45.878992
     -2.117117     19.866940     19.866940     39.733881
     -2.107107     17.399031     17.399031     34.798061
     -2.097097     15.279348     15.279348     30.558696
     -2.087087     13.224505     13.224505     26.449010
     -2.077077     11.066045     11.066045     22.132090
     -2.067067      8.808614      8.808614     17.617228
     -2.057057      6.593197      6.593197     13.186395
     -2.047047      4.605735      4.605735      9.211471
     -2.037037      2.989052      2.989052      5.978104
     -2.027027      1.797677      1.797677      3.595354
     -2.017017      1.001701      1.001701      2.003402
     -2.007007      0.520916      0.520916      1.041832
     -1.996997      0.264731      0.264731      0.529461
     -1.986987      0.162086      0.162086      0.324172
     -1.976977      0.177869      0.177869      0.355739
     -1.966967      0.319651      0.319651      0.639302
     -1.956957      0.638782      0.638782      1.277565
     -1.946947      1.225605      1.225605      2.451210
     -1.936937      2.194298      2.194298      4.388595
     -1.926927      3.652979      3.652979      7.305958
     -1.916917      5.661024      5.661024     11.322048
     -1.906907      8.185913      8.185913     16.371825
     -1.896897     11.079721     11.079721     22.159442
     -1.886887     14.093358     14.093358     28.186715
     -1.876877     16.932724     16.932724     33.865448
     -1.866867     19.341367     19.341367     38.682734
     -1.856857     21.179460     21.179460     42.358920
     -1.846847     22.466529     22.466529     44.933058
     -1.836837     23.365525     23.365525     46.731049
     -1.826827     24.105088     24.105088     48.210175
     -1.816817     24.861633     24.861633     49.723267
     -1.806807     25.647283     25.647283     51.294567
     -1.796797     26.260628     26.260628     52.521257
     -1.786787     26.339507     26.339507     52.679013
     -1.776777     25.506950     25.506950     51.013899
     -1.766767     23.546790     23.546790     47.093580
     -1.756757     20.521380     20.521380     41.042760
     -1.746747     16.771637     16.771637     33.543274
     -1.736737     12.803970     12.803970     25.607940
     -1.726727      9.127339      9.127339     18.254677
     -1.716717      6.120410      6.120410     12.240820
     -1.706707      3.978798      3.978798      7.957596
     -1.696697      2.741484      2.741484      5.482967
     -1.686687      2.356599      2.356599      4.713197
     -1.676677      2.737744      2.737744      5.475489
     -1.666667      3.780374      3.780374      7.560749
     -1.656657      5.338708      5.338708     10.677416
     -1.646647      7.190814      7.190814     14.381627
     -1.636637      9.030218      9.030218     18.060435
     -1.626627     10.510788     10.510788     21.021576
