# EIG2DOS: Utility for SIESTA to obtain the electronic density of states
#  E. Artacho, Apr 1999, A. Garcia, Apr 2012
#  Nick R. Papior, Feb 2017
# ------------------------------------------
# Eigenvalues calculated from a non-polarized calculation
# Eigenvalues read from siesta.EIG
# Kpoint weights read from siesta.KP
# Using smearing parameter:   0.0500
# Using 1000 points in the energy range
# Selected bands: 1 to: 2981
# Emin, Emax in file for selected band(s):    -27.2633850    218.3584460
# Nbands, Nspin, Nk   =   2981     1     1
# E_F                 =    -4.2469 eV --> (shifted to ZERO)
# Broadening          =     0.0500 eV
#
#        E            N(up)  (=)   N(down)         Ntot
     -5.000000     33.505809     33.505809     67.011618
     -4.989990     37.421485     37.421485     74.842969
     -4.979980     40.800917     40.800917     81.601834
     -4.969970     43.149763     43.149763     86.299525
     -4.959960     44.085405     44.085405     88.170809
     -4.949950     43.459533     43.459533     86.919066
     -4.939940     41.418785     41.418785     82.837569
     -4.929930     38.390991     38.390991     76.781982
     -4.919920     35.016806     35.016806     70.033611
     -4.909910     32.056030     32.056030     64.112060
     -4.899900     30.281339     30.281339     60.562677
     -4.889890     30.348918     30.348918     60.697835
     -4.879880     32.635221     32.635221     65.270441
     -4.869870     37.064730     37.064730     74.129460
     -4.859860     43.003600     43.003600     86.007199
     -4.849850     49.311914     49.311914     98.623827
     -4.839840     54.598636     54.598636    109.197272
     -4.829830     57.620938     57.620938    115.241876
     -4.819820     57.674356     57.674356    115.348712
     -4.809810     54.801097     54.801097    109.602194
     -4.799800     49.724229     49.724229     99.448458
     -4.789790     43.550733     43.550733     87.101466
     -4.779780     37.392478     37.392478     74.784956
     -4.769770     32.069328     32.069328     64.138657
     -4.759760     27.986185     27.986185     55.972371
     -4.749750     25.174820     25.174820     50.349640
     -4.739740     23.425941     23.425941     46.851881
     -4.729730     22.430873     22.430873     44.861745
     -4.719720     21.885356     21.885356     43.770713
     -4.709710     21.545852     21.545852     43.091704
     -4.699700     21.251150     21.251150     42.502300
     -4.689690     20.927388     20.927388     41.854777
     -4.679680     20.588931     20.588931     41.177863
     -4.669670     20.337431     20.337431     40.674862
     -4.659660     20.353728     20.353728     40.707456
     -4.649650     20.877184     20.877184     41.754369
     -4.639640     22.172229     22.172229     44.344458
     -4.629630     24.483398     24.483398     48.966796
     -4.619620     27.974655     27.974655     55.949310
     -4.609610     32.647441     32.647441     65.294882
     -4.599600     38.249703     38.249703     76.499407
     -4.589590     44.221317     44.221317     88.442634
     -4.579580     49.739998     49.739998     99.479995
     -4.569570     53.904129     53.904129    107.808258
     -4.559560     56.015724     56.015724    112.031447
     -4.549550     55.851231     55.851231    111.702462
     -4.539540     53.785790     53.785790    107.571581
     -4.529530     50.691919     50.691919    101.383839
     -4.519520     47.639166     47.639166     95.278331
     -4.509510     45.517408     45.517408     91.034817
     -4.499499     44.740975     44.740975     89.481951
     -4.489489     45.148631     45.148631     90.297263
     -4.479479     46.122187     46.122187     92.244374
     -4.469469     46.852877     46.852877     93.705753
     -4.459459     46.633905     46.633905     93.267810
     -4.449449     45.067647     45.067647     90.135294
     -4.439439     42.133024     42.133024     84.266048
     -4.429429     38.127855     38.127855     76.255710
     -4.419419     33.546698     33.546698     67.093395
     -4.409409     28.958382     28.958382     57.916763
     -4.399399     24.916218     24.916218     49.832437
     -4.389389     21.894908     21.894908     43.789816
     -4.379379     20.230683     20.230683     40.461367
     -4.369369     20.056016     20.056016     40.112032
     -4.359359     21.251433     21.251433     42.502866
     -4.349349     23.454582     23.454582     46.909165
     -4.339339     26.150856     26.150856     52.301712
     -4.329329     28.827720     28.827720     57.655439
     -4.319319     31.135188     31.135188     62.270376
     -4.309309     32.985016     32.985016     65.970031
     -4.299299     34.546880     34.546880     69.093759
     -4.289289     36.143308     36.143308     72.286616
     -4.279279     38.082261     38.082261     76.164522
     -4.269269     40.485060     40.485060     80.970119
     -4.259259     43.170285     43.170285     86.340570
     -4.249249     45.645264     45.645264     91.290528
     -4.239239     47.230902     47.230902     94.461803
     -4.229229     47.296633     47.296633     94.593265
     -4.219219     45.522259     45.522259     91.044518
     -4.209209     42.067900     42.067900     84.135799
     -4.199199     37.558385     37.558385     75.116770
     -4.189189     32.874776     32.874776     65.749552
     -4.179179     28.846769     28.846769     57.693538
     -4.169169     25.991410     25.991410     51.982820
     -4.159159     24.412840     24.412840     48.825680
     -4.149149     23.887447     23.887447     47.774894
     -4.139139     24.066471     24.066471     48.132941
     -4.129129     24.682740     24.682740     49.365480
     -4.119119     25.661900     25.661900     51.323800
     -4.109109     27.092524     27.092524     54.185047
     -4.099099     29.077005     29.077005     58.154010
     -4.089089     31.543358     31.543358     63.086715
     -4.079079     34.126081     34.126081     68.252162
     -4.069069     36.202404     36.202404     72.404809
     -4.059059     37.095756     37.095756     74.191512
     -4.049049     36.362363     36.362363     72.724726
     -4.039039     34.017048     34.017048     68.034095
     -4.029029     30.575797     30.575797     61.151595
     -4.019019     26.889580     26.889580     53.779159
     -4.009009     23.856327     23.856327     47.712655
     -3.998999     22.154388     22.154388     44.308776
     -3.988989     22.109508     22.109508     44.219017
     -3.978979     23.717609     23.717609     47.435217
     -3.968969     26.761381     26.761381     53.522762
     -3.958959     30.931544     30.931544     61.863088
     -3.948949     35.898382     35.898382     71.796764
     -3.938939     41.337236     41.337236     82.674471
     -3.928929     46.944420     46.944420     93.888839
     -3.918919     52.467001     52.467001    104.934001
     -3.908909     57.731401     57.731401    115.462802
     -3.898899     62.632356     62.632356    125.264712
     -3.888889     67.060666     67.060666    134.121332
     -3.878879     70.795244     70.795244    141.590488
     -3.868869     73.426360     73.426360    146.852719
     -3.858859     74.379433     74.379433    148.758866
     -3.848849     73.064714     73.064714    146.129427
     -3.838839     69.109846     69.109846    138.219692
     -3.828829     62.577829     62.577829    125.155659
     -3.818819     54.064696     54.064696    108.129392
     -3.808809     44.617511     44.617511     89.235022
     -3.798799     35.491382     35.491382     70.982764
     -3.788789     27.833056     27.833056     55.666113
     -3.778779     22.403783     22.403783     44.807566
     -3.768769     19.428418     19.428418     38.856836
     -3.758759     18.602403     18.602403     37.204807
     -3.748749     19.234497     19.234497     38.468995
     -3.738739     20.471049     20.471049     40.942098
     -3.728729     21.539007     21.539007     43.078014
     -3.718719     21.950603     21.950603     43.901206
     -3.708709     21.624334     21.624334     43.248669
     -3.698699     20.892444     20.892444     41.784887
     -3.688689     20.386793     20.386793     40.773586
     -3.678679     20.824620     20.824620     41.649241
     -3.668669     22.749393     22.749393     45.498786
     -3.658659     26.308441     26.308441     52.616883
     -3.648649     31.151437     31.151437     62.302874
     -3.638639     36.499449     36.499449     72.998898
     -3.628629     41.368293     41.368293     82.736586
     -3.618619     44.861126     44.861126     89.722252
     -3.608609     46.413635     46.413635     92.827270
     -3.598599     45.903361     45.903361     91.806722
     -3.588589     43.606166     43.606166     87.212332
     -3.578579     40.051057     40.051057     80.102115
     -3.568569     35.849217     35.849217     71.698434
     -3.558559     31.551583     31.551583     63.103166
     -3.548549     27.553566     27.553566     55.107133
     -3.538539     24.047415     24.047415     48.094830
     -3.528529     21.025397     21.025397     42.050795
     -3.518519     18.338701     18.338701     36.677401
     -3.508509     15.800738     15.800738     31.601475
     -3.498498     13.297837     13.297837     26.595673
     -3.488488     10.859555     10.859555     21.719109
     -3.478478      8.658890      8.658890     17.317781
     -3.468468      6.948002      6.948002     13.896004
     -3.458458      5.962617      5.962617     11.925233
     -3.448448      5.833267      5.833267     11.666533
     -3.438438      6.529499      6.529499     13.058998
     -3.428428      7.849835      7.849835     15.699671
     -3.418418      9.462863      9.462863     18.925726
     -3.408408     10.997237     10.997237     21.994473
     -3.398398     12.162223     12.162223     24.324445
     -3.388388     12.859702     12.859702     25.719404
     -3.378378     13.240043     13.240043     26.480086
     -3.368368     13.671895     13.671895     27.343790
     -3.358358     14.634410     14.634410     29.268820
     -3.348348     16.575112     16.575112     33.150224
     -3.338338     19.783298     19.783298     39.566595
     -3.328328     24.305504     24.305504     48.611009
     -3.318318     29.900350     29.900350     59.800700
     -3.308308     36.023948     36.023948     72.047897
     -3.298298     41.859136     41.859136     83.718271
     -3.288288     46.423766     46.423766     92.847531
     -3.278278     48.778350     48.778350     97.556700
     -3.268268     48.294626     48.294626     96.589253
     -3.258258     44.883412     44.883412     89.766824
     -3.248248     39.068603     39.068603     78.137207
     -3.238238     31.856779     31.856779     63.713557
     -3.228228     24.452409     24.452409     48.904818
     -3.218218     17.939899     17.939899     35.879799
     -3.208208     13.052075     13.052075     26.104149
     -3.198198     10.082383     10.082383     20.164767
     -3.188188      8.926098      8.926098     17.852196
     -3.178178      9.198803      9.198803     18.397606
     -3.168168     10.385123     10.385123     20.770245
     -3.158158     11.990452     11.990452     23.980905
     -3.148148     13.675026     13.675026     27.350052
     -3.138138     15.338942     15.338942     30.677884
     -3.128128     17.119912     17.119912     34.239824
     -3.118118     19.285706     19.285706     38.571412
     -3.108108     22.051200     22.051200     44.102401
     -3.098098     25.398666     25.398666     50.797331
     -3.088088     28.993715     28.993715     57.987430
     -3.078078     32.250886     32.250886     64.501772
     -3.068068     34.527994     34.527994     69.055989
     -3.058058     35.358743     35.358743     70.717486
     -3.048048     34.610668     34.610668     69.221335
     -3.038038     32.496285     32.496285     64.992570
     -3.028028     29.446785     29.446785     58.893570
     -3.018018     25.930477     25.930477     51.860954
     -3.008008     22.318050     22.318050     44.636101
     -2.997998     18.854288     18.854288     37.708575
     -2.987988     15.723644     15.723644     31.447289
     -2.977978     13.143965     13.143965     26.287930
     -2.967968     11.417657     11.417657     22.835314
     -2.957958     10.905048     10.905048     21.810096
     -2.947948     11.929503     11.929503     23.859007
     -2.937938     14.652712     14.652712     29.305425
     -2.927928     18.966454     18.966454     37.932908
     -2.917918     24.442488     24.442488     48.884975
     -2.907908     30.370274     30.370274     60.740548
     -2.897898     35.890168     35.890168     71.780337
     -2.887888     40.195767     40.195767     80.391534
     -2.877878     42.743449     42.743449     85.486898
     -2.867868     43.390403     43.390403     86.780806
     -2.857858     42.401183     42.401183     84.802366
     -2.847848     40.315015     40.315015     80.630030
     -2.837838     37.728330     37.728330     75.456659
     -2.827828     35.086886     35.086886     70.173772
     -2.817818     32.576472     32.576472     65.152944
     -2.807808     30.151351     30.151351     60.302702
     -2.797798     27.670301     27.670301     55.340602
     -2.787788     25.057830     25.057830     50.115659
     -2.777778     22.400918     22.400918     44.801836
     -2.767768     19.933124     19.933124     39.866247
     -2.757758     17.924677     17.924677     35.849353
     -2.747748     16.551263     16.551263     33.102527
     -2.737738     15.823962     15.823962     31.647923
     -2.727728     15.621951     15.621951     31.243902
     -2.717718     15.802331     15.802331     31.604661
     -2.707708     16.309741     16.309741     32.619482
     -2.697698     17.207132     17.207132     34.414265
     -2.687688     18.601732     18.601732     37.203464
     -2.677678     20.514209     20.514209     41.028417
     -2.667668     22.784167     22.784167     45.568335
     -2.657658     25.087373     25.087373     50.174747
     -2.647648     27.067499     27.067499     54.134999
     -2.637638     28.505714     28.505714     57.011429
     -2.627628     29.421493     29.421493     58.842987
     -2.617618     30.041038     30.041038     60.082076
     -2.607608     30.656186     30.656186     61.312372
     -2.597598     31.464158     31.464158     62.928315
     -2.587588     32.479388     32.479388     64.958776
     -2.577578     33.547870     33.547870     67.095740
     -2.567568     34.424419     34.424419     68.848839
     -2.557558     34.848882     34.848882     69.697765
     -2.547548     34.589585     34.589585     69.179171
     -2.537538     33.472141     33.472141     66.944283
     -2.527528     31.428636     31.428636     62.857273
     -2.517518     28.571172     28.571172     57.142344
     -2.507508     25.246778     25.246778     50.493556
     -2.497497     22.014743     22.014743     44.029486
     -2.487487     19.521327     19.521327     39.042654
     -2.477477     18.307488     18.307488     36.614977
     -2.467467     18.630370     18.630370     37.260741
     -2.457457     20.380555     20.380555     40.761110
     -2.447447     23.135690     23.135690     46.271380
     -2.437437     26.329701     26.329701     52.659401
     -2.427427     29.464203     29.464203     58.928405
     -2.417417     32.268118     32.268118     64.536236
     -2.407407     34.733397     34.733397     69.466794
     -2.397397     37.011877     37.011877     74.023753
     -2.387387     39.225744     39.225744     78.451488
     -2.377377     41.289495     41.289495     82.578990
     -2.367367     42.840798     42.840798     85.681596
     -2.357357     43.328690     43.328690     86.657381
     -2.347347     42.230975     42.230975     84.461951
     -2.337337     39.305310     39.305310     78.610620
     -2.327327     34.756224     34.756224     69.512448
     -2.317317     29.237907     29.237907     58.475814
     -2.307307     23.691070     23.691070     47.382139
     -2.297297     19.087157     19.087157     38.174314
     -2.287287     16.183948     16.183948     32.367897
     -2.277277     15.373172     15.373172     30.746344
     -2.267267     16.647412     16.647412     33.294824
     -2.257257     19.665383     19.665383     39.330766
     -2.247247     23.871673     23.871673     47.743347
     -2.237237     28.627093     28.627093     57.254185
     -2.227227     33.316618     33.316618     66.633236
     -2.217217     37.416107     37.416107     74.832214
     -2.207207     40.515962     40.515962     81.031923
     -2.197197     42.318582     42.318582     84.637164
     -2.187187     42.638262     42.638262     85.276524
     -2.177177     41.425673     41.425673     82.851347
     -2.167167     38.812109     38.812109     77.624218
     -2.157157     35.136786     35.136786     70.273572
     -2.147147     30.910559     30.910559     61.821118
     -2.137137     26.697674     26.697674     53.395348
     -2.127127     22.951114     22.951114     45.902228
     -2.117117     19.878796     19.878796     39.757593
     -2.107107     17.412446     17.412446     34.824891
     -2.097097     15.296552     15.296552     30.593105
     -2.087087     13.246941     13.246941     26.493882
     -2.077077     11.093233     11.093233     22.186466
     -2.067067      8.838176      8.838176     17.676352
     -2.057057      6.621849      6.621849     13.243698
     -2.047047      4.630562      4.630562      9.261123
     -2.037037      3.008383      3.008383      6.016766
     -2.027027      1.811276      1.811276      3.622552
     -2.017017      1.010408      1.010408      2.020816
     -2.007007      0.526136      0.526136      1.052271
     -1.996997      0.268158      0.268158      0.536317
     -1.986987      0.166080      0.166080      0.332160
     -1.976977      0.187044      0.187044      0.374088
     -1.966967      0.344736      0.344736      0.689472
     -1.956957      0.704417      0.704417      1.408834
     -1.946947      1.383961      1.383961      2.767922
     -1.936937      2.545225      2.545225      5.090450
     -1.926927      4.367581      4.367581      8.735161
     -1.916917      6.998946      6.998946     13.997893
     -1.906907     10.489435     10.489435     20.978870
     -1.896897     14.725336     14.725336     29.450672
     -1.886887     19.390404     19.390404     38.780807
     -1.876877     23.981229     23.981229     47.962458
     -1.866867     27.890693     27.890693     55.781386
     -1.856857     30.549679     30.549679     61.099359
     -1.846847     31.588903     31.588903     63.177806
     -1.836837     30.961717     30.961717     61.923435
     -1.826827     28.969731     28.969731     57.939462
     -1.816817     26.164985     26.164985     52.329971
     -1.806807     23.157620     23.157620     46.315239
     -1.796797     20.408882     20.408882     40.817764
     -1.786787     18.102787     18.102787     36.205575
     -1.776777     16.151408     16.151408     32.302815
     -1.766767     14.318258     14.318258     28.636517
     -1.756757     12.384599     12.384599     24.769198
     -1.746747     10.270937     10.270937     20.541874
     -1.736737      8.064308      8.064308     16.128617
     -1.726727      5.961311      5.961311     11.922623
     -1.716717      4.178286      4.178286      8.356571
     -1.706707      2.882574      2.882574      5.765148
     -1.696697      2.170015      2.170015      4.340029
     -1.686687      2.078389      2.078389      4.156777
     -1.676677      2.606865      2.606865      5.213730
     -1.666667      3.715504      3.715504      7.431008
     -1.656657      5.300183      5.300183     10.600366
     -1.646647      7.162733      7.162733     14.325466
     -1.636637      9.008733      9.008733     18.017466
     -1.626627     10.497072     10.497072     20.994145
