# EIG2DOS: Utility for SIESTA to obtain the electronic density of states
#  E. Artacho, Apr 1999, A. Garcia, Apr 2012
#  Nick R. Papior, Feb 2017
# ------------------------------------------
# Eigenvalues calculated from a non-polarized calculation
# Eigenvalues read from siesta.EIG
# Kpoint weights read from siesta.KP
# Using smearing parameter:   0.0500
# Using 1000 points in the energy range
# Selected bands: 1 to: 2981
# Emin, Emax in file for selected band(s):    -27.3548250    218.3938880
# Nbands, Nspin, Nk   =   2981     1     1
# E_F                 =    -4.2028 eV --> (shifted to ZERO)
# Broadening          =     0.0500 eV
#
#        E            N(up)  (=)   N(down)         Ntot
     -5.000000     31.756268     31.756268     63.512536
     -4.989990     36.905277     36.905277     73.810553
     -4.979980     41.755191     41.755191     83.510382
     -4.969970     45.458099     45.458099     90.916199
     -4.959960     47.306442     47.306442     94.612883
     -4.949950     46.970097     46.970097     93.940194
     -4.939940     44.611159     44.611159     89.222318
     -4.929930     40.845055     40.845055     81.690109
     -4.919920     36.586888     36.586888     73.173775
     -4.909910     32.853213     32.853213     65.706427
     -4.899900     30.571354     30.571354     61.142707
     -4.889890     30.410421     30.410421     60.820842
     -4.879880     32.632605     32.632605     65.265209
     -4.869870     36.985330     36.985330     73.970660
     -4.859860     42.688371     42.688371     85.376741
     -4.849850     48.570693     48.570693     97.141387
     -4.839840     53.359275     53.359275    106.718549
     -4.829830     56.041072     56.041072    112.082143
     -4.819820     56.163246     56.163246    112.326493
     -4.809810     53.947444     53.947444    107.894888
     -4.799800     50.170866     50.170866    100.341732
     -4.789790     45.867974     45.867974     91.735949
     -4.779780     41.977862     41.977862     83.955724
     -4.769770     39.071458     39.071458     78.142916
     -4.759760     37.244611     37.244611     74.489222
     -4.749750     36.188685     36.188685     72.377370
     -4.739740     35.383924     35.383924     70.767848
     -4.729730     34.324540     34.324540     68.649080
     -4.719720     32.686350     32.686350     65.372699
     -4.709710     30.385065     30.385065     60.770131
     -4.699700     27.531020     27.531020     55.062040
     -4.689690     24.336224     24.336224     48.672447
     -4.679680     21.043604     21.043604     42.087207
     -4.669670     17.917977     17.917977     35.835953
     -4.659660     15.285687     15.285687     30.571375
     -4.649650     13.571022     13.571022     27.142044
     -4.639640     13.274942     13.274942     26.549884
     -4.629630     14.871310     14.871310     29.742620
     -4.619620     18.638279     18.638279     37.276557
     -4.609610     24.480645     24.480645     48.961291
     -4.599600     31.821797     31.821797     63.643594
     -4.589590     39.639869     39.639869     79.279738
     -4.579580     46.680585     46.680585     93.361171
     -4.569570     51.803409     51.803409    103.606819
     -4.559560     54.340413     54.340413    108.680826
     -4.549550     54.316660     54.316660    108.633321
     -4.539540     52.426047     52.426047    104.852093
     -4.529530     49.761532     49.761532     99.523064
     -4.519520     47.408957     47.408957     94.817914
     -4.509510     46.071292     46.071292     92.142584
     -4.499499     45.868961     45.868961     91.737922
     -4.489489     46.377907     46.377907     92.755814
     -4.479479     46.864255     46.864255     93.728509
     -4.469469     46.599754     46.599754     93.199508
     -4.459459     45.124985     45.124985     90.249969
     -4.449449     42.368730     42.368730     84.737460
     -4.439439     38.607501     38.607501     77.215002
     -4.429429     34.320519     34.320519     68.641038
     -4.419419     30.028683     30.028683     60.057366
     -4.409409     26.188192     26.188192     52.376383
     -4.399399     23.156502     23.156502     46.313004
     -4.389389     21.196820     21.196820     42.393640
     -4.379379     20.471909     20.471909     40.943818
     -4.369369     21.006305     21.006305     42.012609
     -4.359359     22.642374     22.642374     45.284747
     -4.349349     25.040699     25.040699     50.081398
     -4.339339     27.757240     27.757240     55.514479
     -4.329329     30.381213     30.381213     60.762427
     -4.319319     32.674060     32.674060     65.348121
     -4.309309     34.640866     34.640866     69.281733
     -4.299299     36.494901     36.494901     72.989802
     -4.289289     38.523682     38.523682     77.047365
     -4.279279     40.906970     40.906970     81.813940
     -4.269269     43.559422     43.559422     87.118844
     -4.259259     46.069556     46.069556     92.139112
     -4.249249     47.780163     47.780163     95.560325
     -4.239239     48.003328     48.003328     96.006657
     -4.229229     46.298323     46.298323     92.596646
     -4.219219     42.694113     42.694113     85.388226
     -4.209209     37.745243     37.745243     75.490486
     -4.199199     32.379738     32.379738     64.759477
     -4.189189     27.598030     27.598030     55.196060
     -4.179179     24.155290     24.155290     48.310579
     -4.169169     22.363292     22.363292     44.726584
     -4.159159     22.083273     22.083273     44.166546
     -4.149149     22.888607     22.888607     45.777214
     -4.139139     24.304310     24.304310     48.608621
     -4.129129     26.007946     26.007946     52.015892
     -4.119119     27.904408     27.904408     55.808816
     -4.109109     30.048883     30.048883     60.097766
     -4.099099     32.465128     32.465128     64.930257
     -4.089089     34.962954     34.962954     69.925909
     -4.079079     37.070379     37.070379     74.140758
     -4.069069     38.145129     38.145129     76.290258
     -4.059059     37.632681     37.632681     75.265361
     -4.049049     35.346410     35.346410     70.692821
     -4.039039     31.620196     31.620196     63.240392
     -4.029029     27.247475     27.247475     54.494950
     -4.019019     23.235383     23.235383     46.470767
     -4.009009     20.495306     20.495306     40.990612
     -3.998999     19.607643     19.607643     39.215285
     -3.988989     20.739462     20.739462     41.478925
     -3.978979     23.706410     23.706410     47.412821
     -3.968969     28.109957     28.109957     56.219913
     -3.958959     33.474444     33.474444     66.948888
     -3.948949     39.343107     39.343107     78.686213
     -3.938939     45.332973     45.332973     90.665946
     -3.928929     51.164948     51.164948    102.329896
     -3.918919     56.673021     56.673021    113.346043
     -3.908909     61.777751     61.777751    123.555501
     -3.898899     66.411420     66.411420    132.822839
     -3.888889     70.412300     70.412300    140.824601
     -3.878879     73.441322     73.441322    146.882645
     -3.868869     74.983776     74.983776    149.967552
     -3.858859     74.466136     74.466136    148.932273
     -3.848849     71.458992     71.458992    142.917984
     -3.838839     65.886091     65.886091    131.772181
     -3.828829     58.146744     58.146744    116.293488
     -3.818819     49.091286     49.091286     98.182572
     -3.808809     39.849137     39.849137     79.698275
     -3.798799     31.566228     31.566228     63.132456
     -3.788789     25.138307     25.138307     50.276615
     -3.778779     21.020786     21.020786     42.041572
     -3.768769     19.163275     19.163275     38.326551
     -3.758759     19.075532     19.075532     38.151063
     -3.748749     19.996572     19.996572     39.993145
     -3.738739     21.117802     21.117802     42.235604
     -3.728729     21.804069     21.804069     43.608138
     -3.718719     21.760487     21.760487     43.520975
     -3.708709     21.104656     21.104656     42.209312
     -3.698699     20.322409     20.322409     40.644819
     -3.688689     20.110495     20.110495     40.220989
     -3.678679     21.140406     21.140406     42.280811
     -3.668669     23.808415     23.808415     47.616830
     -3.658659     28.055110     28.055110     56.110220
     -3.648649     33.327913     33.327913     66.655827
     -3.638639     38.714407     38.714407     77.428814
     -3.628629     43.205230     43.205230     86.410459
     -3.618619     45.986337     45.986337     91.972674
     -3.608609     46.647720     46.647720     93.295439
     -3.598599     45.240191     45.240191     90.480382
     -3.588589     42.186448     42.186448     84.372897
     -3.578579     38.110287     38.110287     76.220573
     -3.568569     33.658532     33.658532     67.317064
     -3.558559     29.362643     29.362643     58.725287
     -3.548549     25.554528     25.554528     51.109056
     -3.538539     22.338095     22.338095     44.676189
     -3.528529     19.619634     19.619634     39.239268
     -3.518519     17.195232     17.195232     34.390465
     -3.508509     14.872867     14.872867     29.745734
     -3.498498     12.584898     12.584898     25.169796
     -3.488488     10.445257     10.445257     20.890514
     -3.478478      8.729977      8.729977     17.459954
     -3.468468      7.792731      7.792731     15.585461
     -3.458458      7.947011      7.947011     15.894023
     -3.448448      9.347972      9.347972     18.695944
     -3.438438     11.901981     11.901981     23.803961
     -3.428428     15.232440     15.232440     30.464880
     -3.418418     18.731096     18.731096     37.462191
     -3.408408     21.707049     21.707049     43.414098
     -3.398398     23.603328     23.603328     47.206656
     -3.388388     24.202820     24.202820     48.405640
     -3.378378     23.728993     23.728993     47.457986
     -3.368368     22.784850     22.784850     45.569701
     -3.358358     22.149229     22.149229     44.298457
     -3.348348     22.515153     22.515153     45.030306
     -3.338338     24.269750     24.269750     48.539500
     -3.328328     27.378503     27.378503     54.757006
     -3.318318     31.385014     31.385014     62.770028
     -3.308308     35.508569     35.508569     71.017138
     -3.298298     38.820320     38.820320     77.640640
     -3.288288     40.477536     40.477536     80.955072
     -3.278278     39.970550     39.970550     79.941100
     -3.268268     37.301017     37.301017     74.602033
     -3.258258     33.003942     33.003942     66.007885
     -3.248248     27.977895     27.977895     55.955790
     -3.238238     23.178731     23.178731     46.357462
     -3.228228     19.305309     19.305309     38.610618
     -3.218218     16.611524     16.611524     33.223048
     -3.208208     14.913813     14.913813     29.827626
     -3.198198     13.768236     13.768236     27.536473
     -3.188188     12.720139     12.720139     25.440277
     -3.178178     11.514295     11.514295     23.028590
     -3.168168     10.191351     10.191351     20.382702
     -3.158158      9.057694      9.057694     18.115388
     -3.148148      8.565601      8.565601     17.131202
     -3.138138      9.158298      9.158298     18.316596
     -3.128128     11.124372     11.124372     22.248744
     -3.118118     14.488234     14.488234     28.976467
     -3.108108     18.955512     18.955512     37.911024
     -3.098098     23.933741     23.933741     47.867482
     -3.088088     28.642830     28.642830     57.285661
     -3.078078     32.302662     32.302662     64.605323
     -3.068068     34.343622     34.343622     68.687243
     -3.058058     34.557971     34.557971     69.115942
     -3.048048     33.123761     33.123761     66.247521
     -3.038038     30.491124     30.491124     60.982248
     -3.028028     27.191759     27.191759     54.383519
     -3.018018     23.670438     23.670438     47.340875
     -3.008008     20.216374     20.216374     40.432749
     -2.997998     17.006898     17.006898     34.013795
     -2.987988     14.210686     14.210686     28.421372
     -2.977978     12.073135     12.073135     24.146270
     -2.967968     10.929607     10.929607     21.859213
     -2.957958     11.138703     11.138703     22.277406
     -2.947948     12.965715     12.965715     25.931431
     -2.937938     16.461472     16.461472     32.922944
     -2.927928     21.379418     21.379418     42.758836
     -2.917918     27.164146     27.164146     54.328291
     -2.907908     33.029907     33.029907     66.059815
     -2.897898     38.123396     38.123396     76.246792
     -2.887888     41.731908     41.731908     83.463817
     -2.877878     43.468954     43.468954     86.937907
     -2.867868     43.363970     43.363970     86.727940
     -2.857858     41.812908     41.812908     83.625815
     -2.847848     39.404210     39.404210     78.808420
     -2.837838     36.693171     36.693171     73.386343
     -2.827828     34.024276     34.024276     68.048551
     -2.817818     31.477728     31.477728     62.955457
     -2.807808     28.952451     28.952451     57.904902
     -2.797798     26.327401     26.327401     52.654803
     -2.787788     23.605675     23.605675     47.211350
     -2.777778     20.962456     20.962456     41.924912
     -2.767768     18.678087     18.678087     37.356174
     -2.757758     17.005642     17.005642     34.011285
     -2.747748     16.058315     16.058315     32.116630
     -2.737738     15.784767     15.784767     31.569534
     -2.727728     16.041021     16.041021     32.082043
     -2.717718     16.702979     16.702979     33.405959
     -2.707708     17.736652     17.736652     35.473304
     -2.697698     19.173829     19.173829     38.347657
     -2.687688     21.010872     21.010872     42.021743
     -2.677678     23.109594     23.109594     46.219188
     -2.667668     25.185619     25.185619     50.371238
     -2.657658     26.911867     26.911867     53.823733
     -2.647648     28.081095     28.081095     56.162190
     -2.637638     28.722581     28.722581     57.445163
     -2.627628     29.092336     29.092336     58.184673
     -2.617618     29.538002     29.538002     59.076004
     -2.607608     30.319583     30.319583     60.639166
     -2.597598     31.488046     31.488046     62.976093
     -2.587588     32.875184     32.875184     65.750368
     -2.577578     34.172816     34.172816     68.345632
     -2.567568     35.036045     35.036045     70.072089
     -2.557558     35.159714     35.159714     70.319427
     -2.547548     34.324443     34.324443     68.648886
     -2.537538     32.439913     32.439913     64.879827
     -2.527528     29.601194     29.601194     59.202388
     -2.517518     26.135200     26.135200     52.270399
     -2.507508     22.589762     22.589762     45.179525
     -2.497497     19.633839     19.633839     39.267678
     -2.487487     17.884770     17.884770     35.769540
     -2.477477     17.723906     17.723906     35.447811
     -2.467467     19.176537     19.176537     38.353074
     -2.457457     21.909366     21.909366     43.818731
     -2.447447     25.351670     25.351670     50.703341
     -2.437437     28.895381     28.895381     57.790762
     -2.427427     32.094108     32.094108     64.188215
     -2.417417     34.777089     34.777089     69.554177
     -2.407407     37.026784     37.026784     74.053567
     -2.397397     39.029134     39.029134     78.058269
     -2.387387     40.868564     40.868564     81.737127
     -2.377377     42.374508     42.374508     84.749017
     -2.367367     43.110182     43.110182     86.220364
     -2.357357     42.527717     42.527717     85.055435
     -2.347347     40.226061     40.226061     80.452123
     -2.337337     36.187009     36.187009     72.374019
     -2.327327     30.869844     30.869844     61.739688
     -2.317317     25.117085     25.117085     50.234171
     -2.307307     19.919535     19.919535     39.839071
     -2.297297     16.149596     16.149596     32.299192
     -2.287287     14.366777     14.366777     28.733554
     -2.277277     14.744067     14.744067     29.488134
     -2.267267     17.102003     17.102003     34.204005
     -2.257257     21.003601     21.003601     42.007201
     -2.247247     25.863639     25.863639     51.727279
     -2.237237     31.043989     31.043989     62.087978
     -2.227227     35.925150     35.925150     71.850300
     -2.217217     39.955871     39.955871     79.911742
     -2.207207     42.689229     42.689229     85.378457
     -2.197197     43.816611     43.816611     87.633222
     -2.187187     43.207845     43.207845     86.415689
     -2.177177     40.952757     40.952757     81.905514
     -2.167167     37.380578     37.380578     74.761156
     -2.157157     33.023494     33.023494     66.046988
     -2.147147     28.505642     28.505642     57.011283
     -2.137137     24.379503     24.379503     48.759006
     -2.127127     20.974328     20.974328     41.948655
     -2.117117     18.331626     18.331626     36.663252
     -2.107107     16.264825     16.264825     32.529650
     -2.097097     14.513211     14.513211     29.026422
     -2.087087     12.907429     12.907429     25.814859
     -2.077077     11.459651     11.459651     22.919301
     -2.067067     10.337011     10.337011     20.674023
     -2.057057      9.741653      9.741653     19.483305
     -2.047047      9.766837      9.766837     19.533675
     -2.037037     10.305054     10.305054     20.610107
     -2.027027     11.053494     11.053494     22.106988
     -2.017017     11.613574     11.613574     23.227148
     -2.007007     11.637463     11.637463     23.274926
     -1.996997     10.955106     10.955106     21.910213
     -1.986987      9.628391      9.628391     19.256781
     -1.976977      7.917644      7.917644     15.835288
     -1.966967      6.187819      6.187819     12.375637
     -1.956957      4.803568      4.803568      9.607136
     -1.946947      4.053824      4.053824      8.107648
     -1.936937      4.117956      4.117956      8.235913
     -1.926927      5.059549      5.059549     10.119098
     -1.916917      6.827120      6.827120     13.654240
     -1.906907      9.253560      9.253560     18.507121
     -1.896897     12.063211     12.063211     24.126423
     -1.886887     14.901674     14.901674     29.803348
     -1.876877     17.394135     17.394135     34.788271
     -1.866867     19.221627     19.221627     38.443254
     -1.856857     20.193278     20.193278     40.386557
     -1.846847     20.291659     20.291659     40.583318
     -1.836837     19.674565     19.674565     39.349130
     -1.826827     18.626168     18.626168     37.252336
     -1.816817     17.464229     17.464229     34.928458
     -1.806807     16.429342     16.429342     32.858683
     -1.796797     15.599410     15.599410     31.198821
     -1.786787     14.872061     14.872061     29.744122
     -1.776777     14.029917     14.029917     28.059834
     -1.766767     12.859926     12.859926     25.719852
     -1.756757     11.266418     11.266418     22.532835
     -1.746747      9.321820      9.321820     18.643639
     -1.736737      7.237122      7.237122     14.474243
     -1.726727      5.279643      5.279643     10.559286
     -1.716717      3.688453      3.688453      7.376906
     -1.706707      2.626849      2.626849      5.253698
     -1.696697      2.179506      2.179506      4.359011
     -1.686687      2.372942      2.372942      4.745885
     -1.676677      3.188918      3.188918      6.377835
     -1.666667      4.553482      4.553482      9.106965
     -1.656657      6.309184      6.309184     12.618367
     -1.646647      8.198456      8.198456     16.396912
     -1.636637      9.888953      9.888953     19.777905
     -1.626627     11.052219     11.052219     22.104438
