# EIG2DOS: Utility for SIESTA to obtain the electronic density of states
#  E. Artacho, Apr 1999, A. Garcia, Apr 2012
#  Nick R. Papior, Feb 2017
# ------------------------------------------
# Eigenvalues calculated from a non-polarized calculation
# Eigenvalues read from siesta.EIG
# Kpoint weights read from siesta.KP
# Using smearing parameter:   0.0500
# Using 1000 points in the energy range
# Selected bands: 1 to: 2981
# Emin, Emax in file for selected band(s):    -27.0600221    218.3178700
# Nbands, Nspin, Nk   =   2981     1     1
# E_F                 =    -4.2898 eV --> (shifted to ZERO)
# Broadening          =     0.0500 eV
#
#        E            N(up)  (=)   N(down)         Ntot
     -5.000000     42.369152     42.369152     84.738304
     -4.989990     43.527493     43.527493     87.054985
     -4.979980     44.110010     44.110010     88.220020
     -4.969970     43.988181     43.988181     87.976362
     -4.959960     43.054035     43.054035     86.108069
     -4.949950     41.292601     41.292601     82.585202
     -4.939940     38.831761     38.831761     77.663523
     -4.929930     35.961993     35.961993     71.923986
     -4.919920     33.130911     33.130911     66.261823
     -4.909910     30.913806     30.913806     61.827612
     -4.899900     29.946789     29.946789     59.893578
     -4.889890     30.800992     30.800992     61.601984
     -4.879880     33.794735     33.794735     67.589470
     -4.869870     38.789820     38.789820     77.579640
     -4.859860     45.070783     45.070783     90.141566
     -4.849850     51.413666     51.413666    102.827332
     -4.839840     56.382444     56.382444    112.764889
     -4.829830     58.769530     58.769530    117.539059
     -4.819820     57.996520     57.996520    115.993041
     -4.809810     54.288261     54.288261    108.576522
     -4.799800     48.542071     48.542071     97.084142
     -4.789790     41.969666     41.969666     83.939332
     -4.779780     35.692394     35.692394     71.384788
     -4.769770     30.462024     30.462024     60.924049
     -4.759760     26.581394     26.581394     53.162787
     -4.749750     23.988433     23.988433     47.976867
     -4.739740     22.410250     22.410250     44.820499
     -4.729730     21.503769     21.503769     43.007539
     -4.719720     20.943462     20.943462     41.886924
     -4.709710     20.456958     20.456958     40.913915
     -4.699700     19.830632     19.830632     39.661265
     -4.689690     18.912463     18.912463     37.824925
     -4.679680     17.633222     17.633222     35.266443
     -4.669670     16.050296     16.050296     32.100592
     -4.659660     14.395942     14.395942     28.791885
     -4.649650     13.096031     13.096031     26.192063
     -4.639640     12.727127     12.727127     25.454254
     -4.629630     13.898862     13.898862     27.797724
     -4.619620     17.076090     17.076090     34.152180
     -4.609610     22.383105     22.383105     44.766209
     -4.599600     29.455344     29.455344     58.910689
     -4.589590     37.413089     37.413089     74.826178
     -4.579580     45.010296     45.010296     90.020591
     -4.569570     50.950816     50.950816    101.901631
     -4.559560     54.281482     54.281482    108.562964
     -4.549550     54.712380     54.712380    109.424760
     -4.539540     52.723557     52.723557    105.447113
     -4.529530     49.401927     49.401927     98.803853
     -4.519520     46.070812     46.070812     92.141623
     -4.509510     43.862935     43.862935     87.725870
     -4.499499     43.400227     43.400227     86.800454
     -4.489489     44.680550     44.680550     89.361100
     -4.479479     47.173120     47.173120     94.346239
     -4.469469     50.044295     50.044295    100.088589
     -4.459459     52.408608     52.408608    104.817216
     -4.449449     53.527086     53.527086    107.054172
     -4.439439     52.927268     52.927268    105.854536
     -4.429429     50.460038     50.460038    100.920077
     -4.419419     46.316316     46.316316     92.632632
     -4.409409     41.007623     41.007623     82.015247
     -4.399399     35.293793     35.293793     70.587585
     -4.389389     30.042834     30.042834     60.085667
     -4.379379     26.037185     26.037185     52.074370
     -4.369369     23.779018     23.779018     47.558036
     -4.359359     23.366717     23.366717     46.733435
     -4.349349     24.496967     24.496967     48.993935
     -4.339339     26.596958     26.596958     53.193916
     -4.329329     29.034649     29.034649     58.069297
     -4.319319     31.322601     31.322601     62.645202
     -4.309309     33.239575     33.239575     66.479151
     -4.299299     34.836539     34.836539     69.673078
     -4.289289     36.343436     36.343436     72.686871
     -4.279279     38.023571     38.023571     76.047141
     -4.269269     40.026167     40.026167     80.052333
     -4.259259     42.277843     42.277843     84.555685
     -4.249249     44.446319     44.446319     88.892639
     -4.239239     46.003021     46.003021     92.006041
     -4.229229     46.387925     46.387925     92.775849
     -4.219219     45.231922     45.231922     90.463844
     -4.209209     42.542351     42.542351     85.084701
     -4.199199     38.750088     38.750088     77.500177
     -4.189189     34.575475     34.575475     69.150950
     -4.179179     30.768326     30.768326     61.536651
     -4.169169     27.850268     27.850268     55.700536
     -4.159159     25.984937     25.984937     51.969874
     -4.149149     25.026294     25.026294     50.052587
     -4.139139     24.698519     24.698519     49.397038
     -4.129129     24.799207     24.799207     49.598414
     -4.119119     25.316499     25.316499     50.632997
     -4.109109     26.400684     26.400684     52.801368
     -4.099099     28.205092     28.205092     56.410185
     -4.089089     30.680802     30.680802     61.361604
     -4.079079     33.445330     33.445330     66.890660
     -4.069069     35.822055     35.822055     71.644111
     -4.059059     37.062817     37.062817     74.125634
     -4.049049     36.659064     36.659064     73.318128
     -4.039039     34.583032     34.583032     69.166063
     -4.029029     31.328671     31.328671     62.657343
     -4.019019     27.731924     27.731924     55.463847
     -4.009009     24.671602     24.671602     49.343204
     -3.998999     22.806258     22.806258     45.612516
     -3.988989     22.458642     22.458642     44.917284
     -3.978979     23.656623     23.656623     47.313246
     -3.968969     26.252462     26.252462     52.504925
     -3.958959     30.025073     30.025073     60.050145
     -3.948949     34.719652     34.719652     69.439304
     -3.938939     40.045885     40.045885     80.091770
     -3.928929     45.685663     45.685663     91.371325
     -3.918919     51.336777     51.336777    102.673555
     -3.908909     56.768858     56.768858    113.537716
     -3.898899     61.838711     61.838711    123.677422
     -3.888889     66.430860     66.430860    132.861720
     -3.878879     70.343440     70.343440    140.686880
     -3.868869     73.190642     73.190642    146.381284
     -3.858859     74.403260     74.403260    148.806520
     -3.848849     73.366583     73.366583    146.733166
     -3.838839     69.659931     69.659931    139.319862
     -3.828829     63.296099     63.296099    126.592199
     -3.818819     54.841998     54.841998    109.683996
     -3.808809     45.347987     45.347987     90.695974
     -3.798799     36.099885     36.099885     72.199771
     -3.788789     28.286566     28.286566     56.573132
     -3.778779     22.706132     22.706132     45.412264
     -3.768769     19.605673     19.605673     39.211347
     -3.758759     18.688078     18.688078     37.376156
     -3.748749     19.260319     19.260319     38.520639
     -3.738739     20.463944     20.463944     40.927887
     -3.728729     21.521507     21.521507     43.043013
     -3.718719     21.941261     21.941261     43.882522
     -3.708709     21.636180     21.636180     43.272360
     -3.698699     20.929627     20.929627     41.859254
     -3.688689     20.441237     20.441237     40.882473
     -3.678679     20.875192     20.875192     41.750385
     -3.668669     22.765733     22.765733     45.531465
     -3.658659     26.259978     26.259978     52.519955
     -3.648649     31.019579     31.019579     62.039157
     -3.638639     36.288369     36.288369     72.576737
     -3.628629     41.108928     41.108928     82.217857
     -3.618619     44.605180     44.605180     89.210359
     -3.608609     46.218937     46.218937     92.437874
     -3.598599     45.816343     45.816343     91.632687
     -3.588589     43.648619     43.648619     87.297237
     -3.578579     40.215904     40.215904     80.431807
     -3.568569     36.105455     36.105455     72.210910
     -3.558559     31.854730     31.854730     63.709461
     -3.548549     27.856893     27.856893     55.713785
     -3.538539     24.310791     24.310791     48.621583
     -3.528529     21.220982     21.220982     42.441964
     -3.518519     18.454077     18.454077     36.908154
     -3.508509     15.840071     15.840071     31.680141
     -3.498498     13.280906     13.280906     26.561813
     -3.488488     10.818268     10.818268     21.636536
     -3.478478      8.631341      8.631341     17.262681
     -3.468468      6.970749      6.970749     13.941498
     -3.458458      6.062153      6.062153     12.124306
     -3.448448      6.017816      6.017816     12.035631
     -3.438438      6.782966      6.782966     13.565932
     -3.428428      8.130645      8.130645     16.261290
     -3.418418      9.710352      9.710352     19.420704
     -3.408408     11.145953     11.145953     22.291905
     -3.398398     12.160419     12.160419     24.320838
     -3.388388     12.684834     12.684834     25.369667
     -3.378378     12.903578     12.903578     25.807156
     -3.368368     13.208598     13.208598     26.417197
     -3.358358     14.075439     14.075439     28.150878
     -3.348348     15.908078     15.908078     31.816155
     -3.338338     18.906501     18.906501     37.813002
     -3.328328     22.989844     22.989844     45.979689
     -3.318318     27.779939     27.779939     55.559877
     -3.308308     32.638666     32.638666     65.277333
     -3.298298     36.760306     36.760306     73.520612
     -3.288288     39.325544     39.325544     78.651088
     -3.278278     39.703803     39.703803     79.407606
     -3.268268     37.648562     37.648562     75.297123
     -3.258258     33.401493     33.401493     66.802985
     -3.248248     27.641798     27.641798     55.283596
     -3.238238     21.286980     21.286980     42.573960
     -3.228228     15.227205     15.227205     30.454410
     -3.218218     10.105316     10.105316     20.210631
     -3.208208      6.220625      6.220625     12.441250
     -3.198198      3.565233      3.565233      7.130466
     -3.188188      1.943789      1.943789      3.887577
     -3.178178      1.110306      1.110306      2.220613
     -3.168168      0.874593      0.874593      1.749185
     -3.158158      1.161510      1.161510      2.323021
     -3.148148      2.026797      2.026797      4.053593
     -3.138138      3.637052      3.637052      7.274105
     -3.128128      6.216590      6.216590     12.433180
     -3.118118      9.962328      9.962328     19.924655
     -3.108108     14.937187     14.937187     29.874373
     -3.098098     20.969892     20.969892     41.939784
     -3.088088     27.603088     27.603088     55.206176
     -3.078078     34.128249     34.128249     68.256499
     -3.068068     39.718497     39.718497     79.436993
     -3.058058     43.627518     43.627518     87.255036
     -3.048048     45.386353     45.386353     90.772707
     -3.038038     44.923120     44.923120     89.846240
     -3.028028     42.561884     42.561884     85.123767
     -3.018018     38.910051     38.910051     77.820102
     -3.008008     34.688291     34.688291     69.376582
     -2.997998     30.569313     30.569313     61.138626
     -2.987988     27.071767     27.071767     54.143535
     -2.977978     24.523078     24.523078     49.046156
     -2.967968     23.080151     23.080151     46.160301
     -2.957958     22.784162     22.784162     45.568323
     -2.947948     23.618478     23.618478     47.236956
     -2.937938     25.536178     25.536178     51.072356
     -2.927928     28.435328     28.435328     56.870656
     -2.917918     32.092317     32.092317     64.184634
     -2.907908     36.101959     36.101959     72.203917
     -2.897898     39.887408     39.887408     79.774816
     -2.887888     42.812761     42.812761     85.625522
     -2.877878     44.368598     44.368598     88.737197
     -2.867868     44.346080     44.346080     88.692160
     -2.857858     42.907587     42.907587     85.815175
     -2.847848     40.510084     40.510084     81.020168
     -2.837838     37.713587     37.713587     75.427174
     -2.827828     34.966740     34.966740     69.933481
     -2.817818     32.471006     32.471006     64.942011
     -2.807808     30.180618     30.180618     60.361235
     -2.797798     27.922975     27.922975     55.845950
     -2.787788     25.563228     25.563228     51.126457
     -2.777778     23.119642     23.119642     46.239284
     -2.767768     20.770738     20.770738     41.541475
     -2.757758     18.760996     18.760996     37.521992
     -2.747748     17.271161     17.271161     34.542322
     -2.737738     16.337319     16.337319     32.674638
     -2.727728     15.868730     15.868730     31.737461
     -2.717718     15.748285     15.748285     31.496570
     -2.707708     15.943193     15.943193     31.886385
     -2.697698     16.544597     16.544597     33.089195
     -2.687688     17.701450     17.701450     35.402900
     -2.677678     19.487253     19.487253     38.974507
     -2.667668     21.789368     21.789368     43.578737
     -2.657658     24.302591     24.302591     48.605182
     -2.647648     26.643423     26.643423     53.286846
     -2.637638     28.520824     28.520824     57.041649
     -2.627628     29.858966     29.858966     59.717932
     -2.617618     30.797761     30.797761     61.595521
     -2.607608     31.577648     31.577648     63.155297
     -2.597598     32.388120     32.388120     64.776239
     -2.587588     33.272055     33.272055     66.544110
     -2.577578     34.125365     34.125365     68.250731
     -2.567568     34.760722     34.760722     69.521444
     -2.557558     34.973526     34.973526     69.947053
     -2.547548     34.576144     34.576144     69.152288
     -2.537538     33.417618     33.417618     66.835236
     -2.527528     31.427008     31.427008     62.854017
     -2.517518     28.688633     28.688633     57.377265
     -2.507508     25.506784     25.506784     51.013568
     -2.497497     22.396356     22.396356     44.792713
     -2.487487     19.967941     19.967941     39.935882
     -2.477477     18.739766     18.739766     37.479532
     -2.467467     18.958829     18.958829     37.917658
     -2.457457     20.517156     20.517156     41.034312
     -2.447447     23.005969     23.005969     46.011938
     -2.437437     25.885860     25.885860     51.771720
     -2.427427     28.697095     28.697095     57.394190
     -2.417417     31.215070     31.215070     62.430141
     -2.407407     33.480014     33.480014     66.960027
     -2.397397     35.687310     35.687310     71.374621
     -2.387387     37.990533     37.990533     75.981067
     -2.377377     40.313899     40.313899     80.627797
     -2.367367     42.272952     42.272952     84.545903
     -2.357357     43.257631     43.257631     86.515261
     -2.347347     42.656681     42.656681     85.313363
     -2.337337     40.130135     40.130135     80.260271
     -2.327327     35.805321     35.805321     71.610641
     -2.317317     30.303237     30.303237     60.606475
     -2.307307     24.582534     24.582534     49.165069
     -2.297297     19.672401     19.672401     39.344802
     -2.287287     16.405819     16.405819     32.811637
     -2.277277     15.244692     15.244692     30.489385
     -2.267267     16.231899     16.231899     32.463798
     -2.257257     19.051667     19.051667     38.103334
     -2.247247     23.152942     23.152942     46.305885
     -2.237237     27.888763     27.888763     55.777526
     -2.227227     32.634356     32.634356     65.268711
     -2.217217     36.860000     36.860000     73.720000
     -2.207207     40.153117     40.153117     80.306233
     -2.197197     42.207279     42.207279     84.414558
     -2.187187     42.812961     42.812961     85.625922
     -2.177177     41.880025     41.880025     83.760049
     -2.167167     39.490921     39.490921     78.981841
     -2.157157     35.944588     35.944588     71.889175
     -2.147147     31.735809     31.735809     63.471618
     -2.137137     27.443235     27.443235     54.886470
     -2.127127     23.558311     23.558311     47.116622
     -2.117117     20.335739     20.335739     40.671479
     -2.107107     17.745067     17.745067     35.490134
     -2.097097     15.548610     15.548610     31.097220
     -2.087087     13.459112     13.459112     26.918224
     -2.077077     11.289885     11.289885     22.579770
     -2.067067      9.025070      9.025070     18.050139
     -2.057057      6.792301      6.792301     13.584602
     -2.047047      4.774527      4.774527      9.549053
     -2.037037      3.119440      3.119440      6.238879
     -2.027027      1.889297      1.889297      3.778594
     -2.017017      1.060557      1.060557      2.121115
     -2.007007      0.556261      0.556261      1.112523
     -1.996997      0.286455      0.286455      0.572910
     -1.986987      0.179745      0.179745      0.359491
     -1.976977      0.201301      0.201301      0.402602
     -1.966967      0.360312      0.360312      0.720624
     -1.956957      0.710476      0.710476      1.420951
     -1.946947      1.343073      1.343073      2.686146
     -1.936937      2.368497      2.368497      4.736995
     -1.926927      3.883107      3.883107      7.766215
     -1.916917      5.925381      5.925381     11.850761
     -1.906907      8.435327      8.435327     16.870654
     -1.896897     11.236704     11.236704     22.473408
     -1.886887     14.056410     14.056410     28.112820
     -1.876877     16.580091     16.580091     33.160182
     -1.866867     18.526419     18.526419     37.052838
     -1.856857     19.715159     19.715159     39.430319
     -1.846847     20.108725     20.108725     40.217450
     -1.836837     19.816749     19.816749     39.633497
     -1.826827     19.061000     19.061000     38.122000
     -1.816817     18.104799     18.104799     36.209597
     -1.806807     17.163148     17.163148     34.326297
     -1.796797     16.326032     16.326032     32.652064
     -1.786787     15.533941     15.533941     31.067881
     -1.776777     14.627246     14.627246     29.254491
     -1.766767     13.452596     13.452596     26.905191
     -1.756757     11.974064     11.974064     23.948129
     -1.746747     10.330582     10.330582     20.661163
     -1.736737      8.809767      8.809767     17.619534
     -1.726727      7.751962      7.751962     15.503923
     -1.716717      7.429550      7.429550     14.859099
     -1.706707      7.951700      7.951700     15.903400
     -1.696697      9.228307      9.228307     18.456614
     -1.686687     11.001793     11.001793     22.003586
     -1.676677     12.930597     12.930597     25.861193
     -1.666667     14.688870     14.688870     29.377740
     -1.656657     16.040499     16.040499     32.080998
     -1.646647     16.859673     16.859673     33.719347
     -1.636637     17.102192     17.102192     34.204384
     -1.626627     16.762679     16.762679     33.525357
