# EIG2DOS: Utility for SIESTA to obtain the electronic density of states
#  E. Artacho, Apr 1999, A. Garcia, Apr 2012
#  Nick R. Papior, Feb 2017
# ------------------------------------------
# Eigenvalues calculated from a non-polarized calculation
# Eigenvalues read from siesta.EIG
# Kpoint weights read from siesta.KP
# Using smearing parameter:   0.0500
# Using 1000 points in the energy range
# Selected bands: 1 to: 2981
# Emin, Emax in file for selected band(s):    -27.3737459    218.4016410
# Nbands, Nspin, Nk   =   2981     1     1
# E_F                 =    -4.1995 eV --> (shifted to ZERO)
# Broadening          =     0.0500 eV
#
#        E            N(up)  (=)   N(down)         Ntot
     -5.000000     35.040605     35.040605     70.081211
     -4.989990     39.773186     39.773186     79.546371
     -4.979980     43.679281     43.679281     87.358563
     -4.969970     46.059796     46.059796     92.119593
     -4.959960     46.484593     46.484593     92.969187
     -4.949950     44.936440     44.936440     89.872880
     -4.939940     41.820661     41.820661     83.641323
     -4.929930     37.859759     37.859759     75.719518
     -4.919920     33.935501     33.935501     67.871002
     -4.909910     30.934347     30.934347     61.868694
     -4.899900     29.612098     29.612098     59.224195
     -4.889890     30.462467     30.462467     60.924934
     -4.879880     33.583604     33.583604     67.167208
     -4.869870     38.579593     38.579593     77.159186
     -4.859860     44.568630     44.568630     89.137259
     -4.849850     50.353430     50.353430    100.706860
     -4.839840     54.737325     54.737325    109.474650
     -4.829830     56.882049     56.882049    113.764098
     -4.819820     56.559338     56.559338    113.118675
     -4.809810     54.182671     54.182671    108.365341
     -4.799800     50.603720     50.603720    101.207440
     -4.789790     46.766649     46.766649     93.533298
     -4.779780     43.373649     43.373649     86.747297
     -4.769770     40.697912     40.697912     81.395824
     -4.759760     38.600228     38.600228     77.200457
     -4.749750     36.707966     36.707966     73.415933
     -4.739740     34.649234     34.649234     69.298469
     -4.729730     32.227485     32.227485     64.454971
     -4.719720     29.469110     29.469110     58.938220
     -4.709710     26.550174     26.550174     53.100347
     -4.699700     23.670212     23.670212     47.340423
     -4.689690     20.960244     20.960244     41.920488
     -4.679680     18.481014     18.481014     36.962029
     -4.669670     16.305952     16.305952     32.611905
     -4.659660     14.628661     14.628661     29.257323
     -4.649650     13.817413     13.817413     27.634826
     -4.639640     14.364886     14.364886     28.729773
     -4.629630     16.732086     16.732086     33.464173
     -4.619620     21.136101     21.136101     42.272202
     -4.609610     27.364654     27.364654     54.729307
     -4.599600     34.706425     34.706425     69.412849
     -4.589590     42.057398     42.057398     84.114797
     -4.579580     48.199414     48.199414     96.398827
     -4.569570     52.166691     52.166691    104.333382
     -4.559560     53.559362     53.559362    107.118725
     -4.549550     52.668943     52.668943    105.337886
     -4.539540     50.355781     50.355781    100.711562
     -4.529530     47.726483     47.726483     95.452965
     -4.519520     45.743482     45.743482     91.486965
     -4.509510     44.919036     44.919036     89.838072
     -4.499499     45.199302     45.199302     90.398604
     -4.489489     46.059722     46.059722     92.119444
     -4.479479     46.750563     46.750563     93.501127
     -4.469469     46.583256     46.583256     93.166511
     -4.459459     45.148689     45.148689     90.297377
     -4.449449     42.402393     42.402393     84.804785
     -4.439439     38.616096     38.616096     77.232191
     -4.429429     34.249869     34.249869     68.499739
     -4.419419     29.818583     29.818583     59.637167
     -4.409409     25.804069     25.804069     51.608139
     -4.399399     22.618076     22.618076     45.236152
     -4.389389     20.583703     20.583703     41.167406
     -4.379379     19.900678     19.900678     39.801357
     -4.369369     20.591699     20.591699     41.183398
     -4.359359     22.464864     22.464864     44.929728
     -4.349349     25.137386     25.137386     50.274771
     -4.339339     28.136719     28.136719     56.273439
     -4.329329     31.046827     31.046827     62.093653
     -4.319319     33.634362     33.634362     67.268725
     -4.309309     35.894751     35.894751     71.789502
     -4.299299     37.996351     37.996351     75.992702
     -4.289289     40.147153     40.147153     80.294307
     -4.279279     42.439169     42.439169     84.878339
     -4.269269     44.733003     44.733003     89.466007
     -4.259259     46.633648     46.633648     93.267296
     -4.249249     47.582482     47.582482     95.164964
     -4.239239     47.049897     47.049897     94.099795
     -4.229229     44.764524     44.764524     89.529049
     -4.219219     40.881036     40.881036     81.762072
     -4.209209     35.997674     35.997674     71.995348
     -4.199199     30.995934     30.995934     61.991868
     -4.189189     26.761329     26.761329     53.522658
     -4.179179     23.905956     23.905956     47.811911
     -4.169169     22.613157     22.613157     45.226313
     -4.159159     22.662865     22.662865     45.325730
     -4.149149     23.609569     23.609569     47.219138
     -4.139139     25.017907     25.017907     50.035814
     -4.129129     26.641538     26.641538     53.283075
     -4.119119     28.462639     28.462639     56.925278
     -4.109109     30.577548     30.577548     61.155096
     -4.099099     32.992823     32.992823     65.985647
     -4.089089     35.451101     35.451101     70.902201
     -4.079079     37.403848     37.403848     74.807696
     -4.069069     38.176706     38.176706     76.353412
     -4.059059     37.262572     37.262572     74.525145
     -4.049049     34.593178     34.593178     69.186357
     -4.039039     30.640323     30.640323     61.280646
     -4.029029     26.288759     26.288759     52.577518
     -4.019019     22.546683     22.546683     45.093366
     -4.009009     20.238020     20.238020     40.476040
     -3.998999     19.809981     19.809981     39.619962
     -3.988989     21.308679     21.308679     42.617358
     -3.978979     24.484356     24.484356     48.968712
     -3.968969     28.940430     28.940430     57.880860
     -3.958959     34.253219     34.253219     68.506438
     -3.948949     40.037146     40.037146     80.074292
     -3.938939     45.971736     45.971736     91.943472
     -3.928929     51.814207     51.814207    103.628415
     -3.918919     57.400044     57.400044    114.800088
     -3.908909     62.613550     62.613550    125.227099
     -3.898899     67.317726     67.317726    134.635452
     -3.888889     71.266328     71.266328    142.532656
     -3.878879     74.051910     74.051910    148.103820
     -3.868869     75.141942     75.141942    150.283885
     -3.858859     74.015278     74.015278    148.030556
     -3.848849     70.356698     70.356698    140.713397
     -3.838839     64.230878     64.230878    128.461755
     -3.828829     56.158757     56.158757    112.317514
     -3.818819     47.056180     47.056180     94.112359
     -3.808809     38.047260     38.047260     76.094519
     -3.798799     30.210027     30.210027     60.420054
     -3.788789     24.332883     24.332883     48.665765
     -3.778779     20.752729     20.752729     41.505458
     -3.768769     19.316054     19.316054     38.632108
     -3.758759     19.466028     19.466028     38.932056
     -3.748749     20.424947     20.424947     40.849895
     -3.738739     21.420324     21.420324     42.840647
     -3.728729     21.896610     21.896610     43.793219
     -3.718719     21.660723     21.660723     43.321446
     -3.708709     20.924783     20.924783     41.849565
     -3.698699     20.231476     20.231476     40.462951
     -3.688689     20.275039     20.275039     40.550079
     -3.678679     21.661408     21.661408     43.322816
     -3.668669     24.677388     24.677388     49.354775
     -3.658659     29.148114     29.148114     58.296228
     -3.648649     34.442187     34.442187     68.884374
     -3.638639     39.633307     39.633307     79.266613
     -3.628629     43.763628     43.763628     87.527257
     -3.618619     46.109562     46.109562     92.219123
     -3.608609     46.352760     46.352760     92.705519
     -3.598599     44.608137     44.608137     89.216275
     -3.588589     41.326607     41.326607     82.653213
     -3.578579     37.133156     37.133156     74.266311
     -3.568569     32.662594     32.662594     65.325188
     -3.558559     28.430323     28.430323     56.860647
     -3.548549     24.752832     24.752832     49.505663
     -3.538539     21.726212     21.726212     43.452425
     -3.528529     19.269696     19.269696     38.539392
     -3.518519     17.226560     17.226560     34.453120
     -3.508509     15.486217     15.486217     30.972434
     -3.498498     14.070417     14.070417     28.140833
     -3.488488     13.136523     13.136523     26.273045
     -3.478478     12.892580     12.892580     25.785161
     -3.468468     13.467381     13.467381     26.934761
     -3.458458     14.802990     14.802990     29.605980
     -3.448448     16.623683     16.623683     33.247365
     -3.438438     18.495550     18.495550     36.991100
     -3.428428     19.950520     19.950520     39.901040
     -3.418418     20.627192     20.627192     41.254383
     -3.408408     20.382721     20.382721     40.765441
     -3.398398     19.345738     19.345738     38.691476
     -3.388388     17.898860     17.898860     35.797720
     -3.378378     16.595902     16.595902     33.191805
     -3.368368     16.033676     16.033676     32.067351
     -3.358358     16.709662     16.709662     33.419323
     -3.348348     18.899698     18.899698     37.799396
     -3.338338     22.581139     22.581139     45.162279
     -3.328328     27.412603     27.412603     54.825206
     -3.318318     32.771988     32.771988     65.543976
     -3.308308     37.853204     37.853204     75.706408
     -3.298298     41.818419     41.818419     83.636837
     -3.288288     43.983654     43.983654     87.967309
     -3.278278     43.985682     43.985682     87.971364
     -3.268268     41.863661     41.863661     83.727323
     -3.258258     38.014982     38.014982     76.029964
     -3.248248     33.044925     33.044925     66.089850
     -3.238238     27.583740     27.583740     55.167481
     -3.228228     22.151978     22.151978     44.303956
     -3.218218     17.112316     17.112316     34.224632
     -3.208208     12.690411     12.690411     25.380821
     -3.198198      9.019893      9.019893     18.039787
     -3.188188      6.178413      6.178413     12.356826
     -3.178178      4.210242      4.210242      8.420484
     -3.168168      3.147420      3.147420      6.294841
     -3.158158      3.035182      3.035182      6.070364
     -3.148148      3.949734      3.949734      7.899467
     -3.138138      5.985801      5.985801     11.971601
     -3.128128      9.199133      9.199133     18.398267
     -3.118118     13.513943     13.513943     27.027886
     -3.108108     18.634649     18.634649     37.269299
     -3.098098     24.017067     24.017067     48.034134
     -3.088088     28.940480     28.940480     57.880961
     -3.078078     32.677337     32.677337     65.354674
     -3.068068     34.701110     34.701110     69.402220
     -3.058058     34.839782     34.839782     69.679563
     -3.048048     33.299819     33.299819     66.599637
     -3.038038     30.550518     30.550518     61.101035
     -3.028028     27.133682     27.133682     54.267364
     -3.018018     23.500101     23.500101     47.000201
     -3.008008     19.948378     19.948378     39.896757
     -2.997998     16.673019     16.673019     33.346038
     -2.987988     13.865099     13.865099     27.730199
     -2.977978     11.789131     11.789131     23.578263
     -2.967968     10.786842     10.786842     21.573684
     -2.957958     11.204968     11.204968     22.409937
     -2.947948     13.279057     13.279057     26.558114
     -2.937938     17.017406     17.017406     34.034812
     -2.927928     22.126011     22.126011     44.252022
     -2.917918     28.006446     28.006446     56.012892
     -2.907908     33.844248     33.844248     67.688496
     -2.897898     38.780341     38.780341     77.560683
     -2.887888     42.123747     42.123747     84.247494
     -2.877878     43.534744     43.534744     87.069487
     -2.867868     43.104093     43.104093     86.208186
     -2.857858     41.287361     41.287361     82.574722
     -2.847848     38.714394     38.714394     77.428788
     -2.837838     35.953637     35.953637     71.907275
     -2.827828     33.335331     33.335331     66.670661
     -2.817818     30.909018     30.909018     61.818036
     -2.807808     28.541506     28.541506     57.083012
     -2.797798     26.088973     26.088973     52.177946
     -2.787788     23.542604     23.542604     47.085208
     -2.777778     21.070190     21.070190     42.140380
     -2.767768     18.941988     18.941988     37.883976
     -2.757758     17.397807     17.397807     34.795614
     -2.747748     16.542713     16.542713     33.085425
     -2.737738     16.333228     16.333228     32.666456
     -2.727728     16.651539     16.651539     33.303078
     -2.717718     17.404472     17.404472     34.808945
     -2.707708     18.568701     18.568701     37.137401
     -2.697698     20.146219     20.146219     40.292439
     -2.687688     22.066097     22.066097     44.132195
     -2.677678     24.117178     24.117178     48.234356
     -2.667668     25.982234     25.982234     51.964468
     -2.657658     27.372525     27.372525     54.745050
     -2.647648     28.183259     28.183259     56.366519
     -2.637638     28.564876     28.564876     57.129752
     -2.627628     28.854781     28.854781     57.709563
     -2.617618     29.404882     29.404882     58.809764
     -2.607608     30.405776     30.405776     60.811553
     -2.597598     31.802723     31.802723     63.605445
     -2.587588     33.331025     33.331025     66.662051
     -2.577578     34.624602     34.624602     69.249205
     -2.567568     35.325414     35.325414     70.650828
     -2.557558     35.152669     35.152669     70.305338
     -2.547548     33.941211     33.941211     67.882421
     -2.537538     31.680120     31.680120     63.360240
     -2.527528     28.560125     28.560125     57.120251
     -2.517518     24.999277     24.999277     49.998555
     -2.507508     21.601552     21.601552     43.203103
     -2.497497     19.029810     19.029810     38.059620
     -2.487487     17.824243     17.824243     35.648486
     -2.477477     18.235243     18.235243     36.470487
     -2.467467     20.142261     20.142261     40.284522
     -2.457457     23.097769     23.097769     46.195539
     -2.447447     26.484834     26.484834     52.969668
     -2.437437     29.729417     29.729417     59.458835
     -2.427427     32.482986     32.482986     64.965971
     -2.417417     34.698699     34.698699     69.397398
     -2.407407     36.565708     36.565708     73.131416
     -2.397397     38.327328     38.327328     76.654656
     -2.387387     40.065749     40.065749     80.131499
     -2.377377     41.561435     41.561435     83.122871
     -2.367367     42.310912     42.310912     84.621824
     -2.357357     41.714547     41.714547     83.429093
     -2.347347     39.356717     39.356717     78.713433
     -2.337337     35.244167     35.244167     70.488335
     -2.327327     29.883305     29.883305     59.766609
     -2.317317     24.159770     24.159770     48.319539
     -2.307307     19.083411     19.083411     38.166822
     -2.297297     15.517110     15.517110     31.034220
     -2.287287     13.992002     13.992002     27.984004
     -2.277277     14.648379     14.648379     29.296758
     -2.267267     17.279431     17.279431     34.558862
     -2.257257     21.427378     21.427378     42.854756
     -2.247247     26.488606     26.488606     52.977212
     -2.237237     31.805563     31.805563     63.611125
     -2.227227     36.740027     36.740027     73.480054
     -2.217217     40.730366     40.730366     81.460732
     -2.207207     43.338895     43.338895     86.677790
     -2.197197     44.297146     44.297146     88.594292
     -2.187187     43.553200     43.553200     87.106399
     -2.177177     41.311651     41.311651     82.623301
     -2.167167     38.037709     38.037709     76.075417
     -2.157157     34.388959     34.388959     68.777918
     -2.147147     31.059108     31.059108     62.118216
     -2.137137     28.567091     28.567091     57.134182
     -2.127127     27.074575     27.074575     54.149149
     -2.117117     26.325796     26.325796     52.651593
     -2.107107     25.756251     25.756251     51.512503
     -2.097097     24.731958     24.731958     49.463917
     -2.087087     22.810243     22.810243     45.620487
     -2.077077     19.902099     19.902099     39.804199
     -2.067067     16.272101     16.272101     32.544202
     -2.057057     12.397957     12.397957     24.795914
     -2.047047      8.775067      8.775067     17.550135
     -2.037037      5.759597      5.759597     11.519193
     -2.027027      3.503056      3.503056      7.006112
     -2.017017      1.975989      1.975989      3.951977
     -2.007007      1.041664      1.041664      2.083327
     -1.996997      0.535388      0.535388      1.070775
     -1.986987      0.321942      0.321942      0.643884
     -1.976977      0.324909      0.324909      0.649818
     -1.966967      0.534253      0.534253      1.068507
     -1.956957      0.999800      0.999800      1.999600
     -1.946947      1.813195      1.813195      3.626389
     -1.936937      3.076942      3.076942      6.153885
     -1.926927      4.861262      4.861262      9.722524
     -1.916917      7.157662      7.157662     14.315324
     -1.906907      9.846551      9.846551     19.693103
     -1.896897     12.696885     12.696885     25.393770
     -1.886887     15.405027     15.405027     30.810054
     -1.876877     17.662779     17.662779     35.325557
     -1.866867     19.231741     19.231741     38.463482
     -1.856857     20.000278     20.000278     40.000555
     -1.846847     20.007631     20.007631     40.015263
     -1.836837     19.428879     19.428879     38.857758
     -1.826827     18.520837     18.520837     37.041675
     -1.816817     17.537840     17.537840     35.075680
     -1.806807     16.641603     16.641603     33.283206
     -1.796797     15.843251     15.843251     31.686501
     -1.786787     15.011295     15.011295     30.022589
     -1.776777     13.949580     13.949580     27.899160
     -1.766767     12.508878     12.508878     25.017755
     -1.756757     10.673892     10.673892     21.347785
     -1.746747      8.582039      8.582039     17.164077
     -1.736737      6.471932      6.471932     12.943865
     -1.726727      4.598598      4.598598      9.197196
     -1.716717      3.163461      3.163461      6.326922
     -1.706707      2.287535      2.287535      4.575070
     -1.696697      2.023688      2.023688      4.047376
     -1.686687      2.380993      2.380993      4.761986
     -1.676677      3.332747      3.332747      6.665495
     -1.666667      4.797488      4.797488      9.594976
     -1.656657      6.607091      6.607091     13.214183
     -1.646647      8.493005      8.493005     16.986010
     -1.636637     10.119504     10.119504     20.239008
     -1.626627     11.169928     11.169928     22.339856
