# EIG2DOS: Utility for SIESTA to obtain the electronic density of states
#  E. Artacho, Apr 1999, A. Garcia, Apr 2012
#  Nick R. Papior, Feb 2017
# ------------------------------------------
# Eigenvalues calculated from a non-polarized calculation
# Eigenvalues read from siesta.EIG
# Kpoint weights read from siesta.KP
# Using smearing parameter:   0.0500
# Using 1000 points in the energy range
# Selected bands: 1 to: 2981
# Emin, Emax in file for selected band(s):    -27.0409877    218.3052090
# Nbands, Nspin, Nk   =   2981     1     1
# E_F                 =    -4.3060 eV --> (shifted to ZERO)
# Broadening          =     0.0500 eV
#
#        E            N(up)  (=)   N(down)         Ntot
     -5.000000     45.864604     45.864604     91.729207
     -4.989990     49.237576     49.237576     98.475152
     -4.979980     51.002755     51.002755    102.005511
     -4.969970     51.041599     51.041599    102.083197
     -4.959960     49.485754     49.485754     98.971508
     -4.949950     46.661314     46.661314     93.322627
     -4.939940     43.010254     43.010254     86.020508
     -4.929930     39.030128     39.030128     78.060256
     -4.919920     35.251594     35.251594     70.503189
     -4.909910     32.240609     32.240609     64.481218
     -4.899900     30.585331     30.585331     61.170663
     -4.889890     30.821890     30.821890     61.643779
     -4.879880     33.278926     33.278926     66.557852
     -4.869870     37.877243     37.877243     75.754486
     -4.859860     43.982135     43.982135     87.964269
     -4.849850     50.426000     50.426000    100.852000
     -4.839840     55.762181     55.762181    111.524361
     -4.829830     58.691278     58.691278    117.382557
     -4.819820     58.487598     58.487598    116.975196
     -4.809810     55.227477     55.227477    110.454953
     -4.799800     49.712984     49.712984     99.425967
     -4.789790     43.141080     43.141080     86.282159
     -4.779780     36.689356     36.689356     73.378711
     -4.769770     31.202285     31.202285     62.404571
     -4.759760     27.073769     27.073769     54.147538
     -4.749750     24.305609     24.305609     48.611219
     -4.739740     22.652357     22.652357     45.304714
     -4.729730     21.764368     21.764368     43.528736
     -4.719720     21.284169     21.284169     42.568339
     -4.709710     20.894354     20.894354     41.788709
     -4.699700     20.337175     20.337175     40.674351
     -4.689690     19.429268     19.429268     38.858535
     -4.679680     18.087646     18.087646     36.175291
     -4.669670     16.369218     16.369218     32.738437
     -4.659660     14.509163     14.509163     29.018326
     -4.649650     12.931905     12.931905     25.863811
     -4.639640     12.209858     12.209858     24.419716
     -4.629630     12.958963     12.958963     25.917926
     -4.619620     15.679825     15.679825     31.359650
     -4.609610     20.574336     20.574336     41.148673
     -4.599600     27.389694     27.389694     54.779388
     -4.589590     35.358360     35.358360     70.716721
     -4.579580     43.296347     43.296347     86.592694
     -4.569570     49.875977     49.875977     99.751954
     -4.559560     54.009570     54.009570    108.019140
     -4.549550     55.206564     55.206564    110.413127
     -4.539540     53.749654     53.749654    107.499309
     -4.529530     50.599415     50.599415    101.198829
     -4.519520     47.055051     47.055051     94.110102
     -4.509510     44.308496     44.308496     88.616992
     -4.499499     43.071201     43.071201     86.142402
     -4.489489     43.409715     43.409715     86.819430
     -4.479479     44.826432     44.826432     89.652863
     -4.469469     46.519668     46.519668     93.039336
     -4.459459     47.698648     47.698648     95.397295
     -4.449449     47.831173     47.831173     95.662347
     -4.439439     46.751671     46.751671     93.503342
     -4.429429     44.625260     44.625260     89.250520
     -4.419419     41.819391     41.819391     83.638783
     -4.409409     38.758085     38.758085     77.516170
     -4.399399     35.819436     35.819436     71.638872
     -4.389389     33.296287     33.296287     66.592575
     -4.379379     31.397942     31.397942     62.795884
     -4.369369     30.253629     30.253629     60.507258
     -4.359359     29.895567     29.895567     59.791134
     -4.349349     30.234552     30.234552     60.469105
     -4.339339     31.063340     31.063340     62.126681
     -4.329329     32.112320     32.112320     64.224641
     -4.319319     33.145780     33.145780     66.291560
     -4.309309     34.054545     34.054545     68.109089
     -4.299299     34.896950     34.896950     69.793899
     -4.289289     35.865440     35.865440     71.730880
     -4.279279     37.189980     37.189980     74.379961
     -4.269269     39.012013     39.012013     78.024025
     -4.259259     41.270924     41.270924     82.541848
     -4.249249     43.646581     43.646581     87.293162
     -4.239239     45.596696     45.596696     91.193391
     -4.229229     46.504140     46.504140     93.008281
     -4.219219     45.899655     45.899655     91.799309
     -4.209209     43.670035     43.670035     87.340069
     -4.199199     40.143578     40.143578     80.287155
     -4.189189     35.992788     35.992788     71.985575
     -4.179179     31.990561     31.990561     63.981122
     -4.169169     28.739246     28.739246     57.478491
     -4.159159     26.505053     26.505053     53.010107
     -4.149149     25.225884     25.225884     50.451768
     -4.139139     24.664073     24.664073     49.328146
     -4.129129     24.605819     24.605819     49.211637
     -4.119119     24.997525     24.997525     49.995050
     -4.109109     25.950212     25.950212     51.900425
     -4.099099     27.611352     27.611352     55.222705
     -4.089089     29.971995     29.971995     59.943990
     -4.079079     32.719501     32.719501     65.439003
     -4.069069     35.237663     35.237663     70.475326
     -4.059059     36.787408     36.787408     73.574817
     -4.049049     36.799373     36.799373     73.598746
     -4.039039     35.133782     35.133782     70.267564
     -4.029029     32.168516     32.168516     64.337032
     -4.019019     28.668029     28.668029     57.336057
     -4.009009     25.507411     25.507411     51.014823
     -3.998999     23.397641     23.397641     46.795281
     -3.988989     22.736135     22.736135     45.472271
     -3.978979     23.614559     23.614559     47.229118
     -3.968969     25.922603     25.922603     51.845206
     -3.958959     29.453554     29.453554     58.907107
     -3.948949     33.954972     33.954972     67.909945
     -3.938939     39.133946     39.133946     78.267891
     -3.928929     44.664863     44.664863     89.329726
     -3.918919     50.232472     50.232472    100.464944
     -3.908909     55.594277     55.594277    111.188555
     -3.898899     60.610002     60.610002    121.220003
     -3.888889     65.194778     65.194778    130.389555
     -3.878879     69.203506     69.203506    138.407013
     -3.868869     72.311416     72.311416    144.622833
     -3.858859     73.979507     73.979507    147.959014
     -3.848849     73.562343     73.562343    147.124686
     -3.838839     70.541403     70.541403    141.082806
     -3.828829     64.789637     64.789637    129.579274
     -3.818819     56.738866     56.738866    113.477733
     -3.808809     47.356068     47.356068     94.712136
     -3.798799     37.921719     37.921719     75.843437
     -3.788789     29.694111     29.694111     59.388223
     -3.778779     23.588138     23.588138     47.176275
     -3.768769     19.977633     19.977633     39.955266
     -3.758759     18.668591     18.668591     37.337181
     -3.748749     19.025710     19.025710     38.051421
     -3.738739     20.195029     20.195029     40.390057
     -3.728729     21.355049     21.355049     42.710099
     -3.718719     21.936302     21.936302     43.872603
     -3.708709     21.762489     21.762489     43.524977
     -3.698699     21.081506     21.081506     42.163012
     -3.688689     20.474313     20.474313     40.948627
     -3.678679     20.657176     20.657176     41.314353
     -3.668669     22.226130     22.226130     44.452260
     -3.658659     25.421468     25.421468     50.842936
     -3.648649     29.998131     29.998131     59.996263
     -3.638639     35.260608     35.260608     70.521215
     -3.628629     40.259394     40.259394     80.518788
     -3.618619     44.075226     44.075226     88.150451
     -3.608609     46.076823     46.076823     92.153645
     -3.598599     46.055590     46.055590     92.111181
     -3.588589     44.207232     44.207232     88.414464
     -3.578579     41.002154     41.002154     82.004308
     -3.568569     37.019469     37.019469     74.038939
     -3.558559     32.803585     32.803585     65.607170
     -3.548549     28.765947     28.765947     57.531895
     -3.538539     25.132482     25.132482     50.264964
     -3.528529     21.938106     21.938106     43.876213
     -3.518519     19.073860     19.073860     38.147720
     -3.508509     16.379696     16.379696     32.759392
     -3.498498     13.750880     13.750880     27.501760
     -3.488488     11.211764     11.211764     22.423529
     -3.478478      8.924231      8.924231     17.848462
     -3.468468      7.131380      7.131380     14.262760
     -3.458458      6.066142      6.066142     12.132285
     -3.448448      5.862423      5.862423     11.724846
     -3.438438      6.496434      6.496434     12.992868
     -3.428428      7.772711      7.772711     15.545422
     -3.418418      9.361328      9.361328     18.722657
     -3.408408     10.884971     10.884971     21.769942
     -3.398398     12.038542     12.038542     24.077083
     -3.388388     12.702883     12.702883     25.405766
     -3.378378     13.004138     13.004138     26.008276
     -3.368368     13.286049     13.286049     26.572099
     -3.358358     14.000696     14.000696     28.001392
     -3.348348     15.560729     15.560729     31.121458
     -3.338338     18.207844     18.207844     36.415687
     -3.328328     21.932594     21.932594     43.865187
     -3.318318     26.449532     26.449532     52.899063
     -3.308308     31.216789     31.216789     62.433579
     -3.298298     35.499402     35.499402     70.998805
     -3.288288     38.490655     38.490655     76.981311
     -3.278278     39.495146     39.495146     78.990291
     -3.268268     38.134556     38.134556     76.269111
     -3.258258     34.493803     34.493803     68.987606
     -3.248248     29.126211     29.126211     58.252422
     -3.238238     22.896235     22.896235     45.792471
     -3.228228     16.722096     16.722096     33.444192
     -3.218218     11.330522     11.330522     22.661045
     -3.208208      7.119457      7.119457     14.238914
     -3.198198      4.159193      4.159193      8.318385
     -3.188188      2.295608      2.295608      4.591215
     -3.178178      1.288739      1.288739      2.577478
     -3.168168      0.930545      0.930545      1.861089
     -3.158158      1.115738      1.115738      2.231475
     -3.148148      1.864229      1.864229      3.728458
     -3.138138      3.302432      3.302432      6.604864
     -3.128128      5.608853      5.608853     11.217705
     -3.118118      8.929403      8.929403     17.858805
     -3.108108     13.277774     13.277774     26.555548
     -3.098098     18.453181     18.453181     36.906362
     -3.088088     24.018242     24.018242     48.036484
     -3.078078     29.368031     29.368031     58.736061
     -3.068068     33.882584     33.882584     67.765169
     -3.058058     37.105474     37.105474     74.210948
     -3.048048     38.862984     38.862984     77.725968
     -3.038038     39.260048     39.260048     78.520096
     -3.028028     38.557942     38.557942     77.115883
     -3.018018     37.013964     37.013964     74.027929
     -3.008008     34.790207     34.790207     69.580413
     -2.997998     31.991244     31.991244     63.982488
     -2.987988     28.798540     28.798540     57.597079
     -2.977978     25.597898     25.597898     51.195796
     -2.967968     22.996205     22.996205     45.992409
     -2.957958     21.691948     21.691948     43.383895
     -2.947948     22.250577     22.250577     44.501154
     -2.937938     24.886034     24.886034     49.772067
     -2.927928     29.342552     29.342552     58.685103
     -2.917918     34.922605     34.922605     69.845210
     -2.907908     40.649389     40.649389     81.298779
     -2.897898     45.509349     45.509349     91.018698
     -2.887888     48.700694     48.700694     97.401388
     -2.877878     49.816624     49.816624     99.633248
     -2.867868     48.912754     48.912754     97.825508
     -2.857858     46.442062     46.442062     92.884123
     -2.847848     43.080495     43.080495     86.160991
     -2.837838     39.502253     39.502253     79.004507
     -2.827828     36.182932     36.182932     72.365865
     -2.817818     33.300375     33.300375     66.600749
     -2.807808     30.765035     30.765035     61.530071
     -2.797798     28.356511     28.356511     56.713021
     -2.787788     25.895244     25.895244     51.790489
     -2.777778     23.363694     23.363694     46.727387
     -2.767768     20.920045     20.920045     41.840091
     -2.757758     18.807072     18.807072     37.614144
     -2.747748     17.217043     17.217043     34.434087
     -2.737738     16.197050     16.197050     32.394099
     -2.727728     15.652228     15.652228     31.304455
     -2.717718     15.441664     15.441664     30.883328
     -2.707708     15.501027     15.501027     31.002055
     -2.697698     15.906410     15.906410     31.812820
     -2.687688     16.830127     16.830127     33.660255
     -2.677678     18.410263     18.410263     36.820527
     -2.667668     20.616140     20.616140     41.232279
     -2.657658     23.200733     23.200733     46.401467
     -2.647648     25.779454     25.779454     51.558908
     -2.637638     27.994022     27.994022     55.988044
     -2.627628     29.663863     29.663863     59.327726
     -2.617618     30.835173     30.835173     61.670347
     -2.607608     31.705689     31.705689     63.411377
     -2.597598     32.483053     32.483053     64.966106
     -2.587588     33.268745     33.268745     66.537490
     -2.577578     34.025890     34.025890     68.051779
     -2.567568     34.620544     34.620544     69.241089
     -2.557558     34.881163     34.881163     69.762327
     -2.547548     34.633331     34.633331     69.266663
     -2.537538     33.715723     33.715723     67.431446
     -2.527528     32.015448     32.015448     64.030895
     -2.517518     29.542731     29.542731     59.085463
     -2.507508     26.513391     26.513391     53.026782
     -2.497497     23.372985     23.372985     46.745970
     -2.487487     20.714651     20.714651     41.429303
     -2.477477     19.103903     19.103903     38.207807
     -2.467467     18.884327     18.884327     37.768655
     -2.457457     20.057333     20.057333     40.114667
     -2.447447     22.296351     22.296351     44.592703
     -2.437437     25.091468     25.091468     50.182935
     -2.427427     27.958225     27.958225     55.916450
     -2.417417     30.613408     30.613408     61.226817
     -2.407407     33.035274     33.035274     66.070549
     -2.397397     35.380095     35.380095     70.760190
     -2.387387     37.796858     37.796858     75.593717
     -2.377377     40.234533     40.234533     80.469066
     -2.367367     42.345135     42.345135     84.690270
     -2.357357     43.544539     43.544539     87.089078
     -2.347347     43.218630     43.218630     86.437259
     -2.337337     40.989333     40.989333     81.978667
     -2.327327     36.920384     36.920384     73.840769
     -2.317317     31.566926     31.566926     63.133852
     -2.307307     25.845622     25.845622     51.691244
     -2.297297     20.783342     20.783342     41.566683
     -2.287287     17.248219     17.248219     34.496438
     -2.277277     15.757445     15.757445     31.514889
     -2.267267     16.407599     16.407599     32.815198
     -2.257257     18.920167     18.920167     37.840334
     -2.247247     22.762265     22.762265     45.524530
     -2.237237     27.293587     27.293587     54.587174
     -2.227227     31.895600     31.895600     63.791200
     -2.217217     36.051658     36.051658     72.103315
     -2.207207     39.367717     39.367717     78.735433
     -2.197197     41.551223     41.551223     83.102445
     -2.187187     42.387910     42.387910     84.775821
     -2.177177     41.754822     41.754822     83.509645
     -2.167167     39.676180     39.676180     79.352360
     -2.157157     36.384217     36.384217     72.768435
     -2.147147     32.323569     32.323569     64.647137
     -2.137137     28.059993     28.059993     56.119985
     -2.127127     24.113835     24.113835     48.227670
     -2.117117     20.795281     20.795281     41.590562
     -2.107107     18.128782     18.128782     36.257564
     -2.097097     15.906651     15.906651     31.813302
     -2.087087     13.837779     13.837779     27.675558
     -2.077077     11.706973     11.706973     23.413945
     -2.067067      9.464718      9.464718     18.929437
     -2.057057      7.217440      7.217440     14.434880
     -2.047047      5.146423      5.146423     10.292847
     -2.037037      3.413103      3.413103      6.826207
     -2.027027      2.098918      2.098918      4.197835
     -2.017017      1.195858      1.195858      2.391716
     -2.007007      0.634429      0.634429      1.268858
     -1.996997      0.324247      0.324247      0.648494
     -1.986987      0.188081      0.188081      0.376161
     -1.976977      0.182417      0.182417      0.364833
     -1.966967      0.306707      0.306707      0.613414
     -1.956957      0.605403      0.605403      1.210806
     -1.946947      1.163386      1.163386      2.326773
     -1.936937      2.091086      2.091086      4.182171
     -1.926927      3.495032      3.495032      6.990065
     -1.916917      5.435250      5.435250     10.870499
     -1.906907      7.880744      7.880744     15.761488
     -1.896897     10.682166     10.682166     21.364332
     -1.886887     13.579213     13.579213     27.158426
     -1.876877     16.247719     16.247719     32.495437
     -1.866867     18.374064     18.374064     36.748128
     -1.856857     19.732949     19.732949     39.465898
     -1.846847     20.244241     20.244241     40.488483
     -1.836837     19.992154     19.992154     39.984309
     -1.826827     19.198901     19.198901     38.397803
     -1.816817     18.154430     18.154430     36.308861
     -1.806807     17.117971     17.117971     34.235942
     -1.796797     16.225047     16.225047     32.450094
     -1.786787     15.442762     15.442762     30.885525
     -1.776777     14.601610     14.601610     29.203220
     -1.766767     13.494318     13.494318     26.988635
     -1.756757     11.993525     11.993525     23.987051
     -1.746747     10.128764     10.128764     20.257528
     -1.736737      8.089015      8.089015     16.178030
     -1.726727      6.161741      6.161741     12.323482
     -1.716717      4.650930      4.650930      9.301860
     -1.706707      3.815771      3.815771      7.631542
     -1.696697      3.843953      3.843953      7.687906
     -1.686687      4.843167      4.843167      9.686333
     -1.676677      6.823771      6.823771     13.647543
     -1.666667      9.661030      9.661030     19.322060
     -1.656657     13.054651     13.054651     26.109303
     -1.646647     16.524657     16.524657     33.049315
     -1.636637     19.477979     19.477979     38.955957
     -1.626627     21.347573     21.347573     42.695146
