# EIG2DOS: Utility for SIESTA to obtain the electronic density of states
#  E. Artacho, Apr 1999, A. Garcia, Apr 2012
#  Nick R. Papior, Feb 2017
# ------------------------------------------
# Eigenvalues calculated from a non-polarized calculation
# Eigenvalues read from siesta.EIG
# Kpoint weights read from siesta.KP
# Using smearing parameter:   0.0500
# Using 1000 points in the energy range
# Selected bands: 1 to: 2981
# Emin, Emax in file for selected band(s):    -27.2393845    218.3718740
# Nbands, Nspin, Nk   =   2981     1     1
# E_F                 =    -4.2308 eV --> (shifted to ZERO)
# Broadening          =     0.0500 eV
#
#        E            N(up)  (=)   N(down)         Ntot
     -5.000000     32.434617     32.434617     64.869233
     -4.989990     36.932751     36.932751     73.865502
     -4.979980     41.039011     41.039011     82.078023
     -4.969970     44.093927     44.093927     88.187855
     -4.959960     45.553380     45.553380     91.106759
     -4.949950     45.166047     45.166047     90.332094
     -4.939940     43.063174     43.063174     86.126348
     -4.929930     39.738112     39.738112     79.476224
     -4.919920     35.943192     35.943192     71.886383
     -4.909910     32.551808     32.551808     65.103616
     -4.899900     30.416547     30.416547     60.833095
     -4.889890     30.223291     30.223291     60.446582
     -4.879880     32.332487     32.332487     64.664974
     -4.869870     36.628183     36.628183     73.256365
     -4.859860     42.440475     42.440475     84.880949
     -4.849850     48.621287     48.621287     97.242574
     -4.839840     53.805622     53.805622    107.611243
     -4.829830     56.796141     56.796141    113.592282
     -4.819820     56.926080     56.926080    113.852160
     -4.809810     54.244403     54.244403    108.488807
     -4.799800     49.444410     49.444410     98.888821
     -4.789790     43.579827     43.579827     87.159654
     -4.779780     37.706741     37.706741     75.413482
     -4.769770     32.602632     32.602632     65.205263
     -4.759760     28.648477     28.648477     57.296953
     -4.749750     25.867716     25.867716     51.735433
     -4.739740     24.053282     24.053282     48.106564
     -4.729730     22.904743     22.904743     45.809486
     -4.719720     22.127231     22.127231     44.254462
     -4.709710     21.482420     21.482420     42.964840
     -4.699700     20.808302     20.808302     41.616603
     -4.689690     20.031843     20.031843     40.063686
     -4.679680     19.188746     19.188746     38.377493
     -4.669670     18.444778     18.444778     36.889555
     -4.659660     18.096881     18.096881     36.193762
     -4.649650     18.532716     18.532716     37.065431
     -4.639640     20.145687     20.145687     40.291373
     -4.629630     23.224812     23.224812     46.449623
     -4.619620     27.848397     27.848397     55.696794
     -4.609610     33.805832     33.805832     67.611663
     -4.599600     40.566378     40.566378     81.132755
     -4.589590     47.317161     47.317161     94.634321
     -4.579580     53.093872     53.093872    106.187744
     -4.569570     57.005163     57.005163    114.010325
     -4.559560     58.500582     58.500582    117.001165
     -4.549550     57.580793     57.580793    115.161586
     -4.539540     54.841774     54.841774    109.683547
     -4.529530     51.303052     51.303052    102.606104
     -4.519520     48.069096     48.069096     96.138192
     -4.509510     45.956834     45.956834     91.913669
     -4.499499     45.241805     45.241805     90.483610
     -4.489489     45.620074     45.620074     91.240147
     -4.479479     46.384198     46.384198     92.768395
     -4.469469     46.721198     46.721198     93.442397
     -4.459459     46.001334     46.001334     92.002668
     -4.449449     43.951127     43.951127     87.902254
     -4.439439     40.672385     40.672385     81.344770
     -4.429429     36.541930     36.541930     73.083861
     -4.419419     32.067845     32.067845     64.135690
     -4.409409     27.771424     27.771424     55.542848
     -4.399399     24.121719     24.121719     48.243438
     -4.389389     21.503744     21.503744     43.007488
     -4.379379     20.184011     20.184011     40.368021
     -4.369369     20.257653     20.257653     40.515305
     -4.359359     21.599945     21.599945     43.199890
     -4.349349     23.867239     23.867239     47.734478
     -4.339339     26.577042     26.577042     53.154084
     -4.329329     29.252834     29.252834     58.505668
     -4.319319     31.577200     31.577200     63.154401
     -4.309309     33.485550     33.485550     66.971101
     -4.299299     35.157532     35.157532     70.315064
     -4.289289     36.906754     36.906754     73.813509
     -4.279279     39.008377     39.008377     78.016753
     -4.269269     41.526329     41.526329     83.052658
     -4.259259     44.206992     44.206992     88.413983
     -4.249249     46.493967     46.493967     92.987934
     -4.239239     47.683653     47.683653     95.367307
     -4.229229     47.183220     47.183220     94.366439
     -4.219219     44.771892     44.771892     89.543783
     -4.209209     40.742235     40.742235     81.484470
     -4.199199     35.839801     35.839801     71.679601
     -4.189189     31.015683     31.015683     62.031365
     -4.179179     27.103347     27.103347     54.206695
     -4.169169     24.568360     24.568360     49.136721
     -4.159159     23.435379     23.435379     46.870758
     -4.149149     23.401795     23.401795     46.803589
     -4.139139     24.059102     24.059102     48.118204
     -4.129129     25.104624     25.104624     50.209248
     -4.119119     26.445549     26.445549     52.891099
     -4.109109     28.155181     28.155181     56.310362
     -4.099099     30.311652     30.311652     60.623304
     -4.089089     32.807957     32.807957     65.615914
     -4.079079     35.245541     35.245541     70.491082
     -4.069069     36.992788     36.992788     73.985575
     -4.059059     37.407196     37.407196     74.814392
     -4.049049     36.123817     36.123817     72.247635
     -4.039039     33.262025     33.262025     66.524049
     -4.029029     29.437128     29.437128     58.874257
     -4.019019     25.567055     25.567055     51.134111
     -4.009009     22.572502     22.572502     45.145004
     -3.998999     21.114267     21.114267     42.228534
     -3.988989     21.471755     21.471755     42.943510
     -3.978979     23.576881     23.576881     47.153762
     -3.968969     27.139618     27.139618     54.279237
     -3.958959     31.779279     31.779279     63.558558
     -3.948949     37.109409     37.109409     74.218817
     -3.938939     42.776740     42.776740     85.553480
     -3.928929     48.483111     48.483111     96.966221
     -3.918919     54.007552     54.007552    108.015105
     -3.908909     59.214161     59.214161    118.428322
     -3.898899     64.016465     64.016465    128.032929
     -3.888889     68.290668     68.290668    136.581337
     -3.878879     71.774294     71.774294    143.548589
     -3.868869     74.017403     74.017403    148.034807
     -3.858859     74.442414     74.442414    148.884828
     -3.848849     72.516597     72.516597    145.033194
     -3.838839     67.977684     67.977684    135.955368
     -3.828829     61.014958     61.014958    122.029917
     -3.818819     52.318201     52.318201    104.636402
     -3.808809     42.960374     42.960374     85.920748
     -3.798799     34.149303     34.149303     68.298605
     -3.788789     26.934520     26.934520     53.869040
     -3.778779     21.966363     21.966363     43.932727
     -3.768769     19.376649     19.376649     38.753298
     -3.758759     18.803115     18.803115     37.606229
     -3.748749     19.536025     19.536025     39.072050
     -3.738739     20.738119     20.738119     41.476237
     -3.728729     21.679497     21.679497     43.358994
     -3.718719     21.931773     21.931773     43.863545
     -3.708709     21.476027     21.476027     42.952054
     -3.698699     20.695627     20.695627     41.391254
     -3.688689     20.248650     20.248650     40.497301
     -3.678679     20.845481     20.845481     41.690962
     -3.668669     22.990369     22.990369     45.980739
     -3.658659     26.769807     26.769807     53.539615
     -3.648649     31.769275     31.769275     63.538550
     -3.638639     37.162108     37.162108     74.324217
     -3.628629     41.946908     41.946908     83.893817
     -3.618619     45.243295     45.243295     90.486590
     -3.608609     46.529153     46.529153     93.058305
     -3.598599     45.735494     45.735494     91.470988
     -3.588589     43.188279     43.188279     86.376559
     -3.578579     39.452838     39.452838     78.905675
     -3.568569     35.157808     35.157808     70.315615
     -3.558559     30.852072     30.852072     61.704144
     -3.548549     26.912484     26.912484     53.824968
     -3.538539     23.502680     23.502680     47.005360
     -3.528529     20.585225     20.585225     41.170450
     -3.518519     17.989328     17.989328     35.978657
     -3.508509     15.519329     15.519329     31.038659
     -3.498498     13.064858     13.064858     26.129716
     -3.488488     10.665816     10.665816     21.331633
     -3.478478      8.505733      8.505733     17.011467
     -3.468468      6.842466      6.842466     13.684932
     -3.458458      5.911001      5.911001     11.822002
     -3.448448      5.835997      5.835997     11.671994
     -3.438438      6.578847      6.578847     13.157694
     -3.428428      7.930983      7.930983     15.861965
     -3.418418      9.558268      9.558268     19.116536
     -3.408408     11.093680     11.093680     22.187359
     -3.398398     12.258961     12.258961     24.517921
     -3.388388     12.975456     12.975456     25.950913
     -3.378378     13.416898     13.416898     26.833797
     -3.368368     13.975586     13.975586     27.951172
     -3.358358     15.151387     15.151387     30.302773
     -3.348348     17.405416     17.405416     34.810833
     -3.338338     21.024891     21.024891     42.049781
     -3.328328     26.024027     26.024027     52.048054
     -3.318318     32.083540     32.083540     64.167080
     -3.308308     38.533453     38.533453     77.066906
     -3.298298     44.407061     44.407061     88.814122
     -3.288288     48.603361     48.603361     97.206721
     -3.278278     50.158047     50.158047    100.316095
     -3.268268     48.548150     48.548150     97.096301
     -3.258258     43.898177     43.898177     87.796353
     -3.248248     36.974284     36.974284     73.948568
     -3.238238     28.951776     28.951776     57.903552
     -3.228228     21.058699     21.058699     42.117398
     -3.218218     14.255395     14.255395     28.510790
     -3.208208      9.073144      9.073144     18.146288
     -3.198198      5.638568      5.638568     11.277137
     -3.188188      3.820956      3.820956      7.641912
     -3.178178      3.404093      3.404093      6.808186
     -3.168168      4.205001      4.205001      8.410002
     -3.158158      6.110262      6.110262     12.220525
     -3.148148      9.044528      9.044528     18.089055
     -3.138138     12.908057     12.908057     25.816114
     -3.128128     17.519640     17.519640     35.039280
     -3.118118     22.586568     22.586568     45.173136
     -3.108108     27.706967     27.706967     55.413935
     -3.098098     32.401611     32.401611     64.803222
     -3.088088     36.173086     36.173086     72.346172
     -3.078078     38.590457     38.590457     77.180913
     -3.068068     39.386713     39.386713     78.773425
     -3.058058     38.536696     38.536696     77.073391
     -3.048048     36.273272     36.273272     72.546543
     -3.038038     33.018301     33.018301     66.036602
     -3.028028     29.249818     29.249818     58.499637
     -3.018018     25.368647     25.368647     50.737295
     -3.008008     21.632509     21.632509     43.265018
     -2.997998     18.185340     18.185340     36.370680
     -2.987988     15.151233     15.151233     30.302467
     -2.977978     12.726659     12.726659     25.453318
     -2.967968     11.212177     11.212177     22.424354
     -2.957958     10.963585     10.963585     21.927171
     -2.947948     12.282880     12.282880     24.565761
     -2.937938     15.291269     15.291269     30.582538
     -2.927928     19.829139     19.829139     39.658278
     -2.917918     25.420627     25.420627     50.841254
     -2.907908     31.327269     31.327269     62.654537
     -2.897898     36.692557     36.692557     73.385114
     -2.887888     40.746128     40.746128     81.492255
     -2.877878     43.003658     43.003658     86.007316
     -2.867868     43.386357     43.386357     86.772714
     -2.857858     42.206637     42.206637     84.413274
     -2.847848     40.020247     40.020247     80.040494
     -2.837838     37.405719     37.405719     74.811438
     -2.827828     34.767350     34.767350     69.534700
     -2.817818     32.246606     32.246606     64.493212
     -2.807808     29.771979     29.771979     59.543958
     -2.797798     27.206829     27.206829     54.413658
     -2.787788     24.506771     24.506771     49.013542
     -2.777778     21.799148     21.799148     43.598296
     -2.767768     19.346198     19.346198     38.692397
     -2.757758     17.422405     17.422405     34.844810
     -2.747748     16.185376     16.185376     32.370753
     -2.737738     15.620041     15.620041     31.240083
     -2.727728     15.587441     15.587441     31.174882
     -2.717718     15.941197     15.941197     31.882394
     -2.707708     16.629752     16.629752     33.259503
     -2.697698     17.711256     17.711256     35.422512
     -2.687688     19.267672     19.267672     38.535345
     -2.677678     21.277255     21.277255     42.554511
     -2.667668     23.539902     23.539902     47.079804
     -2.657658     25.719845     25.719845     51.439690
     -2.647648     27.491516     27.491516     54.983032
     -2.637638     28.700584     28.700584     57.401167
     -2.627628     29.436765     29.436765     58.873529
     -2.617618     29.971197     29.971197     59.942395
     -2.607608     30.599337     30.599337     61.198673
     -2.597598     31.486599     31.486599     62.973198
     -2.587588     32.599869     32.599869     65.199739
     -2.577578     33.740429     33.740429     67.480858
     -2.567568     34.629747     34.629747     69.259495
     -2.557558     34.986793     34.986793     69.973585
     -2.547548     34.573616     34.573616     69.147231
     -2.537538     33.231016     33.231016     66.462032
     -2.527528     30.933466     30.933466     61.866932
     -2.517518     27.857608     27.857608     55.715216
     -2.507508     24.417987     24.417987     48.835973
     -2.497497     21.218757     21.218757     42.437515
     -2.487487     18.910053     18.910053     37.820107
     -2.477477     17.994628     17.994628     35.989257
     -2.467467     18.665417     18.665417     37.330834
     -2.457457     20.747110     20.747110     41.494220
     -2.447447     23.770777     23.770777     47.541553
     -2.437437     27.152611     27.152611     54.305223
     -2.427427     30.401475     30.401475     60.802949
     -2.417417     33.264929     33.264929     66.529858
     -2.407407     35.748604     35.748604     71.497208
     -2.397397     38.001118     38.001118     76.002237
     -2.387387     40.122253     40.122253     80.244506
     -2.377377     41.994204     41.994204     83.988408
     -2.367367     43.231154     43.231154     86.462308
     -2.357357     43.288705     43.288705     86.577410
     -2.347347     41.694427     41.694427     83.388854
     -2.337337     38.294175     38.294175     76.588351
     -2.327327     33.394192     33.394192     66.788385
     -2.317317     27.728180     27.728180     55.456360
     -2.307307     22.264729     22.264729     44.529458
     -2.297297     17.943079     17.943079     35.886157
     -2.287287     15.444434     15.444434     30.888867
     -2.277277     15.070146     15.070146     30.140293
     -2.267267     16.738794     16.738794     33.477588
     -2.257257     20.068692     20.068692     40.137384
     -2.247247     24.497189     24.497189     48.994378
     -2.237237     29.396386     29.396386     58.792773
     -2.227227     34.161584     34.161584     68.323167
     -2.217217     38.264669     38.264669     76.529338
     -2.207207     41.278388     41.278388     82.556777
     -2.197197     42.888436     42.888436     85.776871
     -2.187187     42.913568     42.913568     85.827137
     -2.177177     41.342988     41.342988     82.685975
     -2.167167     38.376111     38.376111     76.752222
     -2.157157     34.427427     34.427427     68.854854
     -2.147147     30.059978     30.059978     60.119956
     -2.137137     25.845099     25.845099     51.690199
     -2.127127     22.196493     22.196493     44.392986
     -2.117117     19.257046     19.257046     38.514092
     -2.107107     16.898832     16.898832     33.797665
     -2.097097     14.836727     14.836727     29.673455
     -2.087087     12.793127     12.793127     25.586253
     -2.077077     10.627878     10.627878     21.255757
     -2.067067      8.376722      8.376722     16.753443
     -2.057057      6.199322      6.199322     12.398644
     -2.047047      4.284498      4.284498      8.568995
     -2.037037      2.770146      2.770146      5.540292
     -2.027027      1.711991      1.711991      3.423983
     -2.017017      1.101154      1.101154      2.202308
     -2.007007      0.907296      0.907296      1.814592
     -1.996997      1.119131      1.119131      2.238262
     -1.986987      1.762177      1.762177      3.524355
     -1.976977      2.886385      2.886385      5.772769
     -1.966967      4.529083      4.529083      9.058165
     -1.956957      6.669904      6.669904     13.339808
     -1.946947      9.200890      9.200890     18.401779
     -1.936937     11.931352     11.931352     23.862704
     -1.926927     14.630712     14.630712     29.261424
     -1.916917     17.090197     17.090197     34.180395
     -1.906907     19.170863     19.170863     38.341725
     -1.896897     20.812605     20.812605     41.625210
     -1.886887     22.003928     22.003928     44.007857
     -1.876877     22.737850     22.737850     45.475700
     -1.866867     22.987387     22.987387     45.974773
     -1.856857     22.719566     22.719566     45.439133
     -1.846847     21.940312     21.940312     43.880625
     -1.836837     20.740278     20.740278     41.480556
     -1.826827     19.306119     19.306119     38.612239
     -1.816817     17.876883     17.876883     35.753766
     -1.806807     16.655912     16.655912     33.311824
     -1.796797     15.719778     15.719778     31.439556
     -1.786787     14.976861     14.976861     29.953721
     -1.776777     14.206848     14.206848     28.413696
     -1.766767     13.167282     13.167282     26.334564
     -1.756757     11.712774     11.712774     23.425547
     -1.746747      9.864997      9.864997     19.729994
     -1.736737      7.802515      7.802515     15.605029
     -1.726727      5.786744      5.786744     11.573487
     -1.716717      4.071795      4.071795      8.143590
     -1.706707      2.843830      2.843830      5.687660
     -1.696697      2.207185      2.207185      4.414370
     -1.686687      2.202358      2.202358      4.404717
     -1.676677      2.825267      2.825267      5.650534
     -1.666667      4.024422      4.024422      8.048845
     -1.656657      5.675500      5.675500     11.351000
     -1.646647      7.556332      7.556332     15.112665
     -1.636637      9.354860      9.354860     18.709720
     -1.626627     10.730126     10.730126     21.460251
