# EIG2DOS: Utility for SIESTA to obtain the electronic density of states
#  E. Artacho, Apr 1999, A. Garcia, Apr 2012
#  Nick R. Papior, Feb 2017
# ------------------------------------------
# Eigenvalues calculated from a non-polarized calculation
# Eigenvalues read from siesta.EIG
# Kpoint weights read from siesta.KP
# Using smearing parameter:   0.0500
# Using 1000 points in the energy range
# Selected bands: 1 to: 2981
# Emin, Emax in file for selected band(s):    -27.0697342    218.3424030
# Nbands, Nspin, Nk   =   2981     1     1
# E_F                 =    -4.2637 eV --> (shifted to ZERO)
# Broadening          =     0.0500 eV
#
#        E            N(up)  (=)   N(down)         Ntot
     -5.000000     35.135195     35.135195     70.270390
     -4.989990     38.491967     38.491967     76.983934
     -4.979980     41.479136     41.479136     82.958271
     -4.969970     43.520811     43.520811     87.041623
     -4.959960     44.196896     44.196896     88.393791
     -4.949950     43.358452     43.358452     86.716904
     -4.939940     41.168211     41.168211     82.336421
     -4.929930     38.068022     38.068022     76.136043
     -4.919920     34.701606     34.701606     69.403212
     -4.909910     31.821783     31.821783     63.643567
     -4.899900     30.188586     30.188586     60.377172
     -4.889890     30.441152     30.441152     60.882303
     -4.879880     32.930844     32.930844     65.861688
     -4.869870     37.544873     37.544873     75.089746
     -4.859860     43.602366     43.602366     87.204732
     -4.849850     49.919419     49.919419     99.838838
     -4.839840     55.083338     55.083338    110.166676
     -4.829830     57.867226     57.867226    115.734452
     -4.819820     57.620649     57.620649    115.241297
     -4.809810     54.460584     54.460584    108.921167
     -4.799800     49.178001     49.178001     98.356001
     -4.789790     42.916822     42.916822     85.833645
     -4.779780     36.785564     36.785564     73.571128
     -4.769770     31.568052     31.568052     63.136104
     -4.759760     27.618287     27.618287     55.236574
     -4.749750     24.920060     24.920060     49.840120
     -4.739740     23.228831     23.228831     46.457662
     -4.729730     22.212325     22.212325     44.424649
     -4.719720     21.543987     21.543987     43.087973
     -4.709710     20.944737     20.944737     41.889475
     -4.699700     20.193706     20.193706     40.387412
     -4.689690     19.135786     19.135786     38.271571
     -4.679680     17.706426     17.706426     35.412853
     -4.669670     15.975803     15.975803     31.951606
     -4.659660     14.192999     14.192999     28.385998
     -4.649650     12.798160     12.798160     25.596319
     -4.639640     12.374556     12.374556     24.749112
     -4.629630     13.530625     13.530625     27.061251
     -4.619620     16.726034     16.726034     33.452067
     -4.609610     22.080563     22.080563     44.161127
     -4.599600     29.227866     29.227866     58.455731
     -4.589590     37.288268     37.288268     74.576535
     -4.579580     45.016888     45.016888     90.033776
     -4.569570     51.123019     51.123019    102.246037
     -4.559560     54.670951     54.670951    109.341903
     -4.549550     55.408378     55.408378    110.816755
     -4.539540     53.873910     53.873910    107.747820
     -4.529530     51.219947     51.219947    102.439895
     -4.519520     48.810290     48.810290     97.620579
     -4.509510     47.748580     47.748580     95.497160
     -4.499499     48.516699     48.516699     97.033397
     -4.489489     50.847978     50.847978    101.695957
     -4.479479     53.861952     53.861952    107.723904
     -4.469469     56.390863     56.390863    112.781725
     -4.459459     57.368609     57.368609    114.737218
     -4.449449     56.145969     56.145969    112.291938
     -4.439439     52.638713     52.638713    105.277425
     -4.429429     47.288231     47.288231     94.576461
     -4.419419     40.885825     40.885825     81.771650
     -4.409409     34.349534     34.349534     68.699069
     -4.399399     28.531585     28.531585     57.063171
     -4.389389     24.090397     24.090397     48.180794
     -4.379379     21.419031     21.419031     42.838061
     -4.369369     20.610388     20.610388     41.220777
     -4.359359     21.456940     21.456940     42.913880
     -4.349349     23.502158     23.502158     47.004316
     -4.339339     26.155808     26.155808     52.311617
     -4.329329     28.854406     28.854406     57.708811
     -4.319319     31.215365     31.215365     62.430730
     -4.309309     33.125693     33.125693     66.251386
     -4.299299     34.730721     34.730721     69.461443
     -4.289289     36.328916     36.328916     72.657832
     -4.279279     38.211721     38.211721     76.423442
     -4.269269     40.501514     40.501514     81.003027
     -4.259259     43.040860     43.040860     86.081721
     -4.249249     45.378748     45.378748     90.757496
     -4.239239     46.879705     46.879705     93.759411
     -4.229229     46.940060     46.940060     93.880119
     -4.219219     45.238608     45.238608     90.477216
     -4.209209     41.909349     41.909349     83.818699
     -4.199199     37.540267     37.540267     75.080534
     -4.189189     32.981468     32.981468     65.962936
     -4.179179     29.046851     29.046851     58.093703
     -4.169169     26.251375     26.251375     52.502751
     -4.159159     24.702937     24.702937     49.405875
     -4.149149     24.180910     24.180910     48.361821
     -4.139139     24.338372     24.338372     48.676743
     -4.129129     24.913541     24.913541     49.827082
     -4.119119     25.844930     25.844930     51.689860
     -4.109109     27.239072     27.239072     54.478143
     -4.099099     29.212265     29.212265     58.424530
     -4.089089     31.692195     31.692195     63.384389
     -4.079079     34.295602     34.295602     68.591205
     -4.069069     36.372513     36.372513     72.745026
     -4.059059     37.225270     37.225270     74.450540
     -4.049049     36.408678     36.408678     72.817356
     -4.039039     33.958240     33.958240     67.916479
     -4.029029     30.422206     30.422206     60.844412
     -4.019019     26.678669     26.678669     53.357338
     -4.009009     23.635100     23.635100     47.270199
     -3.998999     21.960450     21.960450     43.920900
     -3.988989     21.960925     21.960925     43.921850
     -3.978979     23.614697     23.614697     47.229395
     -3.968969     26.696149     26.696149     53.392298
     -3.958959     30.897357     30.897357     61.794715
     -3.948949     35.894556     35.894556     71.789113
     -3.938939     41.367935     41.367935     82.735870
     -3.928929     47.014872     47.014872     94.029744
     -3.918919     52.580588     52.580588    105.161176
     -3.908909     57.889019     57.889019    115.778039
     -3.898899     62.832622     62.832622    125.665243
     -3.888889     67.298294     67.298294    134.596588
     -3.878879     71.056439     71.056439    142.112878
     -3.868869     73.683564     73.683564    147.367128
     -3.858859     74.590617     74.590617    149.181235
     -3.848849     73.181596     73.181596    146.363191
     -3.838839     69.094299     69.094299    138.188598
     -3.828829     62.419386     62.419386    124.838772
     -3.818819     53.789457     53.789457    107.578915
     -3.808809     44.282516     44.282516     88.565032
     -3.798799     35.166359     35.166359     70.332718
     -3.788789     27.577982     27.577982     55.155963
     -3.778779     22.251870     22.251870     44.503741
     -3.768769     19.380222     19.380222     38.760444
     -3.758759     18.631140     18.631140     37.262280
     -3.748749     19.298700     19.298700     38.597400
     -3.738739     20.529446     20.529446     41.058893
     -3.728729     21.563211     21.563211     43.126422
     -3.718719     21.932638     21.932638     43.865276
     -3.708709     21.577607     21.577607     43.155214
     -3.698699     20.846238     20.846238     41.692477
     -3.688689     20.375846     20.375846     40.751691
     -3.678679     20.876632     20.876632     41.753264
     -3.668669     22.874247     22.874247     45.748495
     -3.658659     26.492898     26.492898     52.985795
     -3.648649     31.361652     31.361652     62.723304
     -3.638639     36.690898     36.690898     73.381797
     -3.628629     41.499509     41.499509     82.999017
     -3.618619     44.905857     44.905857     89.811715
     -3.608609     46.366871     46.366871     92.733742
     -3.598599     45.779742     45.779742     91.559483
     -3.588589     43.432784     43.432784     86.865568
     -3.578579     39.858441     39.858441     79.716883
     -3.568569     35.663731     35.663731     71.327462
     -3.558559     31.390695     31.390695     62.781390
     -3.548549     27.424013     27.424013     54.848026
     -3.538539     23.945940     23.945940     47.891879
     -3.528529     20.941859     20.941859     41.883718
     -3.518519     18.261046     18.261046     36.522092
     -3.508509     15.720487     15.720487     31.440974
     -3.498498     13.214119     13.214119     26.428238
     -3.488488     10.780119     10.780119     21.560238
     -3.478478      8.597800      8.597800     17.195601
     -3.468468      6.921005      6.921005     13.842010
     -3.458458      5.981728      5.981728     11.963457
     -3.448448      5.901953      5.901953     11.803905
     -3.438438      6.639599      6.639599     13.279198
     -3.428428      7.981368      7.981368     15.962735
     -3.418418      9.587632      9.587632     19.175265
     -3.408408     11.086074     11.086074     22.172147
     -3.398398     12.193681     12.193681     24.387362
     -3.388388     12.826201     12.826201     25.652403
     -3.378378     13.147004     13.147004     26.294009
     -3.368368     13.526796     13.526796     27.053592
     -3.358358     14.425072     14.425072     28.850144
     -3.348348     16.239196     16.239196     32.478392
     -3.338338     19.174370     19.174370     38.348741
     -3.328328     23.166314     23.166314     46.332627
     -3.318318     27.860346     27.860346     55.720692
     -3.308308     32.640603     32.640603     65.281207
     -3.298298     36.713745     36.713745     73.427490
     -3.288288     39.258715     39.258715     78.517431
     -3.278278     39.632232     39.632232     79.264465
     -3.268268     37.572939     37.572939     75.145878
     -3.258258     33.314328     33.314328     66.628656
     -3.248248     27.537357     27.537357     55.074714
     -3.238238     21.167845     21.167845     42.335690
     -3.228228     15.104282     15.104282     30.208563
     -3.218218      9.993041      9.993041     19.986082
     -3.208208      6.131908      6.131908     12.263815
     -3.198198      3.510152      3.510152      7.020304
     -3.188188      1.933855      1.933855      3.867710
     -3.178178      1.168228      1.168228      2.336455
     -3.168168      1.048604      1.048604      2.097207
     -3.158158      1.542357      1.542357      3.084714
     -3.148148      2.762718      2.762718      5.525435
     -3.138138      4.937286      4.937286      9.874571
     -3.128128      8.329434      8.329434     16.658868
     -3.118118     13.114879     13.114879     26.229758
     -3.108108     19.236108     19.236108     38.472216
     -3.098098     26.286666     26.286666     52.573332
     -3.088088     33.493756     33.493756     66.987512
     -3.078078     39.847732     39.847732     79.695464
     -3.068068     44.365501     44.365501     88.731001
     -3.058058     46.397777     46.397777     92.795553
     -3.048048     45.846120     45.846120     91.692240
     -3.038038     43.183102     43.183102     86.366205
     -3.028028     39.262022     39.262022     78.524045
     -3.018018     35.008090     35.008090     70.016179
     -3.008008     31.135661     31.135661     62.271323
     -2.997998     28.007233     28.007233     56.014467
     -2.987988     25.665788     25.665788     51.331577
     -2.977978     23.988672     23.988672     47.977344
     -2.967968     22.870000     22.870000     45.740001
     -2.957958     22.345205     22.345205     44.690411
     -2.947948     22.607359     22.607359     45.214718
     -2.937938     23.911476     23.911476     47.822952
     -2.927928     26.409010     26.409010     52.818021
     -2.917918     29.988955     29.988955     59.977909
     -2.907908     34.208252     34.208252     68.416505
     -2.897898     38.361507     38.361507     76.723015
     -2.887888     41.676776     41.676776     83.353552
     -2.877878     43.560361     43.560361     87.120721
     -2.867868     43.784007     43.784007     87.568015
     -2.857858     42.530932     42.530932     85.061864
     -2.847848     40.282490     40.282490     80.564980
     -2.837838     37.602010     37.602010     75.204021
     -2.827828     34.918501     34.918501     69.837002
     -2.817818     32.407577     32.407577     64.815155
     -2.807808     30.013586     30.013586     60.027173
     -2.797798     27.583680     27.583680     55.167361
     -2.787788     25.029904     25.029904     50.059808
     -2.777778     22.427613     22.427613     44.855226
     -2.767768     20.000759     20.000759     40.001518
     -2.757758     18.012401     18.012401     36.024802
     -2.747748     16.633529     16.633529     33.267058
     -2.737738     15.873176     15.873176     31.746351
     -2.727728     15.611670     15.611670     31.223339
     -2.717718     15.711299     15.711299     31.422597
     -2.707708     16.126762     16.126762     32.253524
     -2.697698     16.936267     16.936267     33.872533
     -2.687688     18.266524     18.266524     36.533047
     -2.677678     20.158777     20.158777     40.317554
     -2.667668     22.468764     22.468764     44.937529
     -2.657658     24.877352     24.877352     49.754704
     -2.647648     27.017595     27.017595     54.035191
     -2.637638     28.644626     28.644626     57.289253
     -2.627628     29.742747     29.742747     59.485494
     -2.617618     30.503938     30.503938     61.007876
     -2.607608     31.196358     31.196358     62.392715
     -2.597598     32.009357     32.009357     64.018715
     -2.587588     32.964898     32.964898     65.929796
     -2.577578     33.927118     33.927118     67.854235
     -2.567568     34.673178     34.673178     69.346355
     -2.557558     34.964011     34.964011     69.928023
     -2.547548     34.584791     34.584791     69.169582
     -2.537538     33.373290     33.373290     66.746579
     -2.527528     31.269936     31.269936     62.539873
     -2.517518     28.391834     28.391834     56.783669
     -2.507508     25.086721     25.086721     50.173443
     -2.497497     21.908363     21.908363     43.816726
     -2.487487     19.490056     19.490056     38.980112
     -2.477477     18.353716     18.353716     36.707431
     -2.467467     18.735916     18.735916     37.471832
     -2.457457     20.511680     20.511680     41.023361
     -2.447447     23.253905     23.253905     46.507810
     -2.437437     26.404793     26.404793     52.809586
     -2.427427     29.484561     29.484561     58.969121
     -2.417417     32.244422     32.244422     64.488845
     -2.407407     34.694459     34.694459     69.388918
     -2.397397     36.994184     36.994184     73.988368
     -2.387387     39.259928     39.259928     78.519857
     -2.377377     41.387546     41.387546     82.775092
     -2.367367     42.988177     42.988177     85.976355
     -2.357357     43.485223     43.485223     86.970445
     -2.347347     42.342200     42.342200     84.684400
     -2.337337     39.321399     39.321399     78.642797
     -2.327327     34.650764     34.650764     69.301529
     -2.317317     29.017655     29.017655     58.035310
     -2.307307     23.392022     23.392022     46.784044
     -2.297297     18.759717     18.759717     37.519433
     -2.287287     15.875479     15.875479     31.750958
     -2.277277     15.116386     15.116386     30.232772
     -2.267267     16.458348     16.458348     32.916696
     -2.257257     19.548921     19.548921     39.097841
     -2.247247     23.829151     23.829151     47.658301
     -2.237237     28.660838     28.660838     57.321676
     -2.227227     33.428958     33.428958     66.857916
     -2.217217     37.603808     37.603808     75.207617
     -2.207207     40.763653     40.763653     81.527307
     -2.197197     42.595602     42.595602     85.191205
     -2.187187     42.902169     42.902169     85.804337
     -2.177177     41.632537     41.632537     83.265073
     -2.167167     38.929846     38.929846     77.859692
     -2.157157     35.155375     35.155375     70.310750
     -2.147147     30.843819     30.843819     61.687639
     -2.137137     26.575490     26.575490     53.150980
     -2.127127     22.806171     22.806171     45.612342
     -2.117117     19.734721     19.734721     39.469442
     -2.107107     17.278850     17.278850     34.557701
     -2.097097     15.171960     15.171960     30.343920
     -2.087087     13.126098     13.126098     26.252197
     -2.077077     10.973706     10.973706     21.947412
     -2.067067      8.722855      8.722855     17.445710
     -2.057057      6.517242      6.517242     13.034485
     -2.047047      4.543160      4.543160      9.086321
     -2.037037      2.941712      2.941712      5.883423
     -2.027027      1.764985      1.764985      3.529971
     -2.017017      0.981210      0.981210      1.962420
     -2.007007      0.509513      0.509513      1.019026
     -1.996997      0.259785      0.259785      0.519570
     -1.986987      0.162257      0.162257      0.324514
     -1.976977      0.183591      0.183591      0.367182
     -1.966967      0.333387      0.333387      0.666774
     -1.956957      0.664968      0.664968      1.329936
     -1.946947      1.269947      1.269947      2.539894
     -1.936937      2.261986      2.261986      4.523973
     -1.926927      3.745553      3.745553      7.491106
     -1.916917      5.772038      5.772038     11.544077
     -1.906907      8.295795      8.295795     16.591591
     -1.896897     11.149729     11.149729     22.299458
     -1.886887     14.057358     14.057358     28.114716
     -1.876877     16.684709     16.684709     33.369419
     -1.866867     18.718207     18.718207     37.436413
     -1.856857     19.943883     19.943883     39.887766
     -1.846847     20.303444     20.303444     40.606888
     -1.836837     19.910200     19.910200     39.820401
     -1.826827     19.017325     19.017325     38.034650
     -1.816817     17.942183     17.942183     35.884366
     -1.806807     16.966766     16.966766     33.933532
     -1.796797     16.251542     16.251542     32.503084
     -1.786787     15.803859     15.803859     31.607718
     -1.776777     15.519590     15.519590     31.039179
     -1.766767     15.274462     15.274462     30.548923
     -1.756757     15.007491     15.007491     30.014981
     -1.746747     14.742109     14.742109     29.484219
     -1.736737     14.534167     14.534167     29.068334
     -1.726727     14.390195     14.390195     28.780390
     -1.716717     14.223174     14.223174     28.446348
     -1.706707     13.886996     13.886996     27.773992
     -1.696697     13.273189     13.273189     26.546377
     -1.686687     12.406115     12.406115     24.812231
     -1.676677     11.469131     11.469131     22.938263
     -1.666667     10.735587     10.735587     21.471174
     -1.656657     10.436520     10.436520     20.873040
     -1.646647     10.635198     10.635198     21.270396
     -1.636637     11.176740     11.176740     22.353480
     -1.626627     11.742803     11.742803     23.485605
