# EIG2DOS: Utility for SIESTA to obtain the electronic density of states
#  E. Artacho, Apr 1999, A. Garcia, Apr 2012
#  Nick R. Papior, Feb 2017
# ------------------------------------------
# Eigenvalues calculated from a non-polarized calculation
# Eigenvalues read from siesta.EIG
# Kpoint weights read from siesta.KP
# Using smearing parameter:   0.0500
# Using 1000 points in the energy range
# Selected bands: 1 to: 2981
# Emin, Emax in file for selected band(s):    -27.2757246    218.3759010
# Nbands, Nspin, Nk   =   2981     1     1
# E_F                 =    -4.2252 eV --> (shifted to ZERO)
# Broadening          =     0.0500 eV
#
#        E            N(up)  (=)   N(down)         Ntot
     -5.000000     32.798063     32.798063     65.596127
     -4.989990     37.454177     37.454177     74.908354
     -4.979980     41.659107     41.659107     83.318213
     -4.969970     44.710585     44.710585     89.421170
     -4.959960     46.052647     46.052647     92.105294
     -4.949950     45.460086     45.460086     90.920172
     -4.939940     43.119796     43.119796     86.239593
     -4.929930     39.591393     39.591393     79.182785
     -4.919920     35.683417     35.683417     71.366833
     -4.909910     32.299866     32.299866     64.599732
     -4.899900     30.290057     30.290057     60.580113
     -4.889890     30.301403     30.301403     60.602806
     -4.879880     32.627097     32.627097     65.254194
     -4.869870     37.071551     37.071551     74.143103
     -4.859860     42.898651     42.898651     85.797303
     -4.849850     48.934831     48.934831     97.869663
     -4.839840     53.845496     53.845496    107.690992
     -4.829830     56.511702     56.511702    113.023404
     -4.819820     56.362957     56.362957    112.725915
     -4.809810     53.524268     53.524268    107.048536
     -4.799800     48.717877     48.717877     97.435754
     -4.789790     42.975807     42.975807     85.951614
     -4.779780     37.299894     37.299894     74.599788
     -4.769770     32.408684     32.408684     64.817367
     -4.759760     28.644499     28.644499     57.288998
     -4.749750     26.028095     26.028095     52.056190
     -4.739740     24.391787     24.391787     48.783574
     -4.729730     23.513352     23.513352     47.026705
     -4.719720     23.198892     23.198892     46.397785
     -4.709710     23.299705     23.299705     46.599411
     -4.699700     23.680529     23.680529     47.361058
     -4.689690     24.177717     24.177717     48.355435
     -4.679680     24.590520     24.590520     49.181039
     -4.669670     24.731747     24.731747     49.463494
     -4.659660     24.528965     24.528965     49.057930
     -4.649650     24.129431     24.129431     48.258861
     -4.639640     23.942417     23.942417     47.884833
     -4.629630     24.566009     24.566009     49.132018
     -4.619620     26.591906     26.591906     53.183813
     -4.609610     30.344645     30.344645     60.689291
     -4.599600     35.662267     35.662267     71.324534
     -4.589590     41.833032     41.833032     83.666065
     -4.579580     47.751463     47.751463     95.502927
     -4.569570     52.261019     52.261019    104.522039
     -4.559560     54.555145     54.555145    109.110290
     -4.549550     54.466861     54.466861    108.933722
     -4.539540     52.517918     52.517918    105.035836
     -4.529530     49.704334     49.704334     99.408668
     -4.519520     47.111690     47.111690     94.223380
     -4.509510     45.522904     45.522904     91.045809
     -4.499499     45.173564     45.173564     90.347127
     -4.489489     45.735683     45.735683     91.471366
     -4.479479     46.509717     46.509717     93.019433
     -4.469469     46.723636     46.723636     93.447271
     -4.459459     45.809678     45.809678     91.619355
     -4.449449     43.559828     43.559828     87.119656
     -4.439439     40.129322     40.129322     80.258645
     -4.429429     35.927249     35.927249     71.854497
     -4.419419     31.471024     31.471024     62.942048
     -4.409409     27.272389     27.272389     54.544779
     -4.399399     23.778870     23.778870     47.557740
     -4.389389     21.348714     21.348714     42.697428
     -4.379379     20.221258     20.221258     40.442516
     -4.369369     20.467334     20.467334     40.934668
     -4.359359     21.944107     21.944107     43.888214
     -4.349349     24.300230     24.300230     48.600460
     -4.339339     27.059662     27.059662     54.119324
     -4.329329     29.766577     29.766577     59.533154
     -4.319319     32.132334     32.132334     64.264667
     -4.309309     34.117039     34.117039     68.234078
     -4.299299     35.906741     35.906741     71.813482
     -4.289289     37.793020     37.793020     75.586041
     -4.279279     40.000410     40.000410     80.000820
     -4.269269     42.526333     42.526333     85.052665
     -4.259259     45.058444     45.058444     90.116889
     -4.249249     47.016467     47.016467     94.032934
     -4.239239     47.726634     47.726634     95.453267
     -4.229229     46.679493     46.679493     93.358986
     -4.219219     43.768371     43.768371     87.536742
     -4.209209     39.392936     39.392936     78.785872
     -4.199199     34.362800     34.362800     68.725600
     -4.189189     29.632095     29.632095     59.264191
     -4.179179     25.983113     25.983113     51.966226
     -4.169169     23.801544     23.801544     47.603087
     -4.159159     23.033994     23.033994     46.067987
     -4.149149     23.324385     23.324385     46.648770
     -4.139139     24.243900     24.243900     48.487800
     -4.129129     25.497023     25.497023     50.994047
     -4.119119     27.009431     27.009431     54.018862
     -4.109109     28.864083     28.864083     57.728167
     -4.099099     31.124795     31.124795     62.249589
     -4.089089     33.645542     33.645542     67.291085
     -4.079079     35.981858     35.981858     71.963717
     -4.069069     37.478899     37.478899     74.957798
     -4.059059     37.518377     37.518377     75.036753
     -4.049049     35.810058     35.810058     71.620117
     -4.039039     32.574921     32.574921     65.149841
     -4.029029     28.518224     28.518224     57.036449
     -4.019019     24.603778     24.603778     49.207556
     -4.009009     21.743958     21.743958     43.487917
     -3.998999     20.550519     20.550519     41.101039
     -3.988989     21.238198     21.238198     42.476397
     -3.978979     23.680324     23.680324     47.360648
     -3.968969     27.544677     27.544677     55.089354
     -3.958959     32.425415     32.425415     64.850830
     -3.948949     37.925446     37.925446     75.850893
     -3.938939     43.693902     43.693902     87.387804
     -3.928929     49.446360     49.446360     98.892720
     -3.918919     54.980998     54.980998    109.961995
     -3.908909     60.175109     60.175109    120.350219
     -3.898899     64.937674     64.937674    129.875348
     -3.888889     69.119082     69.119082    138.238165
     -3.878879     72.420396     72.420396    144.840792
     -3.868869     74.366574     74.366574    148.733149
     -3.858859     74.388472     74.388472    148.776944
     -3.848849     72.004506     72.004506    144.009012
     -3.838839     67.035665     67.035665    134.071330
     -3.828829     59.760230     59.760230    119.520460
     -3.818819     50.932742     50.932742    101.865483
     -3.808809     41.646159     41.646159     83.292318
     -3.798799     33.079541     33.079541     66.159083
     -3.788789     26.216315     26.216315     52.432631
     -3.778779     21.623599     21.623599     43.247199
     -3.768769     19.354384     19.354384     38.708768
     -3.758759     18.989474     18.989474     37.978948
     -3.748749     19.794959     19.794959     39.589919
     -3.738739     20.945339     20.945339     41.890678
     -3.728729     21.753643     21.753643     43.507287
     -3.718719     21.853623     21.853623     43.707246
     -3.708709     21.290840     21.290840     42.581679
     -3.698699     20.497516     20.497516     40.995031
     -3.688689     20.150537     20.150537     40.301074
     -3.678679     20.942563     20.942563     41.885125
     -3.668669     23.327883     23.327883     46.655766
     -3.658659     27.325743     27.325743     54.651486
     -3.648649     32.458472     32.458472     64.916944
     -3.638639     37.860504     37.860504     75.721008
     -3.628629     42.526639     42.526639     85.053277
     -3.618619     45.605263     45.605263     91.210526
     -3.608609     46.622244     46.622244     93.244487
     -3.598599     45.559173     45.559173     91.118346
     -3.588589     42.782823     42.782823     85.565647
     -3.578579     38.884296     38.884296     77.768591
     -3.568569     34.502670     34.502670     69.005340
     -3.558559     30.183168     30.183168     60.366337
     -3.548549     26.286600     26.286600     52.573199
     -3.538539     22.952017     22.952017     45.904033
     -3.528529     20.116081     20.116081     40.232162
     -3.518519     17.589553     17.589553     35.179105
     -3.508509     15.171772     15.171772     30.343545
     -3.498498     12.760591     12.760591     25.521183
     -3.488488     10.411120     10.411120     20.822240
     -3.478478      8.320469      8.320469     16.640939
     -3.468468      6.751655      6.751655     13.503311
     -3.458458      5.933690      5.933690     11.867380
     -3.448448      5.975649      5.975649     11.951297
     -3.438438      6.819093      6.819093     13.638186
     -3.428428      8.240623      8.240623     16.481246
     -3.418418      9.909040      9.909040     19.818081
     -3.408408     11.491577     11.491577     22.983153
     -3.398398     12.783907     12.783907     25.567814
     -3.388388     13.816300     13.816300     27.632599
     -3.378378     14.882090     14.882090     29.764181
     -3.368368     16.458399     16.458399     32.916798
     -3.358358     19.035854     19.035854     38.071708
     -3.348348     22.918281     22.918281     45.836562
     -3.338338     28.068307     28.068307     56.136613
     -3.328328     34.053322     34.053322     68.106645
     -3.318318     40.104765     40.104765     80.209530
     -3.308308     45.268151     45.268151     90.536302
     -3.298298     48.605590     48.605590     97.211181
     -3.288288     49.409979     49.409979     98.819957
     -3.278278     47.386139     47.386139     94.772277
     -3.268268     42.747612     42.747612     85.495225
     -3.258258     36.185512     36.185512     72.371024
     -3.248248     28.703284     28.703284     57.406568
     -3.238238     21.367934     21.367934     42.735868
     -3.228228     15.068508     15.068508     30.137016
     -3.218218     10.365217     10.365217     20.730433
     -3.208208      7.460526      7.460526     14.921052
     -3.198198      6.263358      6.263358     12.526715
     -3.188188      6.488824      6.488824     12.977649
     -3.178178      7.750271      7.750271     15.500542
     -3.168168      9.635764      9.635764     19.271528
     -3.158158     11.783308     11.783308     23.566615
     -3.148148     13.959682     13.959682     27.919364
     -3.138138     16.118136     16.118136     32.236272
     -3.128128     18.391417     18.391417     36.782834
     -3.118118     20.994128     20.994128     41.988256
     -3.108108     24.059422     24.059422     48.118843
     -3.098098     27.486870     27.486870     54.973740
     -3.088088     30.890715     30.890715     61.781429
     -3.078078     33.693366     33.693366     67.386732
     -3.068068     35.329608     35.329608     70.659215
     -3.058058     35.461024     35.461024     70.922048
     -3.048048     34.091403     34.091403     68.182807
     -3.038038     31.530325     31.530325     63.060650
     -3.028028     28.239136     28.239136     56.478271
     -3.018018     24.655625     24.655625     49.311249
     -3.008008     21.092859     21.092859     42.185718
     -2.997998     17.749435     17.749435     35.498871
     -2.987988     14.796136     14.796136     29.592272
     -2.977978     12.464905     12.464905     24.929811
     -2.967968     11.077488     11.077488     22.154977
     -2.957958     10.994139     10.994139     21.988278
     -2.947948     12.504570     12.504570     25.009141
     -2.937938     15.704176     15.704176     31.408351
     -2.927928     20.400086     20.400086     40.800172
     -2.917918     26.083827     26.083827     52.167654
     -2.907908     31.993804     31.993804     63.987609
     -2.897898     37.267442     37.267442     74.534885
     -2.887888     41.149087     41.149087     82.298175
     -2.877878     43.187603     43.187603     86.375206
     -2.867868     43.347237     43.347237     86.694474
     -2.857858     41.980722     41.980722     83.961445
     -2.847848     39.669515     39.669515     79.339030
     -2.837838     36.997062     36.997062     73.994123
     -2.827828     34.354227     34.354227     68.708455
     -2.817818     31.860604     31.860604     63.721208
     -2.807808     29.426507     29.426507     58.853015
     -2.797798     26.908603     26.908603     53.817206
     -2.787788     24.266632     24.266632     48.533263
     -2.777778     21.634971     21.634971     43.269943
     -2.767768     19.276630     19.276630     38.553260
     -2.757758     17.457154     17.457154     34.914309
     -2.747748     16.321008     16.321008     32.642017
     -2.737738     15.846733     15.846733     31.693465
     -2.727728     15.903551     15.903551     31.807101
     -2.717718     16.364362     16.364362     32.728724
     -2.707708     17.192112     17.192112     34.384223
     -2.697698     18.435231     18.435231     36.870461
     -2.687688     20.133235     20.133235     40.266470
     -2.677678     22.202123     22.202123     44.404245
     -2.667668     24.391251     24.391251     48.782502
     -2.657658     26.359047     26.359047     52.718093
     -2.647648     27.831719     27.831719     55.663438
     -2.637638     28.745883     28.745883     57.491765
     -2.627628     29.280334     29.280334     58.560669
     -2.617618     29.753431     29.753431     59.506863
     -2.607608     30.449558     30.449558     60.899116
     -2.597598     31.477993     31.477993     62.955986
     -2.587588     32.734447     32.734447     65.468895
     -2.577578     33.960868     33.960868     67.921737
     -2.567568     34.843308     34.843308     69.686617
     -2.557558     35.089270     35.089270     70.178540
     -2.547548     34.471402     34.471402     68.942803
     -2.537538     32.864758     32.864758     65.729517
     -2.527528     30.302289     30.302289     60.604579
     -2.517518     27.034161     27.034161     54.068322
     -2.507508     23.541930     23.541930     47.083859
     -2.497497     20.464208     20.464208     40.928416
     -2.487487     18.436017     18.436017     36.872033
     -2.477477     17.897113     17.897113     35.794226
     -2.467467     18.949862     18.949862     37.899724
     -2.457457     21.330861     21.330861     42.661722
     -2.447447     24.513058     24.513058     49.026116
     -2.437437     27.899369     27.899369     55.798738
     -2.427427     31.028139     31.028139     62.056277
     -2.417417     33.702541     33.702541     67.405082
     -2.407407     35.986337     35.986337     71.972674
     -2.397397     38.067708     38.067708     76.135416
     -2.387387     40.056481     40.056481     80.112962
     -2.377377     41.817909     41.817909     83.635817
     -2.367367     42.936631     42.936631     85.873262
     -2.357357     42.846099     42.846099     85.692198
     -2.347347     41.075441     41.075441     82.150882
     -2.337337     37.499787     37.499787     74.999574
     -2.327327     32.471162     32.471162     64.942325
     -2.317317     26.764871     26.764871     53.529741
     -2.307307     21.368336     21.368336     42.736671
     -2.297297     17.210389     17.210389     34.420778
     -2.287287     14.940215     14.940215     29.880430
     -2.277277     14.820766     14.820766     29.641533
     -2.267267     16.739107     16.739107     33.478214
     -2.257257     20.293992     20.293992     40.587985
     -2.247247     24.911962     24.911962     49.823924
     -2.237237     29.956125     29.956125     59.912250
     -2.227227     34.809499     34.809499     69.618998
     -2.217217     38.928634     38.928634     77.857267
     -2.207207     41.873791     41.873791     83.747583
     -2.197197     43.329963     43.329963     86.659925
     -2.187187     43.134349     43.134349     86.268698
     -2.177177     41.314694     41.314694     82.629387
     -2.167167     38.120745     38.120745     76.241489
     -2.157157     34.012989     34.012989     68.025978
     -2.147147     29.578694     29.578694     59.157389
     -2.137137     25.381866     25.381866     50.763733
     -2.127127     21.801513     21.801513     43.603027
     -2.117117     18.935606     18.935606     37.871212
     -2.107107     16.622674     16.622674     33.245347
     -2.097097     14.570621     14.570621     29.141242
     -2.087087     12.524175     12.524175     25.048350
     -2.077077     10.387379     10.387379     20.774758
     -2.067067      8.252504      8.252504     16.505008
     -2.057057      6.343209      6.343209     12.686419
     -2.047047      4.918646      4.918646      9.837292
     -2.037037      4.186736      4.186736      8.373473
     -2.027027      4.249337      4.249337      8.498673
     -2.017017      5.076208      5.076208     10.152416
     -2.007007      6.498187      6.498187     12.996375
     -1.996997      8.221252      8.221252     16.442504
     -1.986987      9.874272      9.874272     19.748543
     -1.976977     11.097076     11.097076     22.194152
     -1.966967     11.651360     11.651360     23.302720
     -1.956957     11.512202     11.512202     23.024404
     -1.946947     10.893977     10.893977     21.787954
     -1.936937     10.188884     10.188884     20.377768
     -1.926927      9.836357      9.836357     19.672714
     -1.916917     10.173677     10.173677     20.347354
     -1.906907     11.324959     11.324959     22.649918
     -1.896897     13.166384     13.166384     26.332769
     -1.886887     15.372890     15.372890     30.745780
     -1.876877     17.521987     17.521987     35.043974
     -1.866867     19.215555     19.215555     38.431110
     -1.856857     20.182650     20.182650     40.365299
     -1.846847     20.339123     20.339123     40.678245
     -1.836837     19.793511     19.793511     39.587022
     -1.826827     18.798692     18.798692     37.597384
     -1.816817     17.658979     17.658979     35.317958
     -1.806807     16.617792     16.617792     33.235584
     -1.796797     15.767128     15.767128     31.534255
     -1.786787     15.021560     15.021560     30.043119
     -1.776777     14.174806     14.174806     28.349612
     -1.766767     13.014267     13.014267     26.028535
     -1.756757     11.435389     11.435389     22.870778
     -1.746747      9.498193      9.498193     18.996385
     -1.736737      7.403961      7.403961     14.807923
     -1.726727      5.416004      5.416004     10.832008
     -1.716717      3.774003      3.774003      7.548005
     -1.706707      2.643422      2.643422      5.286843
     -1.696697      2.110779      2.110779      4.221559
     -1.686687      2.205431      2.205431      4.410862
     -1.676677      2.916958      2.916958      5.833917
     -1.666667      4.187873      4.187873      8.375746
     -1.656657      5.885201      5.885201     11.770402
     -1.646647      7.776692      7.776692     15.553384
     -1.636637      9.543995      9.543995     19.087990
     -1.626627     10.849884     10.849884     21.699769
