# EIG2DOS: Utility for SIESTA to obtain the electronic density of states
#  E. Artacho, Apr 1999, A. Garcia, Apr 2012
#  Nick R. Papior, Feb 2017
# ------------------------------------------
# Eigenvalues calculated from a non-polarized calculation
# Eigenvalues read from siesta.EIG
# Kpoint weights read from siesta.KP
# Using smearing parameter:   0.0500
# Using 1000 points in the energy range
# Selected bands: 1 to: 2981
# Emin, Emax in file for selected band(s):    -27.0587038    218.3298050
# Nbands, Nspin, Nk   =   2981     1     1
# E_F                 =    -4.2768 eV --> (shifted to ZERO)
# Broadening          =     0.0500 eV
#
#        E            N(up)  (=)   N(down)         Ntot
     -5.000000     36.751597     36.751597     73.503193
     -4.989990     39.318387     39.318387     78.636774
     -4.979980     41.661778     41.661778     83.323555
     -4.969970     43.277289     43.277289     86.554577
     -4.959960     43.756992     43.756992     87.513985
     -4.949950     42.916704     42.916704     85.833408
     -4.939940     40.853189     40.853189     81.706379
     -4.929930     37.930730     37.930730     75.861460
     -4.919920     34.722026     34.722026     69.444052
     -4.909910     31.929477     31.929477     63.858953
     -4.899900     30.291988     30.291988     60.583976
     -4.889890     30.460202     30.460202     60.920403
     -4.879880     32.826581     32.826581     65.653163
     -4.869870     37.337376     37.337376     74.674753
     -4.859860     43.368195     43.368195     86.736389
     -4.849850     49.765449     49.765449     99.530898
     -4.839840     55.104965     55.104965    110.209930
     -4.829830     58.108758     58.108758    116.217516
     -4.819820     58.056585     58.056585    116.113170
     -4.809810     55.006200     55.006200    110.012400
     -4.799800     49.722453     49.722453     99.444906
     -4.789790     43.361736     43.361736     86.723472
     -4.779780     37.072614     37.072614     74.145227
     -4.769770     31.688009     31.688009     63.376018
     -4.759760     27.603940     27.603940     55.207880
     -4.749750     24.830252     24.830252     49.660505
     -4.739740     23.130196     23.130196     46.260393
     -4.729730     22.162677     22.162677     44.325355
     -4.719720     21.579933     21.579933     43.159866
     -4.709710     21.075809     21.075809     42.151618
     -4.699700     20.404214     20.404214     40.808429
     -4.689690     19.392847     19.392847     38.785695
     -4.679680     17.969774     17.969774     35.939548
     -4.669670     16.204425     16.204425     32.408850
     -4.659660     14.346090     14.346090     28.692181
     -4.649650     12.831867     12.831867     25.663735
     -4.639640     12.239312     12.239312     24.478624
     -4.629630     13.174877     13.174877     26.349754
     -4.619620     16.110106     16.110106     32.220213
     -4.609610     21.199190     21.199190     42.398379
     -4.599600     28.132766     28.132766     56.265531
     -4.589590     36.096568     36.096568     72.193136
     -4.579580     43.891972     43.891972     87.783944
     -4.569570     50.224438     50.224438    100.448875
     -4.559560     54.086156     54.086156    108.172311
     -4.549550     55.092467     55.092467    110.184934
     -4.539540     53.625584     53.625584    107.251168
     -4.529530     50.710472     50.710472    101.420945
     -4.519520     47.664187     47.664187     95.328375
     -4.509510     45.658768     45.658768     91.317537
     -4.499499     45.366772     45.366772     90.733543
     -4.489489     46.807885     46.807885     93.615770
     -4.479479     49.419427     49.419427     98.838855
     -4.469469     52.286422     52.286422    104.572845
     -4.459459     54.427254     54.427254    108.854508
     -4.449449     55.043751     55.043751    110.087501
     -4.439439     53.686035     53.686035    107.372071
     -4.429429     50.322019     50.322019    100.644037
     -4.419419     45.322282     45.322282     90.644564
     -4.409409     39.375568     39.375568     78.751136
     -4.399399     33.349775     33.349775     66.699549
     -4.389389     28.117439     28.117439     56.234878
     -4.379379     24.374834     24.374834     48.749669
     -4.369369     22.494715     22.494715     44.989430
     -4.359359     22.455526     22.455526     44.911052
     -4.349349     23.876040     23.876040     47.752080
     -4.339339     26.152521     26.152521     52.305042
     -4.329329     28.656349     28.656349     57.312698
     -4.319319     30.923334     30.923334     61.846668
     -4.309309     32.768222     32.768222     65.536443
     -4.299299     34.289272     34.289272     68.578543
     -4.289289     35.770620     35.770620     71.541240
     -4.279279     37.522724     37.522724     75.045448
     -4.269269     39.713990     39.713990     79.427981
     -4.259259     42.245920     42.245920     84.491841
     -4.249249     44.717925     44.717925     89.435850
     -4.239239     46.512486     46.512486     93.024972
     -4.229229     46.994720     46.994720     93.989440
     -4.219219     45.764238     45.764238     91.528476
     -4.209209     42.850708     42.850708     85.701417
     -4.199199     38.748952     38.748952     77.497903
     -4.189189     34.259838     34.259838     68.519675
     -4.179179     30.205341     30.205341     60.410681
     -4.169169     27.154940     27.154940     54.309879
     -4.159159     25.290351     25.290351     50.580702
     -4.149149     24.455175     24.455175     48.910350
     -4.139139     24.338950     24.338950     48.677900
     -4.129129     24.686488     24.686488     49.372976
     -4.119119     25.425204     25.425204     50.850409
     -4.109109     26.652353     26.652353     53.304706
     -4.099099     28.493756     28.493756     56.987513
     -4.089089     30.910087     30.910087     61.820174
     -4.079079     33.561923     33.561923     67.123846
     -4.069069     35.828511     35.828511     71.657023
     -4.059059     37.002143     37.002143     74.004287
     -4.049049     36.580086     36.580086     73.160172
     -4.039039     34.508232     34.508232     69.016463
     -4.029029     31.245090     31.245090     62.490180
     -4.019019     27.610260     27.610260     55.220519
     -4.009009     24.499192     24.499192     48.998383
     -3.998999     22.610029     22.610029     45.220058
     -3.988989     22.301319     22.301319     44.602639
     -3.978979     23.608007     23.608007     47.216013
     -3.968969     26.353985     26.353985     52.707971
     -3.958959     30.268873     30.268873     60.537746
     -3.948949     35.052337     35.052337     70.104674
     -3.938939     40.391420     40.391420     80.782841
     -3.928929     45.972627     45.972627     91.945255
     -3.918919     51.517165     51.517165    103.034330
     -3.908909     56.824406     56.824406    113.648812
     -3.898899     61.778487     61.778487    123.556973
     -3.888889     66.285851     66.285851    132.571702
     -3.878879     70.161063     70.161063    140.322125
     -3.868869     73.028484     73.028484    146.056969
     -3.858859     74.320148     74.320148    148.640295
     -3.848849     73.410536     73.410536    146.821071
     -3.838839     69.855304     69.855304    139.710607
     -3.828829     63.634248     63.634248    127.268495
     -3.818819     55.279852     55.279852    110.559705
     -3.808809     45.816718     45.816718     91.633436
     -3.798799     36.522112     36.522112     73.044224
     -3.788789     28.597058     28.597058     57.194115
     -3.778779     22.869296     22.869296     45.738593
     -3.768769     19.624117     19.624117     39.248235
     -3.758759     18.599567     18.599567     37.199134
     -3.748749     19.124237     19.124237     38.248474
     -3.738739     20.341558     20.341558     40.683117
     -3.728729     21.456095     21.456095     42.912190
     -3.718719     21.944151     21.944151     43.888302
     -3.708709     21.683156     21.683156     43.366311
     -3.698699     20.969299     20.969299     41.938598
     -3.688689     20.413477     20.413477     40.826953
     -3.678679     20.734196     20.734196     41.468392
     -3.668669     22.499694     22.499694     44.999389
     -3.658659     25.899267     25.899267     51.798534
     -3.648649     30.628889     30.628889     61.257779
     -3.638639     35.945112     35.945112     71.890224
     -3.628629     40.877047     40.877047     81.754093
     -3.618619     44.516194     44.516194     89.032388
     -3.608609     46.268040     46.268040     92.536079
     -3.598599     45.972832     45.972832     91.945663
     -3.588589     43.872625     43.872625     87.745251
     -3.578579     40.472024     40.472024     80.944048
     -3.568569     36.368617     36.368617     72.737234
     -3.558559     32.109961     32.109961     64.219921
     -3.548549     28.097424     28.097424     56.194848
     -3.538539     24.537053     24.537053     49.074106
     -3.528529     21.439394     21.439394     42.878788
     -3.518519     18.673271     18.673271     37.346542
     -3.508509     16.064213     16.064213     32.128426
     -3.498498     13.502919     13.502919     27.005838
     -3.488488     11.016883     11.016883     22.033767
     -3.478478      8.774212      8.774212     17.548423
     -3.468468      7.023000      7.023000     14.045999
     -3.458458      5.997838      5.997838     11.995677
     -3.448448      5.831235      5.831235     11.662470
     -3.438438      6.496623      6.496623     12.993246
     -3.428428      7.796377      7.796377     15.592755
     -3.418418      9.400698      9.400698     18.801396
     -3.408408     10.935653     10.935653     21.871306
     -3.398398     12.102670     12.102670     24.205339
     -3.388388     12.790737     12.790737     25.581474
     -3.378378     13.133074     13.133074     26.266149
     -3.368368     13.476600     13.476600     26.953200
     -3.358358     14.271069     14.271069     28.542138
     -3.348348     15.921551     15.921551     31.843103
     -3.338338     18.658213     18.658213     37.316426
     -3.328328     22.456933     22.456933     44.913866
     -3.318318     27.014235     27.014235     54.028469
     -3.308308     31.767471     31.767471     63.534941
     -3.298298     35.962654     35.962654     71.925308
     -3.288288     38.785090     38.785090     77.570181
     -3.278278     39.552491     39.552491     79.104983
     -3.268268     37.924108     37.924108     75.848217
     -3.258258     34.038250     34.038250     68.076499
     -3.248248     28.498970     28.498970     56.997940
     -3.238238     22.199804     22.199804     44.399607
     -3.228228     16.057231     16.057231     32.114461
     -3.218218     10.770315     10.770315     21.540631
     -3.208208      6.698207      6.698207     13.396414
     -3.198198      3.877352      3.877352      7.754703
     -3.188188      2.135062      2.135062      4.270124
     -3.178178      1.230788      1.230788      2.461577
     -3.168168      0.971399      0.971399      1.942798
     -3.158158      1.277973      1.277973      2.555946
     -3.148148      2.204800      2.204800      4.409599
     -3.138138      3.917888      3.917888      7.835777
     -3.128128      6.637140      6.637140     13.274280
     -3.118118     10.545878     10.545878     21.091757
     -3.108108     15.681123     15.681123     31.362245
     -3.098098     21.834943     21.834943     43.669886
     -3.088088     28.509660     28.509660     57.019320
     -3.078078     34.963843     34.963843     69.927686
     -3.068068     40.356541     40.356541     80.713081
     -3.058058     43.953372     43.953372     87.906744
     -3.048048     45.322657     45.322657     90.645314
     -3.038038     44.445914     44.445914     88.891829
     -3.028028     41.702106     41.702106     83.404213
     -3.018018     37.741440     37.741440     75.482880
     -3.008008     33.309376     33.309376     66.618751
     -2.997998     29.089550     29.089550     58.179100
     -2.987988     25.607261     25.607261     51.214521
     -2.977978     23.197952     23.197952     46.395904
     -2.967968     22.022553     22.022553     44.045107
     -2.957958     22.107743     22.107743     44.215485
     -2.947948     23.391356     23.391356     46.782712
     -2.937938     25.752050     25.752050     51.504099
     -2.927928     29.005269     29.005269     58.010538
     -2.917918     32.866780     32.866780     65.733559
     -2.907908     36.916081     36.916081     73.832162
     -2.897898     40.610053     40.610053     81.220105
     -2.887888     43.378551     43.378551     86.757101
     -2.877878     44.782021     44.782021     89.564041
     -2.867868     44.660320     44.660320     89.320639
     -2.857858     43.190442     43.190442     86.380884
     -2.847848     40.811647     40.811647     81.623294
     -2.837838     38.046565     38.046565     76.093131
     -2.827828     35.303697     35.303697     70.607393
     -2.817818     32.756492     32.756492     65.512984
     -2.807808     30.351888     30.351888     60.703776
     -2.797798     27.931393     27.931393     55.862786
     -2.787788     25.389579     25.389579     50.779157
     -2.777778     22.779614     22.779614     45.559228
     -2.767768     20.310526     20.310526     40.621052
     -2.757758     18.245742     18.245742     36.491485
     -2.747748     16.770031     16.770031     33.540062
     -2.737738     15.908708     15.908708     31.817416
     -2.727728     15.548468     15.548468     31.096936
     -2.717718     15.543430     15.543430     31.086860
     -2.707708     15.833511     15.833511     31.667023
     -2.697698     16.492044     16.492044     32.984087
     -2.687688     17.664747     17.664747     35.329495
     -2.677678     19.435687     19.435687     38.871375
     -2.667668     21.709480     21.709480     43.418960
     -2.657658     24.194861     24.194861     48.389723
     -2.647648     26.511744     26.511744     53.023489
     -2.637638     28.362074     28.362074     56.724148
     -2.627628     29.660109     29.660109     59.320218
     -2.617618     30.543039     30.543039     61.086077
     -2.607608     31.261592     31.261592     62.523184
     -2.597598     32.025963     32.025963     64.051925
     -2.587588     32.900725     32.900725     65.801450
     -2.577578     33.794405     33.794405     67.588809
     -2.567568     34.518597     34.518597     69.037195
     -2.557558     34.856214     34.856214     69.712428
     -2.547548     34.601165     34.601165     69.202330
     -2.537538     33.581740     33.581740     67.163479
     -2.527528     31.704413     31.704413     63.408825
     -2.517518     29.029500     29.029500     58.059000
     -2.507508     25.840432     25.840432     51.680865
     -2.497497     22.643606     22.643606     45.287213
     -2.487487     20.062804     20.062804     40.125608
     -2.477477     18.653800     18.653800     37.307600
     -2.467467     18.717439     18.717439     37.434878
     -2.457457     20.198826     20.198826     40.397652
     -2.447447     22.722395     22.722395     45.444790
     -2.437437     25.749556     25.749556     51.499113
     -2.427427     28.788558     28.788558     57.577116
     -2.417417     31.561088     31.561088     63.122176
     -2.407407     34.048875     34.048875     68.097750
     -2.397397     36.399524     36.399524     72.799049
     -2.387387     38.739473     38.739473     77.478946
     -2.377377     40.990541     40.990541     81.981082
     -2.367367     42.790199     42.790199     85.580398
     -2.357357     43.569733     43.569733     87.139466
     -2.347347     42.768466     42.768466     85.536932
     -2.337337     40.091929     40.091929     80.183858
     -2.327327     35.694399     35.694399     71.388798
     -2.317317     30.198832     30.198832     60.397663
     -2.307307     24.544277     24.544277     49.088554
     -2.297297     19.729238     19.729238     39.458477
     -2.287287     16.556282     16.556282     33.112564
     -2.277277     15.464614     15.464614     30.929227
     -2.267267     16.484773     16.484773     32.969546
     -2.257257     19.298606     19.298606     38.597212
     -2.247247     23.360785     23.360785     46.721569
     -2.237237     28.035170     28.035170     56.070340
     -2.227227     32.708852     32.708852     65.417704
     -2.217217     36.861253     36.861253     73.722505
     -2.207207     40.084767     40.084767     80.169534
     -2.197197     42.075331     42.075331     84.150662
     -2.187187     42.626027     42.626027     85.252054
     -2.177177     41.650983     41.650983     83.301966
     -2.167167     39.237321     39.237321     78.474641
     -2.157157     35.686454     35.686454     71.372907
     -2.147147     31.491984     31.491984     62.983968
     -2.137137     27.228587     27.228587     54.457175
     -2.127127     23.383128     23.383128     46.766256
     -2.117117     20.206605     20.206605     40.413210
     -2.107107     17.665497     17.665497     35.330995
     -2.097097     15.518442     15.518442     31.036883
     -2.087087     13.473257     13.473257     26.946514
     -2.077077     11.337988     11.337988     22.675976
     -2.067067      9.093099      9.093099     18.186198
     -2.057057      6.865719      6.865719     13.731439
     -2.047047      4.841600      4.841600      9.683200
     -2.037037      3.173227      3.173227      6.346454
     -2.027027      1.927712      1.927712      3.855425
     -2.017017      1.084903      1.084903      2.169807
     -2.007007      0.569097      0.569097      1.138194
     -1.996997      0.289495      0.289495      0.578991
     -1.986987      0.172036      0.172036      0.344072
     -1.976977      0.177615      0.177615      0.355229
     -1.966967      0.309877      0.309877      0.619754
     -1.956957      0.616753      0.616753      1.233506
     -1.946947      1.185901      1.185901      2.371802
     -1.936937      2.129898      2.129898      4.259796
     -1.926927      3.556644      3.556644      7.113288
     -1.916917      5.526314      5.526314     11.052628
     -1.906907      8.006210      8.006210     16.012421
     -1.896897     10.842765     10.842765     21.685529
     -1.886887     13.768649     13.768649     27.537298
     -1.876877     16.450508     16.450508     32.901017
     -1.866867     18.565475     18.565475     37.130951
     -1.856857     19.882444     19.882444     39.764888
     -1.846847     20.322641     20.322641     40.645281
     -1.836837     19.980666     19.980666     39.961333
     -1.826827     19.096488     19.096488     38.192977
     -1.816817     17.980170     17.980170     35.960339
     -1.806807     16.907727     16.907727     33.815454
     -1.796797     16.025601     16.025601     32.051202
     -1.786787     15.309312     15.309312     30.618624
     -1.776777     14.604358     14.604358     29.208716
     -1.766767     13.736175     13.736175     27.472350
     -1.756757     12.634343     12.634343     25.268687
     -1.746747     11.403302     11.403302     22.806603
     -1.736737     10.298960     10.298960     20.597919
     -1.726727      9.621649      9.621649     19.243297
     -1.716717      9.580136      9.580136     19.160271
     -1.706707     10.194991     10.194991     20.389981
     -1.696697     11.287946     11.287946     22.575892
     -1.686687     12.559923     12.559923     25.119846
     -1.676677     13.715630     13.715630     27.431259
     -1.666667     14.569127     14.569127     29.138254
     -1.656657     15.076536     15.076536     30.153073
     -1.646647     15.285934     15.285934     30.571868
     -1.636637     15.245986     15.245986     30.491972
     -1.626627     14.940580     14.940580     29.881161
