# EIG2DOS: Utility for SIESTA to obtain the electronic density of states
#  E. Artacho, Apr 1999, A. Garcia, Apr 2012
#  Nick R. Papior, Feb 2017
# ------------------------------------------
# Eigenvalues calculated from a non-polarized calculation
# Eigenvalues read from siesta.EIG
# Kpoint weights read from siesta.KP
# Using smearing parameter:   0.0500
# Using 1000 points in the energy range
# Selected bands: 1 to: 2981
# Emin, Emax in file for selected band(s):    -27.0705144    218.3296910
# Nbands, Nspin, Nk   =   2981     1     1
# E_F                 =    -4.2838 eV --> (shifted to ZERO)
# Broadening          =     0.0500 eV
#
#        E            N(up)  (=)   N(down)         Ntot
     -5.000000     43.483466     43.483466     86.966932
     -4.989990     45.321939     45.321939     90.643878
     -4.979980     46.365002     46.365002     92.730004
     -4.969970     46.547781     46.547781     93.095561
     -4.959960     45.795475     45.795475     91.590951
     -4.949950     44.084871     44.084871     88.169742
     -4.939940     41.515141     41.515141     83.030282
     -4.929930     38.354723     38.354723     76.709446
     -4.919920     35.049863     35.049863     70.099727
     -4.909910     32.195304     32.195304     64.390609
     -4.899900     30.465839     30.465839     60.931678
     -4.889890     30.497082     30.497082     60.994164
     -4.879880     32.708678     32.708678     65.417356
     -4.869870     37.099893     37.099893     74.199786
     -4.859860     43.100934     43.100934     86.201868
     -4.849850     49.587865     49.587865     99.175730
     -4.839840     55.123269     55.123269    110.246538
     -4.829830     58.373904     58.373904    116.747809
     -4.819820     58.543382     58.543382    117.086764
     -4.809810     55.623432     55.623432    111.246865
     -4.799800     50.347712     50.347712    100.695424
     -4.789790     43.883189     43.883189     87.766378
     -4.779780     37.419815     37.419815     74.839631
     -4.769770     31.843115     31.843115     63.686230
     -4.759760     27.595407     27.595407     55.190815
     -4.749750     24.716702     24.716702     49.433404
     -4.739740     22.981622     22.981622     45.963245
     -4.729730     22.043319     22.043319     44.086638
     -4.719720     21.535260     21.535260     43.070520
     -4.709710     21.125545     21.125545     42.251090
     -4.699700     20.542331     20.542331     41.084661
     -4.689690     19.593092     19.593092     39.186183
     -4.679680     18.192959     18.192959     36.385918
     -4.669670     16.403508     16.403508     32.807017
     -4.659660     14.467684     14.467684     28.935367
     -4.649650     12.816640     12.816640     25.633281
     -4.639640     12.026340     12.026340     24.052680
     -4.629630     12.714416     12.714416     25.428831
     -4.619620     15.385074     15.385074     30.770147
     -4.609610     20.248866     20.248866     40.497732
     -4.599600     27.066117     27.066117     54.132234
     -4.589590     35.081767     35.081767     70.163535
     -4.579580     43.116552     43.116552     86.233103
     -4.569570     49.835273     49.835273     99.670547
     -4.559560     54.132136     54.132136    108.264271
     -4.549550     55.495413     55.495413    110.990826
     -4.539540     54.192830     54.192830    108.385661
     -4.529530     51.181961     51.181961    102.363923
     -4.519520     47.771192     47.771192     95.542384
     -4.509510     45.171019     45.171019     90.342038
     -4.499499     44.119663     44.119663     88.239327
     -4.489489     44.720244     44.720244     89.440487
     -4.479479     46.519861     46.519861     93.039723
     -4.469469     48.754164     48.754164     97.508327
     -4.459459     50.627591     50.627591    101.255182
     -4.449449     51.518015     51.518015    103.036029
     -4.439439     51.062600     51.062600    102.125199
     -4.429429     49.153299     49.153299     98.306597
     -4.419419     45.903427     45.903427     91.806854
     -4.409409     41.628045     41.628045     83.256091
     -4.399399     36.832451     36.832451     73.664902
     -4.389389     32.166676     32.166676     64.333353
     -4.379379     28.310987     28.310987     56.621974
     -4.369369     25.805164     25.805164     51.610327
     -4.359359     24.887062     24.887062     49.774124
     -4.349349     25.421878     25.421878     50.843757
     -4.339339     26.966952     26.966952     53.933903
     -4.329329     28.949593     28.949593     57.899185
     -4.319319     30.879649     30.879649     61.759298
     -4.309309     32.506447     32.506447     65.012894
     -4.299299     33.863153     33.863153     67.726306
     -4.289289     35.194825     35.194825     70.389650
     -4.279279     36.808701     36.808701     73.617403
     -4.269269     38.902668     38.902668     77.805337
     -4.259259     41.427157     41.427157     82.854313
     -4.249249     44.028984     44.028984     88.057968
     -4.239239     46.112227     46.112227     92.224453
     -4.229229     47.018702     47.018702     94.037405
     -4.219219     46.276351     46.276351     92.552703
     -4.209209     43.812482     43.812482     87.624965
     -4.199199     40.022502     40.022502     80.045005
     -4.189189     35.645313     35.645313     71.290625
     -4.179179     31.497230     31.497230     62.994459
     -4.169169     28.193728     28.193728     56.387455
     -4.159159     25.990649     25.990649     51.981298
     -4.149149     24.804396     24.804396     49.608792
     -4.139139     24.373733     24.373733     48.747465
     -4.129129     24.461674     24.461674     48.923347
     -4.119119     24.990689     24.990689     49.981377
     -4.109109     26.047742     26.047742     52.095483
     -4.099099     27.761276     27.761276     55.522552
     -4.089089     30.115716     30.115716     60.231432
     -4.079079     32.808225     32.808225     65.616451
     -4.069069     35.245187     35.245187     70.490374
     -4.059059     36.712489     36.712489     73.424978
     -4.049049     36.657096     36.657096     73.314192
     -4.039039     34.942645     34.942645     69.885289
     -4.029029     31.942725     31.942725     63.885450
     -4.019019     28.420181     28.420181     56.840361
     -4.009009     25.258195     25.258195     50.516391
     -3.998999     23.182993     23.182993     46.365986
     -3.988989     22.603418     22.603418     45.206835
     -3.978979     23.607252     23.607252     47.214503
     -3.968969     26.061760     26.061760     52.123521
     -3.958959     29.727284     29.727284     59.454568
     -3.948949     34.322488     34.322488     68.644976
     -3.938939     39.542001     39.542001     79.084003
     -3.928929     45.067787     45.067787     90.135574
     -3.918919     50.606039     50.606039    101.212078
     -3.908909     55.937700     55.937700    111.875400
     -3.898899     60.936186     60.936186    121.872373
     -3.888889     65.514061     65.514061    131.028122
     -3.878879     69.509018     69.509018    139.018037
     -3.868869     72.574075     72.574075    145.148150
     -3.858859     74.156568     74.156568    148.313135
     -3.848849     73.616227     73.616227    147.232454
     -3.838839     70.458960     70.458960    140.917919
     -3.828829     64.590798     64.590798    129.181596
     -3.818819     56.469557     56.469557    112.939114
     -3.808809     47.069655     47.069655     94.139309
     -3.798799     37.659661     37.659661     75.319323
     -3.788789     29.475715     29.475715     58.951431
     -3.778779     23.412655     23.412655     46.825310
     -3.768769     19.834649     19.834649     39.669299
     -3.758759     18.549237     18.549237     37.098473
     -3.748749     18.928779     18.928779     37.857559
     -3.738739     20.126305     20.126305     40.252610
     -3.728729     21.322021     21.322021     42.644042
     -3.718719     21.942134     21.942134     43.884268
     -3.708709     21.802623     21.802623     43.605247
     -3.698699     21.144405     21.144405     42.288809
     -3.688689     20.545754     20.545754     41.091508
     -3.678679     20.725878     20.725878     41.451756
     -3.668669     22.287834     22.287834     44.575668
     -3.658659     25.479238     25.479238     50.958475
     -3.648649     30.058481     30.058481     60.116961
     -3.638639     35.327387     35.327387     70.654775
     -3.628629     40.328900     40.328900     80.657799
     -3.618619     44.135561     44.135561     88.271122
     -3.608609     46.112164     46.112164     92.224328
     -3.598599     46.053048     46.053048     92.106096
     -3.588589     44.162514     44.162514     88.325028
     -3.578579     40.921209     40.921209     81.842418
     -3.568569     36.915951     36.915951     73.831902
     -3.558559     32.694326     32.694326     65.388652
     -3.548549     28.667066     28.667066     57.334132
     -3.538539     25.057291     25.057291     50.114582
     -3.528529     21.896179     21.896179     43.792359
     -3.518519     19.069955     19.069955     38.139910
     -3.508509     16.412081     16.412081     32.824161
     -3.498498     13.809910     13.809910     27.619820
     -3.488488     11.280094     11.280094     22.560189
     -3.478478      8.979405      8.979405     17.958810
     -3.468468      7.150475      7.150475     14.300950
     -3.458458      6.031457      6.031457     12.062914
     -3.448448      5.767046      5.767046     11.534091
     -3.438438      6.348398      6.348398     12.696796
     -3.428428      7.596090      7.596090     15.192180
     -3.418418      9.192601      9.192601     18.385203
     -3.408408     10.764173     10.764173     21.528347
     -3.398398     11.997124     11.997124     23.994249
     -3.388388     12.752479     12.752479     25.504959
     -3.378378     13.130795     13.130795     26.261589
     -3.368368     13.452359     13.452359     26.904718
     -3.358358     14.155034     14.155034     28.310068
     -3.348348     15.650517     15.650517     31.301034
     -3.338338     18.193434     18.193434     36.386868
     -3.328328     21.799024     21.799024     43.598047
     -3.318318     26.213587     26.213587     52.427174
     -3.308308     30.926458     30.926458     61.852917
     -3.298298     35.223528     35.223528     70.447056
     -3.288288     38.299850     38.299850     76.599700
     -3.278278     39.439853     39.439853     78.879705
     -3.268268     38.229191     38.229191     76.458382
     -3.258258     34.714154     34.714154     69.428307
     -3.248248     29.420968     29.420968     58.841937
     -3.238238     23.206590     23.206590     46.413180
     -3.228228     17.000146     17.000146     34.000293
     -3.218218     11.549499     11.549499     23.098998
     -3.208208      7.274215      7.274215     14.548430
     -3.198198      4.260348      4.260348      8.520697
     -3.188188      2.362594      2.362594      4.725187
     -3.178178      1.346061      1.346061      2.692122
     -3.168168      1.009357      1.009357      2.018714
     -3.158158      1.261047      1.261047      2.522095
     -3.148148      2.146973      2.146973      4.293946
     -3.138138      3.834608      3.834608      7.669217
     -3.128128      6.557781      6.557781     13.115562
     -3.118118     10.523494     10.523494     21.046987
     -3.108108     15.792063     15.792063     31.584127
     -3.098098     22.161706     22.161706     44.323413
     -3.088088     29.107122     29.107122     58.214244
     -3.078078     35.821128     35.821128     71.642255
     -3.068068     41.377367     41.377367     82.754735
     -3.058058     44.976859     44.976859     89.953719
     -3.048048     46.188778     46.188778     92.377556
     -3.038038     45.081484     45.081484     90.162967
     -3.028028     42.181526     42.181526     84.363053
     -3.018018     38.278741     38.278741     76.557483
     -3.008008     34.168437     34.168437     68.336873
     -2.997998     30.443724     30.443724     60.887447
     -2.987988     27.413373     27.413373     54.826747
     -2.977978     25.152029     25.152029     50.304058
     -2.967968     23.630907     23.630907     47.261813
     -2.957958     22.852047     22.852047     45.704095
     -2.947948     22.918186     22.918186     45.836371
     -2.937938     24.003143     24.003143     48.006287
     -2.927928     26.233904     26.233904     52.467808
     -2.917918     29.541725     29.541725     59.083451
     -2.907908     33.565126     33.565126     67.130252
     -2.897898     37.672826     37.672826     75.345651
     -2.887888     41.119277     41.119277     82.238554
     -2.877878     43.275400     43.275400     86.550800
     -2.867868     43.832234     43.832234     87.664467
     -2.857858     42.882904     42.882904     85.765809
     -2.847848     40.845909     40.845909     81.691819
     -2.837838     38.269324     38.269324     76.538648
     -2.827828     35.610828     35.610828     71.221656
     -2.817818     33.094862     33.094862     66.189724
     -2.807808     30.704288     30.704288     61.408576
     -2.797798     28.293592     28.293592     56.587184
     -2.787788     25.750442     25.750442     51.500884
     -2.777778     23.113078     23.113078     46.226156
     -2.767768     20.581712     20.581712     41.163425
     -2.757758     18.425469     18.425469     36.850938
     -2.747748     16.846980     16.846980     33.693960
     -2.737738     15.889924     15.889924     31.779848
     -2.727728     15.446524     15.446524     30.893047
     -2.717718     15.358312     15.358312     30.716624
     -2.707708     15.542789     15.542789     31.085579
     -2.697698     16.059711     16.059711     32.119422
     -2.687688     17.067870     17.067870     34.135739
     -2.677678     18.694921     18.694921     37.389842
     -2.667668     20.903457     20.903457     41.806913
     -2.657658     23.444909     23.444909     46.889818
     -2.647648     25.940157     25.940157     51.880315
     -2.637638     28.044124     28.044124     56.088248
     -2.627628     29.595460     29.595460     59.190919
     -2.617618     30.661532     30.661532     61.323064
     -2.607608     31.458216     31.458216     62.916433
     -2.597598     32.204249     32.204249     64.408499
     -2.587588     33.003109     33.003109     66.006219
     -2.577578     33.810807     33.810807     67.621614
     -2.567568     34.478892     34.478892     68.957783
     -2.557558     34.817223     34.817223     69.634446
     -2.547548     34.633176     34.633176     69.266352
     -2.537538     33.751999     33.751999     67.503998
     -2.527528     32.054804     32.054804     64.109607
     -2.517518     29.553233     29.553233     59.106467
     -2.507508     26.470021     26.470021     52.940043
     -2.497497     23.261216     23.261216     46.522433
     -2.487487     20.533486     20.533486     41.066972
     -2.477477     18.869315     18.869315     37.738630
     -2.467467     18.631977     18.631977     37.263954
     -2.457457     19.841515     19.841515     39.683030
     -2.447447     22.182300     22.182300     44.364600
     -2.437437     25.140947     25.140947     50.281894
     -2.427427     28.212103     28.212103     56.424205
     -2.417417     31.077257     31.077257     62.154514
     -2.407407     33.673304     33.673304     67.346607
     -2.397397     36.119510     36.119510     72.239020
     -2.387387     38.541168     38.541168     77.082336
     -2.377377     40.882211     40.882211     81.764422
     -2.367367     42.809605     42.809605     85.619211
     -2.357357     43.771670     43.771670     87.543341
     -2.347347     43.198002     43.198002     86.396003
     -2.337337     40.756007     40.756007     81.512014
     -2.327327     36.545762     36.545762     73.091525
     -2.317317     31.140669     31.140669     62.281337
     -2.307307     25.453955     25.453955     50.907909
     -2.297297     20.490411     20.490411     40.980823
     -2.287287     17.085680     17.085680     34.171359
     -2.277277     15.724168     15.724168     31.448335
     -2.267267     16.478030     16.478030     32.956059
     -2.257257     19.057442     19.057442     38.114884
     -2.247247     22.931025     22.931025     45.862051
     -2.237237     27.467750     27.467750     54.935499
     -2.227227     32.058658     32.058658     64.117315
     -2.217217     36.191022     36.191022     72.382043
     -2.207207     39.468187     39.468187     78.936373
     -2.197197     41.593167     41.593167     83.186334
     -2.187187     42.352330     42.352330     84.704660
     -2.177177     41.632360     41.632360     83.264721
     -2.167167     39.474149     39.474149     78.948298
     -2.157157     36.126929     36.126929     72.253859
     -2.147147     32.045514     32.045514     64.091028
     -2.137137     27.795469     27.795469     55.590938
     -2.127127     23.887955     23.887955     47.775911
     -2.117117     20.619716     20.619716     41.239433
     -2.107107     18.002741     18.002741     36.005482
     -2.097097     15.821289     15.821289     31.642577
     -2.087087     13.781436     13.781436     27.562872
     -2.077077     11.669181     11.669181     23.338361
     -2.067067      9.438108      9.438108     18.876217
     -2.057057      7.197797      7.197797     14.395594
     -2.047047      5.131726      5.131726     10.263452
     -2.037037      3.402392      3.402392      6.804784
     -2.027027      2.091496      2.091496      4.182992
     -2.017017      1.190921      1.190921      2.381842
     -2.007007      0.630933      0.630933      1.261867
     -1.996997      0.320769      0.320769      0.641539
     -1.986987      0.182467      0.182467      0.364934
     -1.976977      0.171156      0.171156      0.342313
     -1.966967      0.284196      0.284196      0.568392
     -1.956957      0.563539      0.563539      1.127078
     -1.946947      1.092225      1.092225      2.184450
     -1.936937      1.981287      1.981287      3.962574
     -1.926927      3.342221      3.342221      6.684441
     -1.916917      5.245147      5.245147     10.490293
     -1.906907      7.672537      7.672537     15.345075
     -1.896897     10.487126     10.487126     20.974252
     -1.886887     13.433027     13.433027     26.866054
     -1.876877     16.178164     16.178164     32.356327
     -1.866867     18.388819     18.388819     36.777638
     -1.856857     19.813396     19.813396     39.626792
     -1.846847     20.348999     20.348999     40.697999
     -1.836837     20.069895     20.069895     40.139790
     -1.826827     19.206120     19.206120     38.412240
     -1.816817     18.072146     18.072146     36.144293
     -1.806807     16.962238     16.962238     33.924476
     -1.796797     16.048981     16.048981     32.097963
     -1.786787     15.331723     15.331723     30.663445
     -1.776777     14.667077     14.667077     29.334155
     -1.766767     13.873713     13.873713     27.747425
     -1.756757     12.859746     12.859746     25.719491
     -1.746747     11.703330     11.703330     23.406660
     -1.736737     10.640075     10.640075     21.280151
     -1.726727      9.961911      9.961911     19.923821
     -1.716717      9.880054      9.880054     19.760107
     -1.706707     10.422965     10.422965     20.845930
     -1.696697     11.420645     11.420645     22.841290
     -1.686687     12.581270     12.581270     25.162539
     -1.676677     13.618076     13.618076     27.236151
     -1.666667     14.358171     14.358171     28.716342
     -1.656657     14.776088     14.776088     29.552176
     -1.646647     14.940154     14.940154     29.880307
     -1.636637     14.913834     14.913834     29.827667
     -1.626627     14.682343     14.682343     29.364686
