# EIG2DOS: Utility for SIESTA to obtain the electronic density of states
#  E. Artacho, Apr 1999, A. Garcia, Apr 2012
#  Nick R. Papior, Feb 2017
# ------------------------------------------
# Eigenvalues calculated from a non-polarized calculation
# Eigenvalues read from siesta.EIG
# Kpoint weights read from siesta.KP
# Using smearing parameter:   0.0500
# Using 1000 points in the energy range
# Selected bands: 1 to: 2981
# Emin, Emax in file for selected band(s):    -27.2391547    218.3690520
# Nbands, Nspin, Nk   =   2981     1     1
# E_F                 =    -4.2305 eV --> (shifted to ZERO)
# Broadening          =     0.0500 eV
#
#        E            N(up)  (=)   N(down)         Ntot
     -5.000000     31.559048     31.559048     63.118095
     -4.989990     36.143196     36.143196     72.286391
     -4.979980     40.486604     40.486604     80.973208
     -4.969970     43.892928     43.892928     87.785856
     -4.959960     45.744415     45.744415     91.488831
     -4.949950     45.702538     45.702538     91.405077
     -4.939940     43.828173     43.828173     87.656347
     -4.929930     40.583032     40.583032     81.166064
     -4.919920     36.729976     36.729976     73.459951
     -4.909910     33.181568     33.181568     66.363135
     -4.899900     30.838057     30.838057     61.676114
     -4.889890     30.426149     30.426149     60.852297
     -4.879880     32.335172     32.335172     64.670345
     -4.869870     36.468994     36.468994     72.937989
     -4.859860     42.172898     42.172898     84.345796
     -4.849850     48.310031     48.310031     96.620062
     -4.839840     53.518768     53.518768    107.037536
     -4.829830     56.592459     56.592459    113.184917
     -4.819820     56.841526     56.841526    113.683052
     -4.809810     54.284302     54.284302    108.568604
     -4.799800     49.585794     49.585794     99.171587
     -4.789790     43.783204     43.783204     87.566407
     -4.779780     37.931726     37.931726     75.863451
     -4.769770     32.820559     32.820559     65.641118
     -4.759760     28.847632     28.847632     57.695264
     -4.749750     26.050745     26.050745     52.101491
     -4.739740     24.229070     24.229070     48.458141
     -4.729730     23.077645     23.077645     46.155290
     -4.719720     22.286011     22.286011     44.572023
     -4.709710     21.590971     21.590971     43.181942
     -4.699700     20.800657     20.800657     41.601314
     -4.689690     19.814961     19.814961     39.629922
     -4.679680     18.657054     18.657054     37.314108
     -4.669670     17.509026     17.509026     35.018052
     -4.659660     16.724574     16.724574     33.449149
     -4.649650     16.788218     16.788218     33.576435
     -4.639640     18.209531     18.209531     36.419063
     -4.629630     21.372125     21.372125     42.744249
     -4.619620     26.381608     26.381608     52.763216
     -4.609610     32.962559     32.962559     65.925118
     -4.599600     40.443313     40.443313     80.886626
     -4.589590     47.847981     47.847981     95.695962
     -4.579580     54.091268     54.091268    108.182537
     -4.569570     58.241518     58.241518    116.483036
     -4.559560     59.783512     59.783512    119.567024
     -4.549550     58.790412     58.790412    117.580824
     -4.539540     55.925461     55.925461    111.850922
     -4.529530     52.247842     52.247842    104.495684
     -4.519520     48.876310     48.876310     97.752620
     -4.509510     46.630815     46.630815     93.261630
     -4.499499     45.789183     45.789183     91.578366
     -4.489489     46.050056     46.050056     92.100111
     -4.479479     46.705181     46.705181     93.410362
     -4.469469     46.936840     46.936840     93.873680
     -4.459459     46.112036     46.112036     92.224072
     -4.449449     43.962730     43.962730     87.925461
     -4.439439     40.607020     40.607020     81.214041
     -4.429429     36.442602     36.442602     72.885204
     -4.419419     31.991369     31.991369     63.982737
     -4.409409     27.771686     27.771686     55.543371
     -4.399399     24.231565     24.231565     48.463130
     -4.389389     21.724752     21.724752     43.449505
     -4.379379     20.488513     20.488513     40.977027
     -4.369369     20.600345     20.600345     41.200690
     -4.359359     21.931951     21.931951     43.863902
     -4.349349     24.146073     24.146073     48.292146
     -4.339339     26.770211     26.770211     53.540421
     -4.329329     29.337482     29.337482     58.674963
     -4.319319     31.540227     31.540227     63.080455
     -4.309309     33.327156     33.327156     66.654312
     -4.299299     34.897354     34.897354     69.794709
     -4.289289     36.588065     36.588065     73.176130
     -4.279279     38.694617     38.694617     77.389234
     -4.269269     41.287120     41.287120     82.574240
     -4.259259     44.096722     44.096722     88.193443
     -4.249249     46.531771     46.531771     93.063542
     -4.239239     47.844854     47.844854     95.689708
     -4.229229     47.407385     47.407385     94.814770
     -4.219219     44.984219     44.984219     89.968437
     -4.209209     40.878388     40.878388     81.756777
     -4.199199     35.863729     35.863729     71.727458
     -4.189189     30.924969     30.924969     61.849939
     -4.179179     26.923327     26.923327     53.846654
     -4.169169     24.340307     24.340307     48.680615
     -4.159159     23.204108     23.204108     46.408216
     -4.149149     23.205571     23.205571     46.411141
     -4.139139     23.922467     23.922467     47.844935
     -4.129129     25.034134     25.034134     50.068268
     -4.119119     26.429188     26.429188     52.858376
     -4.109109     28.166850     28.166850     56.333700
     -4.099099     30.321046     30.321046     60.642092
     -4.089089     32.793223     32.793223     65.586445
     -4.079079     35.203137     35.203137     70.406274
     -4.069069     36.938696     36.938696     73.877391
     -4.059059     37.367479     37.367479     74.734958
     -4.049049     36.118873     36.118873     72.237747
     -4.039039     33.293450     33.293450     66.586899
     -4.029029     29.485311     29.485311     58.970622
     -4.019019     25.601364     25.601364     51.202728
     -4.009009     22.568215     22.568215     45.136431
     -3.998999     21.066350     21.066350     42.132700
     -3.988989     21.397790     21.397790     42.795579
     -3.978979     23.508176     23.508176     47.016352
     -3.968969     27.106177     27.106177     54.212353
     -3.958959     31.796803     31.796803     63.593605
     -3.948949     37.173946     37.173946     74.347893
     -3.938939     42.867500     42.867500     85.734999
     -3.928929     48.570204     48.570204     97.140409
     -3.918919     54.061069     54.061069    108.122138
     -3.908909     59.212895     59.212895    118.425791
     -3.898899     63.955955     63.955955    127.911910
     -3.888889     68.189130     68.189130    136.378260
     -3.878879     71.672799     71.672799    143.345597
     -3.868869     73.970503     73.970503    147.941006
     -3.858859     74.499470     74.499470    148.998939
     -3.848849     72.700535     72.700535    145.401070
     -3.838839     68.271868     68.271868    136.543737
     -3.828829     61.366195     61.366195    122.732389
     -3.818819     52.655350     52.655350    105.310701
     -3.808809     43.219371     43.219371     86.438741
     -3.798799     34.292553     34.292553     68.585106
     -3.788789     26.957271     26.957271     53.914541
     -3.778779     21.890630     21.890630     43.781261
     -3.768769     19.238939     19.238939     38.477877
     -3.758759     18.642592     18.642592     37.285185
     -3.748749     19.386457     19.386457     38.772914
     -3.738739     20.623355     20.623355     41.246710
     -3.728729     21.610894     21.610894     43.221788
     -3.718719     21.906784     21.906784     43.813569
     -3.708709     21.478665     21.478665     42.957329
     -3.698699     20.700111     20.700111     41.400222
     -3.688689     20.226759     20.226759     40.453517
     -3.678679     20.776250     20.776250     41.552500
     -3.668669     22.868945     22.868945     45.737890
     -3.658659     26.611557     26.611557     53.223114
     -3.648649     31.606577     31.606577     63.213154
     -3.638639     37.034283     37.034283     74.068566
     -3.628629     41.887122     41.887122     83.774245
     -3.618619     45.267946     45.267946     90.535892
     -3.608609     46.634017     46.634017     93.268033
     -3.598599     45.899459     45.899459     91.798918
     -3.588589     43.381936     43.381936     86.763872
     -3.578579     39.647642     39.647642     79.295285
     -3.568569     35.332470     35.332470     70.664939
     -3.558559     30.995067     30.995067     61.990133
     -3.548549     27.021443     27.021443     54.042886
     -3.538539     23.582023     23.582023     47.164045
     -3.528529     20.643096     20.643096     41.286191
     -3.518519     18.034487     18.034487     36.068974
     -3.508509     15.558519     15.558519     31.117038
     -3.498498     13.101190     13.101190     26.202381
     -3.488488     10.698530     10.698530     21.397061
     -3.478478      8.531242      8.531242     17.062484
     -3.468468      6.856197      6.856197     13.712393
     -3.458458      5.909393      5.909393     11.818786
     -3.448448      5.818156      5.818156     11.636313
     -3.438438      6.547502      6.547502     13.095004
     -3.428428      7.892410      7.892410     15.784819
     -3.418418      9.520820      9.520820     19.041640
     -3.408408     11.064626     11.064626     22.129252
     -3.398398     12.239536     12.239536     24.479072
     -3.388388     12.954046     12.954046     25.908093
     -3.378378     13.360052     13.360052     26.720105
     -3.368368     13.816611     13.816611     27.633222
     -3.358358     14.777875     14.777875     29.555750
     -3.348348     16.651149     16.651149     33.302297
     -3.338338     19.677177     19.677177     39.354354
     -3.328328     23.860560     23.860560     47.721120
     -3.318318     28.947086     28.947086     57.894172
     -3.308308     34.434418     34.434418     68.868836
     -3.298298     39.617822     39.617822     79.235643
     -3.288288     43.689660     43.689660     87.379320
     -3.278278     45.901051     45.901051     91.802103
     -3.268268     45.753824     45.753824     91.507648
     -3.258258     43.152015     43.152015     86.304030
     -3.248248     38.442427     38.442427     76.884854
     -3.238238     32.320910     32.320910     64.641821
     -3.228228     25.644680     25.644680     51.289359
     -3.218218     19.229339     19.229339     38.458678
     -3.208208     13.702945     13.702945     27.405890
     -3.198198      9.450889      9.450889     18.901778
     -3.188188      6.642029      6.642029     13.284057
     -3.178178      5.299039      5.299039     10.598078
     -3.168168      5.370442      5.370442     10.740884
     -3.158158      6.773818      6.773818     13.547637
     -3.148148      9.400712      9.400712     18.801425
     -3.138138     13.093759     13.093759     26.187519
     -3.128128     17.616916     17.616916     35.233832
     -3.118118     22.637531     22.637531     45.275063
     -3.108108     27.729878     27.729878     55.459756
     -3.098098     32.403016     32.403016     64.806032
     -3.088088     36.155039     36.155039     72.310077
     -3.078078     38.553934     38.553934     77.107868
     -3.068068     39.332980     39.332980     78.665959
     -3.058058     38.468099     38.468099     76.936199
     -3.048048     36.194165     36.194165     72.388329
     -3.038038     32.935836     32.935836     65.871672
     -3.028028     29.173785     29.173785     58.347571
     -3.018018     25.309730     25.309730     50.619460
     -3.008008     21.599237     21.599237     43.198473
     -2.997998     18.181016     18.181016     36.362031
     -2.987988     15.172425     15.172425     30.344849
     -2.977978     12.764146     12.764146     25.528292
     -2.967968     11.254013     11.254013     22.508025
     -2.957958     10.998902     10.998902     21.997804
     -2.947948     12.304885     12.304885     24.609770
     -2.937938     15.298463     15.298463     30.596927
     -2.927928     19.824718     19.824718     39.649435
     -2.917918     25.410758     25.410758     50.821516
     -2.907908     31.319233     31.319233     62.638465
     -2.897898     36.693494     36.693494     73.386989
     -2.887888     40.762489     40.762489     81.524978
     -2.877878     43.040779     43.040779     86.081558
     -2.867868     43.447348     43.447348     86.894696
     -2.857858     42.290384     42.290384     84.580767
     -2.847848     40.119436     40.119436     80.238872
     -2.837838     37.506557     37.506557     75.013113
     -2.827828     34.852142     34.852142     69.704285
     -2.817818     32.298743     32.298743     64.597486
     -2.807808     29.781180     29.781180     59.562360
     -2.797798     27.172131     27.172131     54.344261
     -2.787788     24.435997     24.435997     48.871994
     -2.777778     21.705595     21.705595     43.411190
     -2.767768     19.244570     19.244570     38.489140
     -2.757758     17.325826     17.325826     34.651652
     -2.747748     16.104091     16.104091     32.208181
     -2.737738     15.561183     15.561183     31.122365
     -2.727728     15.554947     15.554947     31.109895
     -2.717718     15.935479     15.935479     31.870959
     -2.707708     16.647426     16.647426     33.294852
     -2.697698     17.745472     17.745472     35.490944
     -2.687688     19.309192     19.309192     38.618384
     -2.677678     21.315879     21.315879     42.631758
     -2.667668     23.565622     23.565622     47.131243
     -2.657658     25.723396     25.723396     51.446792
     -2.647648     27.464543     27.464543     54.929086
     -2.637638     28.636027     28.636027     57.272055
     -2.627628     29.330005     29.330005     58.660011
     -2.617618     29.821956     29.821956     59.643911
     -2.607608     30.413635     30.413635     60.827269
     -2.597598     31.277709     31.277709     62.555418
     -2.587588     32.387437     32.387437     64.774873
     -2.577578     33.547733     33.547733     67.095466
     -2.567568     34.479822     34.479822     68.959643
     -2.557558     34.898310     34.898310     69.796620
     -2.547548     34.557139     34.557139     69.114279
     -2.537538     33.285955     33.285955     66.571910
     -2.527528     31.046347     31.046347     62.092695
     -2.517518     28.002783     28.002783     56.005566
     -2.507508     24.561817     24.561817     49.123635
     -2.497497     21.327195     21.327195     42.654390
     -2.487487     18.957746     18.957746     37.915491
     -2.477477     17.972387     17.972387     35.944773
     -2.467467     18.582972     18.582972     37.165943
     -2.457457     20.629755     20.629755     41.259509
     -2.447447     23.651020     23.651020     47.302040
     -2.437437     27.060057     27.060057     54.120114
     -2.427427     30.354686     30.354686     60.709372
     -2.417417     33.267779     33.267779     66.535559
     -2.407407     35.791417     35.791417     71.582833
     -2.397397     38.065319     38.065319     76.130639
     -2.387387     40.186917     40.186917     80.373835
     -2.377377     42.043126     42.043126     84.086252
     -2.367367     43.258834     43.258834     86.517669
     -2.357357     43.302950     43.302950     86.605901
     -2.347347     41.713525     41.713525     83.427049
     -2.337337     38.338902     38.338902     76.677805
     -2.327327     33.478186     33.478186     66.956371
     -2.317317     27.851826     27.851826     55.703653
     -2.307307     22.415970     22.415970     44.831940
     -2.297297     18.104316     18.104316     36.208632
     -2.287287     15.601098     15.601098     31.202197
     -2.277277     15.215839     15.215839     30.431678
     -2.267267     16.874455     16.874455     33.748911
     -2.257257     20.197040     20.197040     40.394079
     -2.247247     24.616359     24.616359     49.232719
     -2.237237     29.496954     29.496954     58.993909
     -2.227227     34.228953     34.228953     68.457905
     -2.217217     38.285536     38.285536     76.571071
     -2.207207     41.247514     41.247514     82.495027
     -2.197197     42.811796     42.811796     85.623593
     -2.187187     42.806200     42.806200     85.612399
     -2.177177     41.222976     41.222976     82.445953
     -2.167167     38.258258     38.258258     76.516517
     -2.157157     34.319872     34.319872     68.639743
     -2.147147     29.965002     29.965002     59.930004
     -2.137137     25.762830     25.762830     51.525661
     -2.127127     22.128765     22.128765     44.257530
     -2.117117     19.208935     19.208935     38.417869
     -2.107107     16.877024     16.877024     33.754048
     -2.097097     14.845870     14.845870     29.691739
     -2.087087     12.832484     12.832484     25.664968
     -2.077077     10.690251     10.690251     21.380501
     -2.067067      8.450007      8.450007     16.900015
     -2.057057      6.269245      6.269245     12.538490
     -2.047047      4.335864      4.335864      8.671729
     -2.037037      2.783873      2.783873      5.567746
     -2.027027      1.655716      1.655716      3.311432
     -2.017017      0.912326      0.912326      1.824651
     -2.007007      0.469784      0.469784      0.939567
     -1.996997      0.238572      0.238572      0.477144
     -1.986987      0.151594      0.151594      0.303187
     -1.976977      0.179297      0.179297      0.358593
     -1.966967      0.336852      0.336852      0.673704
     -1.956957      0.687929      0.687929      1.375858
     -1.946947      1.344889      1.344889      2.689777
     -1.936937      2.460143      2.460143      4.920286
     -1.926927      4.201685      4.201685      8.403369
     -1.916917      6.709370      6.709370     13.418740
     -1.906907     10.036896     10.036896     20.073792
     -1.896897     14.094073     14.094073     28.188145
     -1.886887     18.610421     18.610421     37.220842
     -1.876877     23.141148     23.141148     46.282295
     -1.866867     27.129063     27.129063     54.258126
     -1.856857     30.020789     30.020789     60.041578
     -1.846847     31.413197     31.413197     62.826393
     -1.836837     31.182348     31.182348     62.364696
     -1.826827     29.536529     29.536529     59.073059
     -1.816817     26.953814     26.953814     53.907627
     -1.806807     24.014770     24.014770     48.029539
     -1.796797     21.198806     21.198806     42.397611
     -1.786787     18.739379     18.739379     37.478759
     -1.776777     16.604996     16.604996     33.209993
     -1.766767     14.603286     14.603286     29.206571
     -1.756757     12.539349     12.539349     25.078698
     -1.746747     10.339464     10.339464     20.678929
     -1.736737      8.085556      8.085556     16.171113
     -1.726727      5.965575      5.965575     11.931151
     -1.716717      4.188672      4.188672      8.377343
     -1.706707      2.918532      2.918532      5.837064
     -1.696697      2.250277      2.250277      4.500555
     -1.686687      2.221097      2.221097      4.442194
     -1.676677      2.825559      2.825559      5.651119
     -1.666667      4.011494      4.011494      8.022989
     -1.656657      5.654437      5.654437     11.308873
     -1.646647      7.532519      7.532519     15.065038
     -1.636637      9.333928      9.333928     18.667856
     -1.626627     10.717222     10.717222     21.434444
