# EIG2DOS: Utility for SIESTA to obtain the electronic density of states
#  E. Artacho, Apr 1999, A. Garcia, Apr 2012
#  Nick R. Papior, Feb 2017
# ------------------------------------------
# Eigenvalues calculated from a non-polarized calculation
# Eigenvalues read from siesta.EIG
# Kpoint weights read from siesta.KP
# Using smearing parameter:   0.0500
# Using 1000 points in the energy range
# Selected bands: 1 to: 2981
# Emin, Emax in file for selected band(s):    -27.2892000    218.3911920
# Nbands, Nspin, Nk   =   2981     1     1
# E_F                 =    -4.2045 eV --> (shifted to ZERO)
# Broadening          =     0.0500 eV
#
#        E            N(up)  (=)   N(down)         Ntot
     -5.000000     32.834403     32.834403     65.668807
     -4.989990     37.663645     37.663645     75.327289
     -4.979980     42.031745     42.031745     84.063489
     -4.969970     45.187269     45.187269     90.374538
     -4.959960     46.542516     46.542516     93.085032
     -4.949950     45.869941     45.869941     91.739883
     -4.939940     43.383543     43.383543     86.767085
     -4.929930     39.688658     39.688658     79.377315
     -4.919920     35.642055     35.642055     71.284109
     -4.909910     32.183278     32.183278     64.366556
     -4.899900     30.174300     30.174300     60.348600
     -4.889890     30.248822     30.248822     60.497643
     -4.879880     32.664120     32.664120     65.328240
     -4.869870     37.178421     37.178421     74.356841
     -4.859860     43.016376     43.016376     86.032752
     -4.849850     48.988453     48.988453     97.976907
     -4.839840     53.774957     53.774957    107.549914
     -4.829830     56.297043     56.297043    112.594085
     -4.819820     56.032911     56.032911    112.065822
     -4.809810     53.145747     53.145747    106.291495
     -4.799800     48.373359     48.373359     96.746718
     -4.789790     42.740797     42.740797     85.481594
     -4.779780     37.231352     37.231352     74.462703
     -4.769770     32.549375     32.549375     65.098749
     -4.759760     29.041021     29.041021     58.082043
     -4.749750     26.753722     26.753722     53.507444
     -4.739740     25.559783     25.559783     51.119566
     -4.729730     25.263723     25.263723     50.527446
     -4.719720     25.646457     25.646457     51.292914
     -4.709710     26.448497     26.448497     52.896993
     -4.699700     27.336017     27.336017     54.672034
     -4.689690     27.909165     27.909165     55.818329
     -4.679680     27.790408     27.790408     55.580817
     -4.669670     26.778481     26.778481     53.556962
     -4.659660     24.999257     24.999257     49.998514
     -4.649650     22.965190     22.965190     45.930380
     -4.639640     21.486274     21.486274     42.972549
     -4.629630     21.441014     21.441014     42.882028
     -4.619620     23.479164     23.479164     46.958329
     -4.609610     27.760577     27.760577     55.521155
     -4.599600     33.828879     33.828879     67.657758
     -4.589590     40.680798     40.680798     81.361596
     -4.579580     47.030061     47.030061     94.060122
     -4.569570     51.691876     51.691876    103.383752
     -4.559560     53.955761     53.955761    107.911522
     -4.549550     53.803341     53.803341    107.606681
     -4.539540     51.880672     51.880672    103.761344
     -4.529530     49.233829     49.233829     98.467658
     -4.519520     46.915197     46.915197     93.830394
     -4.509510     45.618021     45.618021     91.236041
     -4.499499     45.476467     45.476467     90.952934
     -4.489489     46.091475     46.091475     92.182950
     -4.479479     46.747058     46.747058     93.494116
     -4.469469     46.710281     46.710281     93.420561
     -4.459459     45.489230     45.489230     90.978460
     -4.449449     42.960013     42.960013     85.920026
     -4.439439     39.343869     39.343869     78.687737
     -4.429429     35.082575     35.082575     70.165150
     -4.419419     30.692049     30.692049     61.384099
     -4.409409     26.658307     26.658307     53.316615
     -4.399399     23.392234     23.392234     46.784469
     -4.389389     21.214342     21.214342     42.428684
     -4.379379     20.329146     20.329146     40.658292
     -4.369369     20.776450     20.776450     41.552901
     -4.359359     22.388449     22.388449     44.776898
     -4.349349     24.800605     24.800605     49.601210
     -4.339339     27.542344     27.542344     55.084687
     -4.329329     30.184901     30.184901     60.369802
     -4.319319     32.483135     32.483135     64.966271
     -4.309309     34.443510     34.443510     68.887019
     -4.299299     36.283076     36.283076     72.566153
     -4.289289     38.292622     38.292622     76.585245
     -4.279279     40.656377     40.656377     81.312755
     -4.269269     43.298739     43.298739     86.597478
     -4.259259     45.824685     45.824685     91.649371
     -4.249249     47.595490     47.595490     95.190981
     -4.239239     47.934218     47.934218     95.868436
     -4.229229     46.394976     46.394976     92.789953
     -4.219219     42.983543     42.983543     85.967087
     -4.209209     38.219551     38.219551     76.439102
     -4.199199     32.995113     32.995113     65.990227
     -4.189189     28.283280     28.283280     56.566560
     -4.179179     24.825399     24.825399     49.650798
     -4.169169     22.933833     22.933833     45.867665
     -4.159159     22.483368     22.483368     44.966736
     -4.149149     23.071126     23.071126     46.142251
     -4.139139     24.251817     24.251817     48.503633
     -4.129129     25.733246     25.733246     51.466493
     -4.119119     27.446278     27.446278     54.892555
     -4.109109     29.465470     29.465470     58.930941
     -4.099099     31.827603     31.827603     63.655206
     -4.089089     34.349820     34.349820     68.699640
     -4.079079     36.560576     36.560576     73.121153
     -4.069069     37.808188     37.808188     75.616376
     -4.059059     37.516961     37.516961     75.033922
     -4.049049     35.469443     35.469443     70.938886
     -4.039039     31.965242     31.965242     63.930484
     -4.029029     27.767231     27.767231     55.534462
     -4.019019     23.860033     23.860033     47.720066
     -4.009009     21.141195     21.141195     42.282390
     -3.998999     20.185374     20.185374     40.370749
     -3.988989     21.163248     21.163248     42.326496
     -3.978979     23.906548     23.906548     47.813097
     -3.968969     28.046810     28.046810     56.093620
     -3.958959     33.148426     33.148426     66.296852
     -3.948949     38.794865     38.794865     77.589731
     -3.938939     44.632211     44.632211     89.264423
     -3.928929     50.392260     50.392260    100.784520
     -3.918919     55.902683     55.902683    111.805367
     -3.908909     61.068349     61.068349    122.136697
     -3.898899     65.806386     65.806386    131.612771
     -3.888889     69.946772     69.946772    139.893543
     -3.878879     73.148247     73.148247    146.296493
     -3.868869     74.892773     74.892773    149.785547
     -3.858859     74.593397     74.593397    149.186793
     -3.848849     71.793119     71.793119    143.586238
     -3.838839     66.379193     66.379193    132.758386
     -3.828829     58.718701     58.718701    117.437403
     -3.818819     49.648126     49.648126     99.296252
     -3.808809     40.308188     40.308188     80.616375
     -3.798799     31.876913     31.876913     63.753826
     -3.788789     25.290425     25.290425     50.580849
     -3.778779     21.039204     21.039204     42.078408
     -3.768769     19.094107     19.094107     38.188214
     -3.758759     18.970657     18.970657     37.941314
     -3.748749     19.901381     19.901381     39.802763
     -3.738739     21.063903     21.063903     42.127805
     -3.728729     21.806615     21.806615     43.613229
     -3.718719     21.819065     21.819065     43.638129
     -3.708709     21.206569     21.206569     42.413137
     -3.698699     20.447127     20.447127     40.894253
     -3.688689     20.234054     20.234054     40.468108
     -3.678679     21.239042     21.239042     42.478085
     -3.668669     23.861514     23.861514     47.723029
     -3.658659     28.048181     28.048181     56.096362
     -3.648649     33.256033     33.256033     66.512067
     -3.638639     38.585432     38.585432     77.170864
     -3.628629     43.040835     43.040835     86.081671
     -3.618619     45.818843     45.818843     91.637685
     -3.608609     46.512259     46.512259     93.024517
     -3.598599     45.164448     45.164448     90.328896
     -3.588589     42.182154     42.182154     84.364309
     -3.578579     38.170409     38.170409     76.340819
     -3.568569     33.761497     33.761497     67.522995
     -3.558559     29.481439     29.481439     58.962879
     -3.548549     25.666219     25.666219     51.332439
     -3.538539     22.429338     22.429338     44.858677
     -3.528529     19.685813     19.685813     39.371627
     -3.518519     17.233240     17.233240     34.466481
     -3.508509     14.868828     14.868828     29.737656
     -3.498498     12.497825     12.497825     24.995650
     -3.488488     10.187030     10.187030     20.374061
     -3.478478      8.143283      8.143283     16.286566
     -3.468468      6.633228      6.633228     13.266457
     -3.458458      5.882864      5.882864     11.765729
     -3.448448      5.994222      5.994222     11.988444
     -3.438438      6.902335      6.902335     13.804669
     -3.428428      8.383254      8.383254     16.766508
     -3.418418     10.116443     10.116443     20.232886
     -3.408408     11.793691     11.793691     23.587382
     -3.398398     13.245629     13.245629     26.491258
     -3.388388     14.535169     14.535169     29.070338
     -3.378378     15.965109     15.965109     31.930217
     -3.368368     17.977521     17.977521     35.955043
     -3.358358     20.974679     20.974679     41.949358
     -3.348348     25.133964     25.133964     50.267929
     -3.338338     30.293648     30.293648     60.587296
     -3.328328     35.949436     35.949436     71.898871
     -3.318318     41.350183     41.350183     82.700366
     -3.308308     45.650040     45.650040     91.300080
     -3.298298     48.076641     48.076641     96.153281
     -3.288288     48.092308     48.092308     96.184615
     -3.278278     45.529344     45.529344     91.058689
     -3.268268     40.665894     40.665894     81.331788
     -3.258258     34.200331     34.200331     68.400662
     -3.248248     27.106643     27.106643     54.213285
     -3.238238     20.405891     20.405891     40.811782
     -3.228228     14.932440     14.932440     29.864880
     -3.218218     11.174022     11.174022     22.348043
     -3.208208      9.223419      9.223419     18.446839
     -3.198198      8.830505      8.830505     17.661011
     -3.188188      9.518682      9.518682     19.037365
     -3.178178     10.732672     10.732672     21.465343
     -3.168168     11.993674     11.993674     23.987348
     -3.158158     13.034641     13.034641     26.069283
     -3.148148     13.876425     13.876425     27.752849
     -3.138138     14.805756     14.805756     29.611512
     -3.128128     16.243583     16.243583     32.487165
     -3.118118     18.540422     18.540422     37.080845
     -3.108108     21.778045     21.778045     43.556090
     -3.098098     25.666566     25.666566     51.333132
     -3.088088     29.592118     29.592118     59.184235
     -3.078078     32.804884     32.804884     65.609769
     -3.068068     34.670665     34.670665     69.341329
     -3.058058     34.875825     34.875825     69.751651
     -3.048048     33.496664     33.496664     66.993327
     -3.038038     30.912790     30.912790     61.825581
     -3.028028     27.623809     27.623809     55.247617
     -3.018018     24.072674     24.072674     48.145348
     -3.008008     20.561640     20.561640     41.123280
     -2.997998     17.281662     17.281662     34.563324
     -2.987988     14.408033     14.408033     28.816067
     -2.977978     12.185727     12.185727     24.371455
     -2.967968     10.947396     10.947396     21.894792
     -2.957958     11.052170     11.052170     22.104340
     -2.947948     12.772415     12.772415     25.544829
     -2.937938     16.172525     16.172525     32.345050
     -2.927928     21.022861     21.022861     42.045723
     -2.917918     26.783210     26.783210     53.566420
     -2.907908     32.675922     32.675922     65.351844
     -2.897898     37.844871     37.844871     75.689741
     -2.887888     41.562956     41.562956     83.125912
     -2.877878     43.420978     43.420978     86.841957
     -2.867868     43.423918     43.423918     86.847837
     -2.857858     41.949284     41.949284     83.898569
     -2.847848     39.579019     39.579019     79.158038
     -2.837838     36.875187     36.875187     73.750373
     -2.827828     34.198085     34.198085     68.396170
     -2.817818     31.644756     31.644756     63.289512
     -2.807808     29.124052     29.124052     58.248104
     -2.797798     26.514117     26.514117     53.028234
     -2.787788     23.808508     23.808508     47.617016
     -2.777778     21.170448     21.170448     42.340896
     -2.767768     18.872633     18.872633     37.745265
     -2.757758     17.168186     17.168186     34.336372
     -2.747748     16.176717     16.176717     32.353434
     -2.737738     15.855206     15.855206     31.710413
     -2.727728     16.065595     16.065595     32.131190
     -2.717718     16.685849     16.685849     33.371697
     -2.707708     17.681969     17.681969     35.363938
     -2.697698     19.086650     19.086650     38.173299
     -2.687688     20.899467     20.899467     41.798934
     -2.677678     22.986126     22.986126     45.972253
     -2.667668     25.063296     25.063296     50.126592
     -2.657658     26.799623     26.799623     53.599246
     -2.647648     27.979308     27.979308     55.958617
     -2.637638     28.623225     28.623225     57.246449
     -2.627628     28.984064     28.984064     57.968127
     -2.617618     29.413193     29.413193     58.826387
     -2.607608     30.179071     30.179071     60.358143
     -2.597598     31.341238     31.341238     62.682477
     -2.587588     32.736826     32.736826     65.473652
     -2.577578     34.059643     34.059643     68.119287
     -2.567568     34.965365     34.965365     69.930730
     -2.557558     35.148936     35.148936     70.297872
     -2.547548     34.388819     34.388819     68.777638
     -2.537538     32.587143     32.587143     65.174286
     -2.527528     29.824920     29.824920     59.649839
     -2.517518     26.411627     26.411627     52.823254
     -2.507508     22.880540     22.880540     45.761080
     -2.497497     19.894704     19.894704     39.789409
     -2.487487     18.076133     18.076133     36.152267
     -2.477477     17.818828     17.818828     35.637656
     -2.467467     19.163540     19.163540     38.327080
     -2.457457     21.790364     21.790364     43.580729
     -2.447447     25.137215     25.137215     50.274430
     -2.437437     28.599683     28.599683     57.199365
     -2.427427     31.731688     31.731688     63.463375
     -2.417417     34.362176     34.362176     68.724352
     -2.407407     36.576013     36.576013     73.152026
     -2.397397     38.567045     38.567045     77.134089
     -2.387387     40.433457     40.433457     80.866913
     -2.377377     42.020170     42.020170     84.040340
     -2.367367     42.898900     42.898900     85.797800
     -2.357357     42.513633     42.513633     85.027265
     -2.347347     40.434122     40.434122     80.868245
     -2.337337     36.597557     36.597557     73.195113
     -2.327327     31.417915     31.417915     62.835830
     -2.317317     25.708474     25.708474     51.416948
     -2.307307     20.456832     20.456832     40.913665
     -2.297297     16.556768     16.556768     33.113535
     -2.287287     14.602925     14.602925     29.205851
     -2.277277     14.803653     14.803653     29.607307
     -2.267267     17.005272     17.005272     34.010545
     -2.257257     20.783931     20.783931     41.567862
     -2.247247     25.557651     25.557651     51.115303
     -2.237237     30.687230     30.687230     61.374460
     -2.227227     35.552846     35.552846     71.105692
     -2.217217     39.605791     39.605791     79.211581
     -2.207207     42.402773     42.402773     84.805547
     -2.197197     43.635118     43.635118     87.270235
     -2.187187     43.163737     43.163737     86.327474
     -2.177177     41.058606     41.058606     82.117213
     -2.167167     37.621572     37.621572     75.243143
     -2.157157     33.358325     33.358325     66.716649
     -2.147147     28.876832     28.876832     57.753664
     -2.137137     24.728360     24.728360     49.456719
     -2.127127     21.251432     21.251432     42.502865
     -2.117117     18.493950     18.493950     36.987899
     -2.107107     16.255599     16.255599     32.511197
     -2.097097     14.228521     14.228521     28.457042
     -2.087087     12.161259     12.161259     24.322519
     -2.077077      9.964711      9.964711     19.929423
     -2.067067      7.720426      7.720426     15.440853
     -2.057057      5.609692      5.609692     11.219383
     -2.047047      3.818477      3.818477      7.636954
     -2.037037      2.471303      2.471303      4.942605
     -2.027027      1.617112      1.617112      3.234223
     -2.017017      1.256615      1.256615      2.513230
     -2.007007      1.381996      1.381996      2.763992
     -1.996997      2.000527      2.000527      4.001054
     -1.986987      3.127465      3.127465      6.254931
     -1.976977      4.752246      4.752246      9.504491
     -1.966967      6.798535      6.798535     13.597070
     -1.956957      9.106243      9.106243     18.212485
     -1.946947     11.455786     11.455786     22.911572
     -1.936937     13.631636     13.631636     27.263272
     -1.926927     15.494797     15.494797     30.989593
     -1.916917     17.021802     17.021802     34.043604
     -1.906907     18.283632     18.283632     36.567264
     -1.896897     19.374443     19.374443     38.748886
     -1.886887     20.332236     20.332236     40.664471
     -1.876877     21.098678     21.098678     42.197356
     -1.866867     21.540840     21.540840     43.081681
     -1.856857     21.521914     21.521914     43.043829
     -1.846847     20.983142     20.983142     41.966284
     -1.836837     19.995038     19.995038     39.990077
     -1.826827     18.749899     18.749899     37.499798
     -1.816817     17.492785     17.492785     34.985569
     -1.806807     16.417633     16.417633     32.835267
     -1.796797     15.577528     15.577528     31.155055
     -1.786787     14.858387     14.858387     29.716773
     -1.776777     14.036109     14.036109     28.072218
     -1.766767     12.891151     12.891151     25.782301
     -1.756757     11.320689     11.320689     22.641379
     -1.746747      9.390923      9.390923     18.781846
     -1.736737      7.309433      7.309433     14.618865
     -1.726727      5.343548      5.343548     10.687097
     -1.716717      3.734755      3.734755      7.469510
     -1.706707      2.649416      2.649416      5.298832
     -1.696697      2.174681      2.174681      4.349362
     -1.686687      2.338944      2.338944      4.677888
     -1.676677      3.126286      3.126286      6.252573
     -1.666667      4.466660      4.466660      8.933321
     -1.656657      6.208138      6.208138     12.416276
     -1.646647      8.098650      8.098650     16.197301
     -1.636637      9.808407      9.808407     19.616815
     -1.626627     11.005848     11.005848     22.011697
