# EIG2DOS: Utility for SIESTA to obtain the electronic density of states
#  E. Artacho, Apr 1999, A. Garcia, Apr 2012
#  Nick R. Papior, Feb 2017
# ------------------------------------------
# Eigenvalues calculated from a non-polarized calculation
# Eigenvalues read from siesta.EIG
# Kpoint weights read from siesta.KP
# Using smearing parameter:   0.0500
# Using 1000 points in the energy range
# Selected bands: 1 to: 2981
# Emin, Emax in file for selected band(s):    -27.1536320    218.3399010
# Nbands, Nspin, Nk   =   2981     1     1
# E_F                 =    -4.2699 eV --> (shifted to ZERO)
# Broadening          =     0.0500 eV
#
#        E            N(up)  (=)   N(down)         Ntot
     -5.000000     35.866033     35.866033     71.732066
     -4.989990     38.792622     38.792622     77.585245
     -4.979980     41.349407     41.349407     82.698814
     -4.969970     43.035394     43.035394     86.070787
     -4.959960     43.488232     43.488232     86.976463
     -4.949950     42.582280     42.582280     85.164560
     -4.939940     40.463932     40.463932     80.927864
     -4.929930     37.528297     37.528297     75.056593
     -4.919920     34.360258     34.360258     68.720516
     -4.909910     31.660622     31.660622     63.321244
     -4.899900     30.157374     30.157374     60.314749
     -4.889890     30.482564     30.482564     60.965127
     -4.879880     33.002533     33.002533     66.005066
     -4.869870     37.632060     37.632060     75.264120
     -4.859860     43.716876     43.716876     87.433752
     -4.849850     50.085823     50.085823    100.171647
     -4.839840     55.318810     55.318810    110.637620
     -4.829830     58.165366     58.165366    116.330732
     -4.819820     57.947637     57.947637    115.895274
     -4.809810     54.765057     54.765057    109.530114
     -4.799800     49.408559     49.408559     98.817117
     -4.789790     43.038088     43.038088     86.076175
     -4.779780     36.786495     36.786495     73.572989
     -4.769770     31.461652     31.461652     62.923304
     -4.759760     27.435672     27.435672     54.871344
     -4.749750     24.702261     24.702261     49.404521
     -4.739740     23.018224     23.018224     46.036448
     -4.729730     22.044630     22.044630     44.089260
     -4.719720     21.442093     21.442093     42.884186
     -4.709710     20.916084     20.916084     41.832167
     -4.699700     20.232163     20.232163     40.464326
     -4.689690     19.227081     19.227081     38.454163
     -4.679680     17.834468     17.834468     35.668936
     -4.669670     16.126939     16.126939     32.253879
     -4.659660     14.356312     14.356312     28.712625
     -4.649650     12.961441     12.961441     25.922882
     -4.639640     12.517325     12.517325     25.034650
     -4.629630     13.617732     13.617732     27.235463
     -4.619620     16.707850     16.707850     33.415699
     -4.609610     21.906795     21.906795     43.813589
     -4.599600     28.878677     28.878677     57.757354
     -4.589590     36.817757     36.817757     73.635515
     -4.579580     44.593125     44.593125     89.186251
     -4.569570     51.042475     51.042475    102.084950
     -4.559560     55.328403     55.328403    110.656806
     -4.549550     57.215935     57.215935    114.431870
     -4.539540     57.139722     57.139722    114.279443
     -4.529530     56.013430     56.013430    112.026860
     -4.519520     54.854136     54.854136    109.708271
     -4.509510     54.384954     54.384954    108.769908
     -4.499499     54.787341     54.787341    109.574683
     -4.489489     55.695942     55.695942    111.391884
     -4.479479     56.409609     56.409609    112.819218
     -4.469469     56.199109     56.199109    112.398218
     -4.459459     54.570609     54.570609    109.141218
     -4.449449     51.393710     51.393710    102.787419
     -4.439439     46.883734     46.883734     93.767468
     -4.429429     41.492057     41.492057     82.984114
     -4.419419     35.777716     35.777716     71.555432
     -4.409409     30.310680     30.310680     60.621361
     -4.399399     25.615396     25.615396     51.230793
     -4.389389     22.130994     22.130994     44.261989
     -4.379379     20.160720     20.160720     40.321440
     -4.369369     19.807364     19.807364     39.614728
     -4.359359     20.923920     20.923920     41.847840
     -4.349349     23.122514     23.122514     46.245028
     -4.339339     25.865186     25.865186     51.730372
     -4.329329     28.617144     28.617144     57.234288
     -4.319319     31.004858     31.004858     62.009717
     -4.309309     32.913499     32.913499     65.826999
     -4.299299     34.484996     34.484996     68.969992
     -4.289289     36.020657     36.020657     72.041315
     -4.279279     37.826233     37.826233     75.652467
     -4.269269     40.051220     40.051220     80.102440
     -4.259259     42.573850     42.573850     85.147700
     -4.249249     44.976693     44.976693     89.953387
     -4.239239     46.641256     46.641256     93.282512
     -4.229229     46.952203     46.952203     93.904406
     -4.219219     45.545914     45.545914     91.091827
     -4.209209     42.494445     42.494445     84.988889
     -4.199199     38.324914     38.324914     76.649828
     -4.189189     33.847972     33.847972     67.695945
     -4.179179     29.870110     29.870110     59.740219
     -4.169169     26.928268     26.928268     53.856536
     -4.159159     25.169148     25.169148     50.338295
     -4.149149     24.412394     24.412394     48.824787
     -4.139139     24.341303     24.341303     48.682606
     -4.129129     24.710208     24.710208     49.420416
     -4.119119     25.463332     25.463332     50.926664
     -4.109109     26.711291     26.711291     53.422582
     -4.099099     28.581605     28.581605     57.163209
     -4.089089     31.023187     31.023187     62.046374
     -4.079079     33.677479     33.677479     67.354959
     -4.069069     35.908667     35.908667     71.817333
     -4.059059     37.008799     37.008799     74.017597
     -4.049049     36.493192     36.493192     72.986384
     -4.039039     34.337503     34.337503     68.675006
     -4.029029     31.028451     31.028451     62.056902
     -4.019019     27.399910     27.399910     54.799820
     -4.009009     24.343011     24.343011     48.686022
     -3.998999     22.537712     22.537712     45.075424
     -3.988989     22.320614     22.320614     44.641228
     -3.978979     23.709974     23.709974     47.419948
     -3.968969     26.521883     26.521883     53.043765
     -3.958959     30.485377     30.485377     60.970754
     -3.948949     35.303154     35.303154     70.606307
     -3.938939     40.666527     40.666527     81.333054
     -3.928929     46.266889     46.266889     92.533778
     -3.918919     51.830082     51.830082    103.660165
     -3.908909     57.156973     57.156973    114.313945
     -3.898899     62.125992     62.125992    124.251984
     -3.888889     66.628912     66.628912    133.257824
     -3.878879     70.460415     70.460415    140.920830
     -3.868869     73.228956     73.228956    146.457912
     -3.858859     74.364939     74.364939    148.729879
     -3.848849     73.260973     73.260973    146.521945
     -3.838839     69.507476     69.507476    139.014953
     -3.828829     63.124928     63.124928    126.249856
     -3.818819     54.679038     54.679038    109.358076
     -3.808809     45.210011     45.210011     90.420022
     -3.798799     35.989737     35.989737     71.979473
     -3.788789     28.196366     28.196366     56.392731
     -3.778779     22.625064     22.625064     45.250127
     -3.768769     19.527681     19.527681     39.055362
     -3.758759     18.615443     18.615443     37.230886
     -3.748749     19.201693     19.201693     38.403385
     -3.738739     20.428329     20.428329     40.856659
     -3.728729     21.511467     21.511467     43.022934
     -3.718719     21.948743     21.948743     43.897486
     -3.708709     21.643104     21.643104     43.286209
     -3.698699     20.913446     20.913446     41.826891
     -3.688689     20.383731     20.383731     40.767461
     -3.678679     20.771322     20.771322     41.542644
     -3.668669     22.628709     22.628709     45.257418
     -3.658659     26.119493     26.119493     52.238987
     -3.648649     30.912617     30.912617     61.825234
     -3.638639     36.245627     36.245627     72.491254
     -3.628629     41.142737     41.142737     82.285473
     -3.618619     44.704720     44.704720     89.409439
     -3.608609     46.355032     46.355032     92.710064
     -3.598599     45.953072     45.953072     91.906144
     -3.588589     43.755776     43.755776     87.511553
     -3.578579     40.276923     40.276923     80.553845
     -3.568569     36.118900     36.118900     72.237799
     -3.558559     31.831117     31.831117     63.662234
     -3.548549     27.813880     27.813880     55.627760
     -3.538539     24.268662     24.268662     48.537324
     -3.528529     21.198508     21.198508     42.397016
     -3.518519     18.464274     18.464274     36.928547
     -3.508509     15.886158     15.886158     31.772315
     -3.498498     13.353909     13.353909     26.707818
     -3.488488     10.897746     10.897746     21.795492
     -3.478478      8.689630      8.689630     17.379260
     -3.468468      6.979802      6.979802     13.959605
     -3.458458      6.001428      6.001428     12.002856
     -3.448448      5.881607      5.881607     11.763214
     -3.438438      6.585420      6.585420     13.170839
     -3.428428      7.906295      7.906295     15.812590
     -3.418418      9.508248      9.508248     19.016496
     -3.408408     11.017274     11.017274     22.034548
     -3.398398     12.142585     12.142585     24.285169
     -3.388388     12.787593     12.787593     25.575186
     -3.378378     13.102450     13.102450     26.204899
     -3.368368     13.448135     13.448135     26.896269
     -3.358358     14.281221     14.281221     28.562442
     -3.348348     16.004297     16.004297     32.008595
     -3.338338     18.835785     18.835785     37.671571
     -3.328328     22.731831     22.731831     45.463661
     -3.318318     27.363711     27.363711     54.727423
     -3.308308     32.142798     32.142798     64.285595
     -3.298298     36.296120     36.296120     72.592241
     -3.288288     39.005953     39.005953     78.011906
     -3.278278     39.608747     39.608747     79.217495
     -3.268268     37.802834     37.802834     75.605668
     -3.258258     33.777181     33.777181     67.554361
     -3.248248     28.187314     28.187314     56.374628
     -3.238238     21.973790     21.973790     43.947579
     -3.228228     16.099639     16.099639     32.199279
     -3.218218     11.318826     11.318826     22.637651
     -3.208208      8.055893      8.055893     16.111786
     -3.198198      6.406851      6.406851     12.813701
     -3.188188      6.215225      6.215225     12.430450
     -3.178178      7.167517      7.167517     14.335034
     -3.168168      8.880807      8.880807     17.761613
     -3.158158     10.987149     10.987149     21.974297
     -3.148148     13.224429     13.224429     26.448858
     -3.138138     15.519052     15.519052     31.038104
     -3.128128     18.017213     18.017213     36.034426
     -3.118118     21.020520     21.020520     42.041040
     -3.108108     24.820999     24.820999     49.641999
     -3.098098     29.491574     29.491574     58.983147
     -3.088088     34.731740     34.731740     69.463481
     -3.078078     39.860639     39.860639     79.721277
     -3.068068     43.986194     43.986194     87.972388
     -3.058058     46.289826     46.289826     92.579652
     -3.048048     46.301371     46.301371     92.602741
     -3.038038     44.039273     44.039273     88.078546
     -3.028028     39.961030     39.961030     79.922060
     -3.018018     34.768375     34.768375     69.536749
     -3.008008     29.180020     29.180020     58.360039
     -2.997998     23.781540     23.781540     47.563079
     -2.987988     18.996637     18.996637     37.993274
     -2.977978     15.146218     15.146218     30.292436
     -2.967968     12.521299     12.521299     25.042598
     -2.957958     11.407424     11.407424     22.814849
     -2.947948     12.040282     12.040282     24.080565
     -2.937938     14.512789     14.512789     29.025578
     -2.927928     18.676488     18.676488     37.352977
     -2.917918     24.084926     24.084926     48.169851
     -2.907908     30.017852     30.017852     60.035704
     -2.897898     35.602101     35.602101     71.204203
     -2.887888     40.008175     40.008175     80.016351
     -2.877878     42.662228     42.662228     85.324456
     -2.867868     43.392637     43.392637     86.785274
     -2.857858     42.446469     42.446469     84.892938
     -2.847848     40.362962     40.362962     80.725923
     -2.837838     37.755321     37.755321     75.510642
     -2.827828     35.095230     35.095230     70.190460
     -2.817818     32.592167     32.592167     65.184334
     -2.807808     30.211498     30.211498     60.422997
     -2.797798     27.805685     27.805685     55.611371
     -2.787788     25.278327     25.278327     50.556653
     -2.777778     22.689907     22.689907     45.379815
     -2.767768     20.252550     20.252550     40.505100
     -2.757758     18.227054     18.227054     36.454109
     -2.747748     16.791827     16.791827     33.583654
     -2.737738     15.967156     15.967156     31.934311
     -2.727728     15.641005     15.641005     31.282009
     -2.717718     15.675900     15.675900     31.351799
     -2.707708     16.022047     16.022047     32.044095
     -2.697698     16.755711     16.755711     33.511421
     -2.687688     18.010670     18.010670     36.021339
     -2.677678     19.844453     19.844453     39.688905
     -2.667668     22.130740     22.130740     44.261480
     -2.657658     24.558785     24.558785     49.117570
     -2.647648     26.753048     26.753048     53.506097
     -2.637638     28.445183     28.445183     56.890367
     -2.627628     29.592367     29.592367     59.184733
     -2.617618     30.369419     30.369419     60.738838
     -2.607608     31.044868     31.044868     62.089735
     -2.597598     31.823551     31.823551     63.647102
     -2.587588     32.748906     32.748906     65.497813
     -2.577578     33.703844     33.703844     67.407688
     -2.567568     34.478119     34.478119     68.956239
     -2.557558     34.839644     34.839644     69.679288
     -2.547548     34.574728     34.574728     69.149457
     -2.537538     33.512792     33.512792     67.025585
     -2.527528     31.572228     31.572228     63.144457
     -2.517518     28.835600     28.835600     57.671199
     -2.507508     25.613127     25.613127     51.226254
     -2.497497     22.432391     22.432391     44.864783
     -2.487487     19.922964     19.922964     39.845929
     -2.477477     18.626931     18.626931     37.253861
     -2.467467     18.816065     18.816065     37.632131
     -2.457457     20.401638     20.401638     40.803276
     -2.447447     22.981921     22.981921     45.963842
     -2.437437     26.008784     26.008784     52.017568
     -2.427427     28.999395     28.999395     57.998790
     -2.417417     31.697083     31.697083     63.394167
     -2.407407     34.107580     34.107580     68.215161
     -2.397397     36.394838     36.394838     72.789677
     -2.387387     38.688859     38.688859     77.377717
     -2.377377     40.903894     40.903894     81.807789
     -2.367367     42.665584     42.665584     85.331168
     -2.357357     43.397314     43.397314     86.794629
     -2.347347     42.539809     42.539809     85.079617
     -2.337337     39.809428     39.809428     79.618856
     -2.327327     35.375929     35.375929     70.751859
     -2.317317     29.875507     29.875507     59.751014
     -2.307307     24.252824     24.252824     48.505648
     -2.297297     19.502936     19.502936     39.005871
     -2.287287     16.418372     16.418372     32.836744
     -2.277277     15.425938     15.425938     30.851876
     -2.267267     16.544791     16.544791     33.089581
     -2.257257     19.447589     19.447589     38.895178
     -2.247247     23.581380     23.581380     47.162759
     -2.237237     28.302972     28.302972     56.605944
     -2.227227     32.992984     32.992984     65.985967
     -2.217217     37.126356     37.126356     74.252711
     -2.207207     40.295247     40.295247     80.590493
     -2.197197     42.201575     42.201575     84.403150
     -2.187187     42.651185     42.651185     85.302370
     -2.177177     41.576096     41.576096     83.152191
     -2.167167     39.082427     39.082427     78.164854
     -2.157157     35.486137     35.486137     70.972274
     -2.147147     31.285715     31.285715     62.571430
     -2.137137     27.048746     27.048746     54.097492
     -2.127127     23.245346     23.245346     46.490692
     -2.117117     20.106733     20.106733     40.213466
     -2.107107     17.584658     17.584658     35.169316
     -2.097097     15.433663     15.433663     30.867326
     -2.087087     13.368411     13.368411     26.736822
     -2.077077     11.209980     11.209980     22.419959
     -2.067067      8.951200      8.951200     17.902401
     -2.057057      6.725689      6.725689     13.451379
     -2.047047      4.718444      4.718444      9.436888
     -2.037037      3.076148      3.076148      6.152296
     -2.027027      1.858760      1.858760      3.717520
     -2.017017      1.040642      1.040642      2.081283
     -2.007007      0.543543      0.543543      1.087087
     -1.996997      0.276776      0.276776      0.553552
     -1.986987      0.168052      0.168052      0.336104
     -1.976977      0.180775      0.180775      0.361550
     -1.966967      0.321258      0.321258      0.642516
     -1.956957      0.639889      0.639889      1.279778
     -1.946947      1.226116      1.226116      2.452232
     -1.936937      2.192901      2.192901      4.385802
     -1.926927      3.646290      3.646290      7.292581
     -1.916917      5.641987      5.641987     11.283974
     -1.906907      8.140889      8.140889     16.281779
     -1.896897     10.983101     10.983101     21.966202
     -1.886887     13.897891     13.897891     27.795782
     -1.876877     16.554180     16.554180     33.108360
     -1.866867     18.638992     18.638992     37.277984
     -1.856857     19.940080     19.940080     39.880160
     -1.846847     20.408322     20.408322     40.816645
     -1.836837     20.181852     20.181852     40.363705
     -1.826827     19.561182     19.561182     39.122364
     -1.816817     18.932858     18.932858     37.865715
     -1.806807     18.653391     18.653391     37.306783
     -1.796797     18.925384     18.925384     37.850769
     -1.786787     19.712552     19.712552     39.425104
     -1.776777     20.734656     20.734656     41.469311
     -1.766767     21.553332     21.553332     43.106664
     -1.756757     21.719644     21.719644     43.439288
     -1.746747     20.926489     20.926489     41.852978
     -1.736737     19.108653     19.108653     38.217306
     -1.726727     16.458479     16.458479     32.916958
     -1.716717     13.361318     13.361318     26.722636
     -1.706707     10.284486     10.284486     20.568973
     -1.696697      7.664226      7.664226     15.328451
     -1.686687      5.824618      5.824618     11.649236
     -1.676677      4.938857      4.938857      9.877713
     -1.666667      5.021792      5.021792     10.043583
     -1.656657      5.936568      5.936568     11.873137
     -1.646647      7.409418      7.409418     14.818836
     -1.636637      9.063258      9.063258     18.126516
     -1.626627     10.485484     10.485484     20.970968
