# EIG2DOS: Utility for SIESTA to obtain the electronic density of states
#  E. Artacho, Apr 1999, A. Garcia, Apr 2012
#  Nick R. Papior, Feb 2017
# ------------------------------------------
# Eigenvalues calculated from a non-polarized calculation
# Eigenvalues read from siesta.EIG
# Kpoint weights read from siesta.KP
# Using smearing parameter:   0.0500
# Using 1000 points in the energy range
# Selected bands: 1 to: 2981
# Emin, Emax in file for selected band(s):    -27.1582597    218.3550550
# Nbands, Nspin, Nk   =   2981     1     1
# E_F                 =    -4.2494 eV --> (shifted to ZERO)
# Broadening          =     0.0500 eV
#
#        E            N(up)  (=)   N(down)         Ntot
     -5.000000     32.785619     32.785619     65.571238
     -4.989990     36.908140     36.908140     73.816279
     -4.979980     40.593025     40.593025     81.186051
     -4.969970     43.286849     43.286849     86.573697
     -4.959960     44.535887     44.535887     89.071775
     -4.949950     44.130833     44.130833     88.261667
     -4.939940     42.184691     42.184691     84.369382
     -4.929930     39.124296     39.124296     78.248591
     -4.919920     35.615074     35.615074     71.230149
     -4.909910     32.454202     32.454202     64.908403
     -4.899900     30.452352     30.452352     60.904704
     -4.889890     30.298191     30.298191     60.596382
     -4.879880     32.394639     32.394639     64.789278
     -4.869870     36.688136     36.688136     73.376271
     -4.859860     42.561853     42.561853     85.123705
     -4.849850     48.884239     48.884239     97.768478
     -4.839840     54.259124     54.259124    108.518248
     -4.829830     57.423117     57.423117    114.846235
     -4.819820     57.639801     57.639801    115.279602
     -4.809810     54.917525     54.917525    109.835051
     -4.799800     49.954368     49.954368     99.908736
     -4.789790     43.847778     43.847778     87.695557
     -4.779780     37.714906     37.714906     75.429813
     -4.769770     32.389022     32.389022     64.778043
     -4.759760     28.288044     28.288044     56.576088
     -4.749750     25.449855     25.449855     50.899710
     -4.739740     23.660592     23.660592     47.321184
     -4.729730     22.593292     22.593292     45.186584
     -4.719720     21.907387     21.907387     43.814774
     -4.709710     21.300303     21.300303     42.600607
     -4.699700     20.528695     20.528695     41.057389
     -4.689690     19.424485     19.424485     38.848970
     -4.679680     17.923682     17.923682     35.847363
     -4.669670     16.108974     16.108974     32.217947
     -4.659660     14.248370     14.248370     28.496740
     -4.649650     12.802120     12.802120     25.604240
     -4.639640     12.374831     12.374831     24.749661
     -4.629630     13.605469     13.605469     27.210938
     -4.619620     17.006702     17.006702     34.013404
     -4.609610     22.783361     22.783361     45.566721
     -4.599600     30.678692     30.678692     61.357383
     -4.589590     39.911827     39.911827     79.823654
     -4.579580     49.264834     49.264834     98.529667
     -4.569570     57.337443     57.337443    114.674885
     -4.559560     62.916631     62.916631    125.833261
     -4.549550     65.338993     65.338993    130.677986
     -4.539540     64.699791     64.699791    129.399582
     -4.529530     61.808734     61.808734    123.617468
     -4.519520     57.895102     57.895102    115.790204
     -4.509510     54.175231     54.175231    108.350461
     -4.499499     51.456772     51.456772    102.913545
     -4.489489     49.933527     49.933527     99.867053
     -4.479479     49.232594     49.232594     98.465188
     -4.469469     48.661305     48.661305     97.322610
     -4.459459     47.523865     47.523865     95.047730
     -4.449449     45.371764     45.371764     90.743528
     -4.439439     42.110014     42.110014     84.220027
     -4.429429     37.962643     37.962643     75.925287
     -4.419419     33.359163     33.359163     66.718327
     -4.409409     28.813486     28.813486     57.626971
     -4.399399     24.834734     24.834734     49.669467
     -4.389389     21.866232     21.866232     43.732464
     -4.379379     20.227873     20.227873     40.455745
     -4.369369     20.050708     20.050708     40.101416
     -4.359359     21.225005     21.225005     42.450009
     -4.349349     23.402690     23.402690     46.805379
     -4.339339     26.080898     26.080898     52.161796
     -4.329329     28.751547     28.751547     57.503094
     -4.319319     31.061118     31.061118     62.122237
     -4.309309     32.913169     32.913169     65.826338
     -4.299299     34.469999     34.469999     68.939998
     -4.289289     36.052436     36.052436     72.104871
     -4.279279     37.974206     37.974206     75.948411
     -4.269269     40.367629     40.367629     80.735257
     -4.259259     43.062196     43.062196     86.124393
     -4.249249     45.570075     45.570075     91.140150
     -4.239239     47.207127     47.207127     94.414253
     -4.229229     47.328337     47.328337     94.656674
     -4.219219     45.594729     45.594729     91.189457
     -4.209209     42.151159     42.151159     84.302318
     -4.199199     37.617852     37.617852     75.235705
     -4.189189     32.884786     32.884786     65.769572
     -4.179179     28.800981     28.800981     57.601961
     -4.169169     25.905407     25.905407     51.810813
     -4.159159     24.317935     24.317935     48.635869
     -4.149149     23.818739     23.818739     47.637478
     -4.139139     24.050430     24.050430     48.100861
     -4.129129     24.729107     24.729107     49.458214
     -4.119119     25.762307     25.762307     51.524614
     -4.109109     27.225470     27.225470     54.450940
     -4.099099     29.216660     29.216660     58.433320
     -4.089089     31.668561     31.668561     63.337122
     -4.079079     34.225892     34.225892     68.451783
     -4.069069     36.275974     36.275974     72.551947
     -4.059059     37.146968     37.146968     74.293935
     -4.049049     36.392611     36.392611     72.785221
     -4.039039     34.020841     34.020841     68.041681
     -4.029029     30.542444     30.542444     61.084888
     -4.019019     26.810464     26.810464     53.620928
     -4.009009     23.733531     23.733531     47.467061
     -3.998999     22.005090     22.005090     44.010179
     -3.988989     21.962801     21.962801     43.925601
     -3.978979     23.604790     23.604790     47.209581
     -3.968969     26.704646     26.704646     53.409292
     -3.958959     30.936754     30.936754     61.873509
     -3.948949     35.954947     35.954947     71.909894
     -3.938939     41.424067     41.424067     82.848133
     -3.928929     47.038205     47.038205     94.076411
     -3.918919     52.549073     52.549073    105.098146
     -3.908909     57.791316     57.791316    115.582632
     -3.898899     62.668204     62.668204    125.336409
     -3.888889     67.077003     67.077003    134.154006
     -3.878879     70.799800     70.799800    141.599600
     -3.868869     73.426950     73.426950    146.853899
     -3.858859     74.382509     74.382509    148.765018
     -3.848849     73.076049     73.076049    146.152098
     -3.838839     69.136066     69.136066    138.272132
     -3.828829     62.626416     62.626416    125.252832
     -3.818819     54.141154     54.141154    108.282308
     -3.808809     44.721048     44.721048     89.442096
     -3.798799     35.612421     35.612421     71.224841
     -3.788789     27.955170     27.955170     55.910339
     -3.778779     22.509671     22.509671     45.019341
     -3.768769     19.506690     19.506690     39.013381
     -3.758759     18.651431     18.651431     37.302862
     -3.748749     19.261499     19.261499     38.522998
     -3.738739     20.487333     20.487333     40.974665
     -3.728729     21.554022     21.554022     43.108044
     -3.718719     21.967501     21.967501     43.935001
     -3.708709     21.638587     21.638587     43.277174
     -3.698699     20.893657     20.893657     41.787314
     -3.688689     20.362825     20.362825     40.725650
     -3.678679     20.766568     20.766568     41.533135
     -3.668669     22.655773     22.655773     45.311546
     -3.658659     26.186975     26.186975     52.373949
     -3.648649     31.017483     31.017483     62.034967
     -3.638639     36.371475     36.371475     72.742950
     -3.628629     41.262281     41.262281     82.524561
     -3.618619     44.786548     44.786548     89.573096
     -3.608609     46.372782     46.372782     92.745564
     -3.598599     45.893738     45.893738     91.787476
     -3.588589     43.623825     43.623825     87.247650
     -3.578579     40.092557     40.092557     80.185115
     -3.568569     35.911421     35.911421     71.822843
     -3.558559     31.630434     31.630434     63.260868
     -3.548549     27.643599     27.643599     55.287199
     -3.538539     24.142748     24.142748     48.285497
     -3.528529     21.121335     21.121335     42.242670
     -3.518519     18.432429     18.432429     36.864858
     -3.508509     15.890368     15.890368     31.780735
     -3.498498     13.380431     13.380431     26.760863
     -3.488488     10.929578     10.929578     21.859156
     -3.478478      8.708206      8.708206     17.416413
     -3.468468      6.967639      6.967639     13.935277
     -3.458458      5.945736      5.945736     11.891473
     -3.448448      5.778446      5.778446     11.556892
     -3.438438      6.443291      6.443291     12.886583
     -3.428428      7.747449      7.747449     15.494899
     -3.418418      9.365906      9.365906     18.731811
     -3.408408     10.928218     10.928218     21.856435
     -3.398398     12.136809     12.136809     24.273617
     -3.388388     12.878652     12.878652     25.757305
     -3.378378     13.282317     13.282317     26.564634
     -3.368368     13.688492     13.688492     27.376983
     -3.358358     14.540448     14.540448     29.080897
     -3.348348     16.237655     16.237655     32.475311
     -3.338338     19.006002     19.006002     38.012003
     -3.328328     22.817793     22.817793     45.635585
     -3.318318     27.365329     27.365329     54.730658
     -3.308308     32.080524     32.080524     64.161048
     -3.298298     36.205083     36.205083     72.410167
     -3.288288     38.927419     38.927419     77.854839
     -3.278278     39.584338     39.584338     79.168676
     -3.268268     37.877241     37.877241     75.754482
     -3.258258     34.011677     34.011677     68.023353
     -3.248248     28.679621     28.679621     57.359242
     -3.238238     22.872232     22.872232     45.744464
     -3.228228     17.594529     17.594529     35.189059
     -3.218218     13.596201     13.596201     27.192402
     -3.208208     11.212056     11.212056     22.424112
     -3.198198     10.346199     10.346199     20.692397
     -3.188188     10.578793     10.578793     21.157587
     -3.178178     11.347117     11.347117     22.694234
     -3.168168     12.147790     12.147790     24.295581
     -3.158158     12.708888     12.708888     25.417776
     -3.148148     13.084475     13.084475     26.168949
     -3.138138     13.638094     13.638094     27.276188
     -3.128128     14.911673     14.911673     29.823346
     -3.118118     17.414955     17.414955     34.829911
     -3.108108     21.401852     21.401852     42.803704
     -3.098098     26.710705     26.710705     53.421411
     -3.088088     32.731148     32.731148     65.462296
     -3.078078     38.523313     38.523313     77.046625
     -3.068068     43.062726     43.062726     86.125452
     -3.058058     45.531250     45.531250     91.062500
     -3.048048     45.545565     45.545565     91.091131
     -3.038038     43.233152     43.233152     86.466305
     -3.028028     39.132762     39.132762     78.265524
     -3.018018     33.979829     33.979829     67.959659
     -3.008008     28.487247     28.487247     56.974493
     -2.997998     23.217030     23.217030     46.434060
     -2.987988     18.571588     18.571588     37.143176
     -2.977978     14.861960     14.861960     29.723921
     -2.967968     12.378687     12.378687     24.757375
     -2.957958     11.408359     11.408359     22.816719
     -2.947948     12.181846     12.181846     24.363692
     -2.937938     14.778613     14.778613     29.557225
     -2.927928     19.031053     19.031053     38.062106
     -2.917918     24.475134     24.475134     48.950269
     -2.907908     30.383083     30.383083     60.766166
     -2.897898     35.889984     35.889984     71.779969
     -2.887888     40.190067     40.190067     80.380135
     -2.877878     42.741558     42.741558     85.483116
     -2.867868     43.401738     43.401738     86.803476
     -2.857858     42.432317     42.432317     84.864634
     -2.847848     40.367067     40.367067     80.734134
     -2.837838     37.795692     37.795692     75.591384
     -2.827828     35.157740     35.157740     70.315479
     -2.817818     32.635074     32.635074     65.270148
     -2.807808     30.181628     30.181628     60.363255
     -2.797798     27.659844     27.659844     55.319687
     -2.787788     25.001133     25.001133     50.002267
     -2.777778     22.300798     22.300798     44.601595
     -2.767768     19.799771     19.799771     39.599542
     -2.757758     17.772509     17.772509     35.545018
     -2.747748     16.394282     16.394282     32.788564
     -2.737738     15.670763     15.670763     31.341526
     -2.727728     15.471902     15.471902     30.943804
     -2.717718     15.644751     15.644751     31.289502
     -2.707708     16.127640     16.127640     32.255281
     -2.697698     16.985577     16.985577     33.971154
     -2.687688     18.338295     18.338295     36.676589
     -2.677678     20.226545     20.226545     40.453090
     -2.667668     22.509566     22.509566     45.019131
     -2.657658     24.872320     24.872320     49.744639
     -2.647648     26.950730     26.950730     53.901460
     -2.637638     28.502630     28.502630     57.005261
     -2.627628     29.517905     29.517905     59.035810
     -2.617618     30.199405     30.199405     60.398810
     -2.607608     30.830697     30.830697     61.661393
     -2.597598     31.616706     31.616706     63.233413
     -2.587588     32.589324     32.589324     65.178649
     -2.577578     33.613162     33.613162     67.226325
     -2.567568     34.456751     34.456751     68.913502
     -2.557558     34.866971     34.866971     69.733942
     -2.547548     34.613434     34.613434     69.226869
     -2.537538     33.518411     33.518411     67.036823
     -2.527528     31.506358     31.506358     63.012716
     -2.517518     28.678080     28.678080     57.356160
     -2.507508     25.368064     25.368064     50.736127
     -2.497497     22.126087     22.126087     44.252174
     -2.487487     19.596326     19.596326     39.192651
     -2.477477     18.327225     18.327225     36.654449
     -2.467467     18.591489     18.591489     37.182978
     -2.457457     20.298580     20.298580     40.597159
     -2.447447     23.042110     23.042110     46.084219
     -2.437437     26.263690     26.263690     52.527380
     -2.427427     29.461782     29.461782     58.923563
     -2.417417     32.352353     32.352353     64.704705
     -2.407407     34.908601     34.908601     69.817202
     -2.397397     37.263025     37.263025     74.526050
     -2.387387     39.522459     39.522459     79.044918
     -2.377377     41.592905     41.592905     83.185809
     -2.367367     43.111545     43.111545     86.223090
     -2.357357     43.534741     43.534741     87.069482
     -2.347347     42.354001     42.354001     84.708002
     -2.337337     39.344246     39.344246     78.688492
     -2.327327     34.726732     34.726732     69.453464
     -2.317317     29.167396     29.167396     58.334792
     -2.307307     23.610437     23.610437     47.220873
     -2.297297     19.021777     19.021777     38.043554
     -2.287287     16.146903     16.146903     32.293806
     -2.277277     15.363098     15.363098     30.726197
     -2.267267     16.651803     16.651803     33.303607
     -2.257257     19.668114     19.668114     39.336228
     -2.247247     23.861598     23.861598     47.723196
     -2.237237     28.603704     28.603704     57.207409
     -2.227227     33.289888     33.289888     66.579777
     -2.217217     37.400528     37.400528     74.801057
     -2.207207     40.522065     40.522065     81.044130
     -2.197197     42.346643     42.346643     84.693286
     -2.187187     42.677535     42.677535     85.355070
     -2.177177     41.459223     41.459223     82.918447
     -2.167167     38.824286     38.824286     77.648572
     -2.157157     35.119405     35.119405     70.238809
     -2.147147     30.865114     30.865114     61.730228
     -2.137137     26.633304     26.633304     53.266608
     -2.127127     22.880060     22.880060     45.760120
     -2.117117     19.811827     19.811827     39.623654
     -2.107107     17.356116     17.356116     34.712233
     -2.097097     15.252841     15.252841     30.505681
     -2.087087     13.214602     13.214602     26.429205
     -2.077077     11.069684     11.069684     22.139367
     -2.067067      8.820930      8.820930     17.641861
     -2.057057      6.609139      6.609139     13.218278
     -2.047047      4.621304      4.621304      9.242607
     -2.037037      3.001873      3.001873      6.003746
     -2.027027      1.806914      1.806914      3.613829
     -2.017017      1.007546      1.007546      2.015092
     -2.007007      0.523946      0.523946      1.047893
     -1.996997      0.265322      0.265322      0.530645
     -1.986987      0.159933      0.159933      0.319866
     -1.976977      0.171618      0.171618      0.343235
     -1.966967      0.306785      0.306785      0.613569
     -1.956957      0.616256      0.616256      1.232513
     -1.946947      1.192237      1.192237      2.384474
     -1.936937      2.156429      2.156429      4.312859
     -1.926927      3.634986      3.634986      7.269972
     -1.916917      5.721285      5.721285     11.442570
     -1.906907      8.436135      8.436135     16.872270
     -1.896897     11.700754     11.700754     23.401509
     -1.886887     15.334764     15.334764     30.669527
     -1.876877     19.079721     19.079721     38.159441
     -1.866867     22.636918     22.636918     45.273836
     -1.856857     25.706315     25.706315     51.412630
     -1.846847     28.022389     28.022389     56.044778
     -1.836837     29.391048     29.391048     58.782096
     -1.826827     29.727375     29.727375     59.454751
     -1.816817     29.079134     29.079134     58.158267
     -1.806807     27.613537     27.613537     55.227073
     -1.796797     25.559982     25.559982     51.119963
     -1.786787     23.132379     23.132379     46.264758
     -1.776777     20.474715     20.474715     40.949431
     -1.766767     17.661192     17.661192     35.322384
     -1.756757     14.744306     14.744306     29.488611
     -1.746747     11.811122     11.811122     23.622245
     -1.736737      9.006285      9.006285     18.012571
     -1.726727      6.509143      6.509143     13.018285
     -1.716717      4.486217      4.486217      8.972434
     -1.706707      3.053101      3.053101      6.106203
     -1.696697      2.265901      2.265901      4.531802
     -1.686687      2.136470      2.136470      4.272941
     -1.676677      2.648253      2.648253      5.296505
     -1.666667      3.751526      3.751526      7.503052
     -1.656657      5.335436      5.335436     10.670873
     -1.646647      7.196871      7.196871     14.393742
     -1.636637      9.038181      9.038181     18.076361
     -1.626627     10.517167     10.517167     21.034335
