# EIG2DOS: Utility for SIESTA to obtain the electronic density of states
#  E. Artacho, Apr 1999, A. Garcia, Apr 2012
#  Nick R. Papior, Feb 2017
# ------------------------------------------
# Eigenvalues calculated from a non-polarized calculation
# Eigenvalues read from siesta.EIG
# Kpoint weights read from siesta.KP
# Using smearing parameter:   0.0500
# Using 1000 points in the energy range
# Selected bands: 1 to: 2981
# Emin, Emax in file for selected band(s):    -27.0472155    218.3142860
# Nbands, Nspin, Nk   =   2981     1     1
# E_F                 =    -4.2949 eV --> (shifted to ZERO)
# Broadening          =     0.0500 eV
#
#        E            N(up)  (=)   N(down)         Ntot
     -5.000000     45.465611     45.465611     90.931223
     -4.989990     48.840287     48.840287     97.680573
     -4.979980     50.681900     50.681900    101.363799
     -4.969970     50.858535     50.858535    101.717070
     -4.959960     49.468272     49.468272     98.936544
     -4.949950     46.796267     46.796267     93.592535
     -4.939940     43.250878     43.250878     86.501757
     -4.929930     39.312487     39.312487     78.624974
     -4.919920     35.511691     35.511691     71.023381
     -4.909910     32.426142     32.426142     64.852284
     -4.899900     30.661238     30.661238     61.322477
     -4.889890     30.772559     30.772559     61.545119
     -4.879880     33.110136     33.110136     66.220272
     -4.869870     37.617962     37.617962     75.235924
     -4.859860     43.683126     43.683126     87.366251
     -4.849850     50.151604     50.151604    100.303207
     -4.839840     55.574836     55.574836    111.149672
     -4.829830     58.633413     58.633413    117.266826
     -4.819820     58.568773     58.568773    117.137545
     -4.809810     55.423211     55.423211    110.846423
     -4.799800     49.975967     49.975967     99.951933
     -4.789790     43.419124     43.419124     86.838248
     -4.779780     36.941730     36.941730     73.883461
     -4.769770     31.408274     31.408274     62.816548
     -4.759760     27.232321     27.232321     54.464642
     -4.749750     24.429072     24.429072     48.858144
     -4.739740     22.758397     22.758397     45.516795
     -4.729730     21.868925     21.868925     43.737849
     -4.719720     21.396599     21.396599     42.793197
     -4.709710     21.015128     21.015128     42.030257
     -4.699700     20.458373     20.458373     40.916746
     -4.689690     19.537690     19.537690     39.075380
     -4.679680     18.169438     18.169438     36.338875
     -4.669670     16.413990     16.413990     32.827980
     -4.659660     14.511714     14.511714     29.023428
     -4.649650     12.890960     12.890960     25.781920
     -4.639640     12.125033     12.125033     24.250066
     -4.629630     12.828397     12.828397     25.656793
     -4.619620     15.500711     15.500711     31.001421
     -4.609610     20.347018     20.347018     40.694035
     -4.599600     27.123667     27.123667     54.247334
     -4.589590     35.076739     35.076739     70.153478
     -4.579580     43.035216     43.035216     86.070431
     -4.569570     49.677146     49.677146     99.354292
     -4.559560     53.908744     53.908744    107.817488
     -4.549550     55.221935     55.221935    110.443870
     -4.539540     53.876288     53.876288    107.752576
     -4.529530     50.811983     50.811983    101.623967
     -4.519520     47.317064     47.317064     94.634129
     -4.509510     44.583008     44.583008     89.166016
     -4.499499     43.328120     43.328120     86.656241
     -4.489489     43.627928     43.627928     87.255857
     -4.479479     44.992596     44.992596     89.985192
     -4.469469     46.627108     46.627108     93.254217
     -4.459459     47.748394     47.748394     95.496789
     -4.449449     47.834140     47.834140     95.668281
     -4.439439     46.728863     46.728863     93.457726
     -4.429429     44.603474     44.603474     89.206948
     -4.419419     41.822862     41.822862     83.645725
     -4.409409     38.799740     38.799740     77.599480
     -4.399399     35.896410     35.896410     71.792821
     -4.389389     33.392189     33.392189     66.784377
     -4.379379     31.490411     31.490411     62.980821
     -4.369369     30.322774     30.322774     60.645548
     -4.359359     29.928826     29.928826     59.857652
     -4.349349     30.226301     30.226301     60.452602
     -4.339339     31.011086     31.011086     62.022173
     -4.329329     32.013236     32.013236     64.026473
     -4.319319     32.996742     32.996742     65.993485
     -4.309309     33.856385     33.856385     67.712771
     -4.299299     34.660776     34.660776     69.321552
     -4.289289     35.617028     35.617028     71.234056
     -4.279279     36.968316     36.968316     73.936632
     -4.269269     38.860375     38.860375     77.720751
     -4.259259     41.222821     41.222821     82.445642
     -4.249249     43.712409     43.712409     87.424818
     -4.239239     45.757817     45.757817     91.515635
     -4.229229     46.717925     46.717925     93.435849
     -4.219219     46.113484     46.113484     92.226969
     -4.209209     43.837715     43.837715     87.675430
     -4.199199     40.236978     40.236978     80.473956
     -4.189189     36.005028     36.005028     72.010056
     -4.179179     31.931928     31.931928     63.863857
     -4.169169     28.630042     28.630042     57.260083
     -4.159159     26.369224     26.369224     52.738448
     -4.149149     25.086737     25.086737     50.173474
     -4.139139     24.541064     24.541064     49.082129
     -4.129129     24.511128     24.511128     49.022255
     -4.119119     24.932810     24.932810     49.865621
     -4.109109     25.905790     25.905790     51.811580
     -4.099099     27.570034     27.570034     55.140068
     -4.089089     29.917350     29.917350     59.834699
     -4.079079     32.644881     32.644881     65.289761
     -4.069069     35.150665     35.150665     70.301330
     -4.059059     36.706413     36.706413     73.412826
     -4.049049     36.743583     36.743583     73.487166
     -4.039039     35.112668     35.112668     70.225335
     -4.029029     32.177281     32.177281     64.354563
     -4.019019     28.691834     28.691834     57.383668
     -4.009009     25.531237     25.531237     51.062474
     -3.998999     23.415043     23.415043     46.830086
     -3.988989     22.751333     22.751333     45.502667
     -3.978979     23.637191     23.637191     47.274381
     -3.968969     25.959421     25.959421     51.918841
     -3.958959     29.502809     29.502809     59.005619
     -3.948949     34.006706     34.006706     68.013412
     -3.938939     39.175173     39.175173     78.350346
     -3.928929     44.685952     44.685952     89.371905
     -3.918919     50.231229     50.231229    100.462457
     -3.908909     55.576524     55.576524    111.153048
     -3.898899     60.587580     60.587580    121.175159
     -3.888889     65.182534     65.182534    130.365068
     -3.878879     69.216145     69.216145    138.432290
     -3.868869     72.360285     72.360285    144.720569
     -3.858859     74.069390     74.069390    148.138780
     -3.848849     73.689026     73.689026    147.378053
     -3.838839     70.691283     70.691283    141.382565
     -3.828829     64.942220     64.942220    129.884439
     -3.818819     56.871678     56.871678    113.743355
     -3.808809     47.450195     47.450195     94.900390
     -3.798799     37.965923     37.965923     75.931847
     -3.788789     29.686387     29.686387     59.372773
     -3.778779     23.534964     23.534964     47.069929
     -3.768769     19.891985     19.891985     39.783970
     -3.758759     18.567554     18.567554     37.135109
     -3.748749     18.927878     18.927878     37.855757
     -3.738739     20.117451     20.117451     40.234903
     -3.728729     21.309832     21.309832     42.619664
     -3.718719     21.927629     21.927629     43.855258
     -3.708709     21.785296     21.785296     43.570591
     -3.698699     21.122758     21.122758     42.245517
     -3.688689     20.516941     20.516941     41.033881
     -3.678679     20.685527     20.685527     41.371053
     -3.668669     22.230965     22.230965     44.461930
     -3.658659     25.402488     25.402488     50.804976
     -3.648649     29.962993     29.962993     59.925985
     -3.638639     35.221006     35.221006     70.442012
     -3.628629     40.226219     40.226219     80.452439
     -3.618619     44.055108     44.055108     88.110217
     -3.608609     46.071371     46.071371     92.142742
     -3.598599     46.062909     46.062909     92.125818
     -3.588589     44.224141     44.224141     88.448282
     -3.578579     41.025644     41.025644     82.051288
     -3.568569     37.047050     37.047050     74.094101
     -3.558559     32.833220     32.833220     65.666441
     -3.548549     28.796361     28.796361     57.592723
     -3.538539     25.163832     25.163832     50.327664
     -3.528529     21.972229     21.972229     43.944457
     -3.518519     19.113340     19.113340     38.226680
     -3.508509     16.425864     16.425864     32.851728
     -3.498498     13.801746     13.801746     27.603492
     -3.488488     11.261113     11.261113     22.522226
     -3.478478      8.962491      8.962491     17.924982
     -3.468468      7.148031      7.148031     14.296062
     -3.458458      6.052889      6.052889     12.105779
     -3.448448      5.816315      5.816315     11.632629
     -3.438438      6.422115      6.422115     12.844230
     -3.428428      7.682951      7.682951     15.365902
     -3.418418      9.275016      9.275016     18.550033
     -3.408408     10.822410     10.822410     21.644820
     -3.398398     12.015096     12.015096     24.030193
     -3.388388     12.723167     12.723167     25.446334
     -3.378378     13.059075     13.059075     26.118150
     -3.368368     13.354035     13.354035     26.708071
     -3.358358     14.052474     14.052474     28.104947
     -3.348348     15.566508     15.566508     31.133017
     -3.338338     18.145124     18.145124     36.290248
     -3.328328     21.793397     21.793397     43.586794
     -3.318318     26.245549     26.245549     52.491097
     -3.308308     30.980264     30.980264     61.960528
     -3.298298     35.277654     35.277654     70.555308
     -3.288288     38.334087     38.334087     76.668175
     -3.278278     39.442032     39.442032     78.884064
     -3.268268     38.198640     38.198640     76.397280
     -3.258258     34.660396     34.660396     69.320792
     -3.248248     29.358618     29.358618     58.717236
     -3.238238     23.149242     23.149242     46.298485
     -3.228228     16.956131     16.956131     33.912261
     -3.218218     11.520789     11.520789     23.041579
     -3.208208      7.257839      7.257839     14.515679
     -3.198198      4.250507      4.250507      8.501014
     -3.188188      2.351755      2.351755      4.703510
     -3.178178      1.324055      1.324055      2.648110
     -3.168168      0.960291      0.960291      1.920583
     -3.158158      1.158493      1.158493      2.316986
     -3.148148      1.948591      1.948591      3.897182
     -3.138138      3.478508      3.478508      6.957016
     -3.128128      5.964359      5.964359     11.928717
     -3.118118      9.607365      9.607365     19.214729
     -3.108108     14.487302     14.487302     28.974605
     -3.098098     20.458335     20.458335     40.916669
     -3.088088     27.087891     27.087891     54.175783
     -3.078078     33.679002     33.679002     67.358003
     -3.068068     39.392727     39.392727     78.785454
     -3.058058     43.445432     43.445432     86.890863
     -3.048048     45.315494     45.315494     90.630989
     -3.038038     44.880724     44.880724     89.761449
     -3.028028     42.434191     42.434191     84.868382
     -3.018018     38.580863     38.580863     77.161727
     -3.008008     34.068462     34.068462     68.136925
     -2.997998     29.623039     29.623039     59.246078
     -2.987988     25.837733     25.837733     51.675466
     -2.977978     23.124470     23.124470     46.248940
     -2.967968     21.711976     21.711976     43.423952
     -2.957958     21.669405     21.669405     43.338810
     -2.947948     22.940740     22.940740     45.881481
     -2.937938     25.376141     25.376141     50.752282
     -2.927928     28.744500     28.744500     57.489000
     -2.917918     32.720826     32.720826     65.441652
     -2.907908     36.866793     36.866793     73.733586
     -2.897898     40.644745     40.644745     81.289490
     -2.887888     43.498607     43.498607     86.997213
     -2.877878     44.993872     44.993872     89.987745
     -2.867868     44.958816     44.958816     89.917632
     -2.857858     43.549198     43.549198     87.098395
     -2.847848     41.188950     41.188950     82.377900
     -2.837838     38.404080     38.404080     76.808160
     -2.827828     35.626313     35.626313     71.252625
     -2.817818     33.060536     33.060536     66.121072
     -2.807808     30.675642     30.675642     61.351285
     -2.797798     28.312306     28.312306     56.624613
     -2.787788     25.840557     25.840557     51.681114
     -2.777778     23.277588     23.277588     46.555176
     -2.767768     20.803398     20.803398     41.606796
     -2.757758     18.672895     18.672895     37.345790
     -2.747748     17.083500     17.083500     34.167000
     -2.737738     16.082171     16.082171     32.164341
     -2.727728     15.569733     15.569733     31.139466
     -2.717718     15.398007     15.398007     30.796014
     -2.707708     15.494283     15.494283     30.988566
     -2.697698     15.927478     15.927478     31.854957
     -2.687688     16.865909     16.865909     33.731819
     -2.677678     18.447483     18.447483     36.894965
     -2.667668     20.644156     20.644156     41.288312
     -2.657658     23.212332     23.212332     46.424664
     -2.647648     25.769884     25.769884     51.539768
     -2.637638     27.959630     27.959630     55.919261
     -2.627628     29.601786     29.601786     59.203572
     -2.617618     30.744640     30.744640     61.489281
     -2.607608     31.590139     31.590139     63.180277
     -2.597598     32.351452     32.351452     64.702905
     -2.587588     33.134826     33.134826     66.269651
     -2.577578     33.905333     33.905333     67.810666
     -2.567568     34.527449     34.527449     69.054897
     -2.557558     34.825405     34.825405     69.650810
     -2.547548     34.619471     34.619471     69.238941
     -2.537538     33.742808     33.742808     67.485615
     -2.527528     32.076663     32.076663     64.153327
     -2.517518     29.624756     29.624756     59.249512
     -2.507508     26.596667     26.596667     53.193333
     -2.497497     23.434559     23.434559     46.869118
     -2.487487     20.734090     20.734090     41.468181
     -2.477477     19.070714     19.070714     38.141429
     -2.467467     18.803724     18.803724     37.607448
     -2.457457     19.951218     19.951218     39.902436
     -2.447447     22.198194     22.198194     44.396388
     -2.437437     25.036499     25.036499     50.072997
     -2.427427     27.972534     27.972534     55.945068
     -2.417417     30.706031     30.706031     61.412061
     -2.407407     33.195903     33.195903     66.391805
     -2.397397     35.582631     35.582631     71.165262
     -2.387387     38.007026     38.007026     76.014053
     -2.377377     40.418975     40.418975     80.837950
     -2.367367     42.479607     42.479607     84.959214
     -2.357357     43.619292     43.619292     87.238584
     -2.347347     43.239571     43.239571     86.479143
     -2.337337     40.974545     40.974545     81.949089
     -2.327327     36.893142     36.893142     73.786284
     -2.317317     31.547922     31.547922     63.095844
     -2.307307     25.847402     25.847402     51.694803
     -2.297297     20.808677     20.808677     41.617354
     -2.287287     17.292042     17.292042     34.584084
     -2.277277     15.810513     15.810513     31.621025
     -2.267267     16.460006     16.460006     32.920013
     -2.257257     18.963741     18.963741     37.927481
     -2.247247     22.791762     22.791762     45.583524
     -2.237237     27.306948     27.306948     54.613895
     -2.227227     31.893446     31.893446     63.786891
     -2.217217     36.036253     36.036253     72.072506
     -2.207207     39.341832     39.341832     78.683663
     -2.197197     41.517389     41.517389     83.034778
     -2.187187     42.348273     42.348273     84.696545
     -2.177177     41.711309     41.711309     83.422619
     -2.167167     39.630568     39.630568     79.261136
     -2.157157     36.337979     36.337979     72.675957
     -2.147147     32.277844     32.277844     64.555687
     -2.137137     28.016051     28.016051     56.032102
     -2.127127     24.073904     24.073904     48.147808
     -2.117117     20.763056     20.763056     41.526111
     -2.107107     18.108906     18.108906     36.217812
     -2.097097     15.903106     15.903106     31.806212
     -2.087087     13.851971     13.851971     27.703942
     -2.077077     11.736647     11.736647     23.473294
     -2.067067      9.504396      9.504396     19.008792
     -2.057057      7.260172      7.260172     14.520345
     -2.047047      5.185934      5.185934     10.371869
     -2.037037      3.445322      3.445322      6.890645
     -2.027027      2.122399      2.122399      4.244798
     -2.017017      1.211217      1.211217      2.422435
     -2.007007      0.643308      0.643308      1.286616
     -1.996997      0.328290      0.328290      0.656580
     -1.986987      0.188170      0.188170      0.376339
     -1.976977      0.178169      0.178169      0.356337
     -1.966967      0.296173      0.296173      0.592346
     -1.956957      0.585026      0.585026      1.170053
     -1.946947      1.128461      1.128461      2.256923
     -1.936937      2.037027      2.037027      4.074053
     -1.926927      3.419510      3.419510      6.839019
     -1.916917      5.340666      5.340666     10.681331
     -1.906907      7.775878      7.775878     15.551756
     -1.896897     10.581605     10.581605     21.163210
     -1.886887     13.499868     13.499868     26.999737
     -1.876877     16.203174     16.203174     32.406348
     -1.866867     18.368929     18.368929     36.737859
     -1.856857     19.759861     19.759861     39.519722
     -1.846847     20.285207     20.285207     40.570413
     -1.836837     20.024087     20.024087     40.048174
     -1.826827     19.201491     19.201491     38.402982
     -1.816817     18.117603     18.117603     36.235205
     -1.806807     17.046313     17.046313     34.092626
     -1.796797     16.137465     16.137465     32.274930
     -1.786787     15.367176     15.367176     30.734351
     -1.776777     14.566519     14.566519     29.133039
     -1.766767     13.520963     13.520963     27.041925
     -1.756757     12.092960     12.092960     24.185921
     -1.746747     10.306646     10.306646     20.613293
     -1.736737      8.357352      8.357352     16.714703
     -1.726727      6.552541      6.552541     13.105083
     -1.716717      5.223417      5.223417     10.446834
     -1.706707      4.648251      4.648251      9.296501
     -1.696697      5.005303      5.005303     10.010607
     -1.686687      6.347959      6.347959     12.695919
     -1.676677      8.587267      8.587267     17.174533
     -1.666667     11.479218     11.479218     22.958436
     -1.656657     14.631403     14.631403     29.262806
     -1.646647     17.548820     17.548820     35.097641
     -1.636637     19.725184     19.725184     39.450367
     -1.626627     20.762012     20.762012     41.524024
