# EIG2DOS: Utility for SIESTA to obtain the electronic density of states
#  E. Artacho, Apr 1999, A. Garcia, Apr 2012
#  Nick R. Papior, Feb 2017
# ------------------------------------------
# Eigenvalues calculated from a non-polarized calculation
# Eigenvalues read from siesta.EIG
# Kpoint weights read from siesta.KP
# Using smearing parameter:   0.0500
# Using 1000 points in the energy range
# Selected bands: 1 to: 2981
# Emin, Emax in file for selected band(s):    -27.0852288    218.3489160
# Nbands, Nspin, Nk   =   2981     1     1
# E_F                 =    -4.2571 eV --> (shifted to ZERO)
# Broadening          =     0.0500 eV
#
#        E            N(up)  (=)   N(down)         Ntot
     -5.000000     34.086541     34.086541     68.173083
     -4.989990     37.941120     37.941120     75.882240
     -4.979980     41.298868     41.298868     82.597735
     -4.969970     43.594887     43.594887     87.189774
     -4.959960     44.421366     44.421366     88.842733
     -4.949950     43.643206     43.643206     87.286411
     -4.939940     41.441848     41.441848     82.883696
     -4.929930     38.283029     38.283029     76.566057
     -4.919920     34.835656     34.835656     69.671313
     -4.909910     31.873529     31.873529     63.747057
     -4.899900     30.169474     30.169474     60.338948
     -4.889890     30.366573     30.366573     60.733147
     -4.879880     32.813880     32.813880     65.627760
     -4.869870     37.394601     37.394601     74.789202
     -4.859860     43.426605     43.426605     86.853209
     -4.849850     49.729575     49.729575     99.459149
     -4.839840     54.897727     54.897727    109.795453
     -4.829830     57.709918     57.709918    115.419835
     -4.819820     57.515603     57.515603    115.031206
     -4.809810     54.423993     54.423993    108.847987
     -4.799800     49.213062     49.213062     98.426123
     -4.789790     43.013611     43.013611     86.027222
     -4.779780     36.925481     36.925481     73.850963
     -4.769770     31.729867     31.729867     63.459735
     -4.759760     27.782757     27.782757     55.565513
     -4.749750     25.071953     25.071953     50.143906
     -4.739740     23.357136     23.357136     46.714271
     -4.729730     22.309994     22.309994     44.619988
     -4.719720     21.607900     21.607900     43.215800
     -4.709710     20.975633     20.975633     41.951267
     -4.699700     20.195664     20.195664     40.391327
     -4.689690     19.115324     19.115324     38.230648
     -4.679680     17.671781     17.671781     35.343561
     -4.669670     15.936823     15.936823     31.873645
     -4.659660     14.161506     14.161506     28.323012
     -4.649650     12.787988     12.787988     25.575976
     -4.639640     12.400338     12.400338     24.800675
     -4.629630     13.604823     13.604823     27.209645
     -4.619620     16.854676     16.854676     33.709351
     -4.609610     22.259455     22.259455     44.518911
     -4.599600     29.442298     29.442298     58.884596
     -4.589590     37.519615     37.519615     75.039231
     -4.579580     45.257991     45.257991     90.515982
     -4.569570     51.400496     51.400496    102.800991
     -4.559560     55.067333     55.067333    110.134666
     -4.549550     56.072053     56.072053    112.144106
     -4.539540     55.003001     55.003001    110.006001
     -4.529530     53.010437     53.010437    106.020874
     -4.519520     51.371415     51.371415    102.742830
     -4.509510     51.008402     51.008402    102.016805
     -4.499499     52.159848     52.159848    104.319696
     -4.489489     54.331319     54.331319    108.662639
     -4.479479     56.530400     56.530400    113.060800
     -4.469469     57.668131     57.668131    115.336261
     -4.459459     56.950469     56.950469    113.900939
     -4.449449     54.109155     54.109155    108.218310
     -4.439439     49.412978     49.412978     98.825957
     -4.429429     43.505521     43.505521     87.011041
     -4.419419     37.178601     37.178601     74.357202
     -4.409409     31.185418     31.185418     62.370837
     -4.399399     26.139622     26.139622     52.279244
     -4.389389     22.481529     22.481529     44.963058
     -4.379379     20.463345     20.463345     40.926690
     -4.369369     20.123751     20.123751     40.247502
     -4.359359     21.264653     21.264653     42.529306
     -4.349349     23.470237     23.470237     46.940474
     -4.339339     26.196898     26.196898     52.393796
     -4.329329     28.920653     28.920653     57.841306
     -4.319319     31.287921     31.287921     62.575843
     -4.309309     33.205351     33.205351     66.410702
     -4.299299     34.830111     34.830111     69.660222
     -4.289289     36.464840     36.464840     72.929680
     -4.279279     38.396402     38.396402     76.792804
     -4.269269     40.733298     40.733298     81.466595
     -4.259259     43.297257     43.297257     86.594514
     -4.249249     45.615999     45.615999     91.231998
     -4.239239     47.041670     47.041670     94.083341
     -4.229229     46.974977     46.974977     93.949953
     -4.219219     45.117441     45.117441     90.234881
     -4.209209     41.637455     41.637455     83.274910
     -4.199199     37.156876     37.156876     74.313751
     -4.189189     32.547535     32.547535     65.095070
     -4.179179     28.627314     28.627314     57.254627
     -4.169169     25.899479     25.899479     51.798958
     -4.159159     24.451766     24.451766     48.903532
     -4.149149     24.042913     24.042913     48.085827
     -4.139139     24.310246     24.310246     48.620491
     -4.129129     24.982576     24.982576     49.965153
     -4.119119     25.993617     25.993617     51.987234
     -4.109109     27.446519     27.446519     54.893037
     -4.099099     29.453101     29.453101     58.906203
     -4.089089     31.935290     31.935290     63.870581
     -4.079079     34.505356     34.505356     69.010712
     -4.069069     36.514111     36.514111     73.028222
     -4.059059     37.272742     37.272742     74.545484
     -4.049049     36.352393     36.352393     72.704786
     -4.039039     33.808267     33.808267     67.616533
     -4.029029     30.205989     30.205989     60.411979
     -4.019019     26.434320     26.434320     52.868640
     -4.009009     23.403282     23.403282     46.806564
     -3.998999     21.777459     21.777459     43.554918
     -3.988989     21.853936     21.853936     43.707872
     -3.978979     23.598896     23.598896     47.197791
     -3.968969     26.773432     26.773432     53.546864
     -3.958959     31.057019     31.057019     62.114039
     -3.948949     36.116632     36.116632     72.233264
     -3.938939     41.629027     41.629027     83.258055
     -3.928929     47.294706     47.294706     94.589412
     -3.918919     52.866403     52.866403    105.732806
     -3.908909     58.175261     58.175261    116.350523
     -3.898899     63.115495     63.115495    126.230990
     -3.888889     67.567728     67.567728    135.135456
     -3.878879     71.290257     71.290257    142.580515
     -3.868869     73.848412     73.848412    147.696824
     -3.858859     74.651020     74.651020    149.302040
     -3.848849     73.113831     73.113831    146.227662
     -3.838839     68.898421     68.898421    137.796842
     -3.828829     62.123093     62.123093    124.246187
     -3.818819     53.441561     53.441561    106.883122
     -3.808809     43.939010     43.939010     87.878020
     -3.798799     34.875285     34.875285     69.750571
     -3.788789     27.368848     27.368848     54.737696
     -3.778779     22.132241     22.132241     44.264482
     -3.768769     19.338692     19.338692     38.677385
     -3.758759     18.644024     18.644024     37.288048
     -3.748749     19.337770     19.337770     38.675541
     -3.738739     20.568982     20.568982     41.137965
     -3.728729     21.585453     21.585453     43.170906
     -3.718719     21.931097     21.931097     43.862194
     -3.708709     21.557749     21.557749     43.115498
     -3.698699     20.823259     20.823259     41.646517
     -3.688689     20.369766     20.369766     40.739533
     -3.678679     20.905733     20.905733     41.811465
     -3.668669     22.948606     22.948606     45.897212
     -3.658659     26.610139     26.610139     53.220277
     -3.648649     31.506539     31.506539     63.013078
     -3.638639     36.839094     36.839094     73.678187
     -3.628629     41.624163     41.624163     83.248325
     -3.618619     44.984544     44.984544     89.969087
     -3.608609     46.386453     46.386453     92.772906
     -3.598599     45.737985     45.737985     91.475970
     -3.588589     43.337066     43.337066     86.674133
     -3.578579     39.722829     39.722829     79.445659
     -3.568569     35.505612     35.505612     71.011225
     -3.558559     31.227599     31.227599     62.455197
     -3.548549     27.270867     27.270867     54.541734
     -3.538539     23.813053     23.813053     47.626106
     -3.528529     20.834046     20.834046     41.668092
     -3.518519     18.178150     18.178150     36.356301
     -3.508509     15.659042     15.659042     31.318085
     -3.498498     13.169416     13.169416     26.338832
     -3.488488     10.747866     10.747866     21.495732
     -3.478478      8.574918      8.574918     17.149836
     -3.468468      6.905604      6.905604     13.811207
     -3.458458      5.972636      5.972636     11.945271
     -3.448448      5.898209      5.898209     11.796418
     -3.438438      6.640177      6.640177     13.280354
     -3.428428      7.985193      7.985193     15.970386
     -3.418418      9.593888      9.593888     19.187776
     -3.408408     11.094678     11.094678     22.189356
     -3.398398     12.205790     12.205790     24.411580
     -3.388388     12.844526     12.844526     25.689052
     -3.378378     13.175772     13.175772     26.351543
     -3.368368     13.571282     13.571282     27.142564
     -3.358358     14.490747     14.490747     28.981494
     -3.348348     16.330513     16.330513     32.661026
     -3.338338     19.293140     19.293140     38.586279
     -3.328328     23.309647     23.309647     46.619293
     -3.318318     28.018571     28.018571     56.037141
     -3.308308     32.796270     32.796270     65.592539
     -3.298298     36.843227     36.843227     73.686454
     -3.288288     39.337236     39.337236     78.674471
     -3.278278     39.641297     39.641297     79.282593
     -3.268268     37.507211     37.507211     75.014422
     -3.258258     33.184474     33.184474     66.368948
     -3.248248     27.367102     27.367102     54.734203
     -3.238238     20.986515     20.986515     41.973029
     -3.228228     14.938527     14.938527     29.877055
     -3.218218      9.861775      9.861775     19.723551
     -3.208208      6.046966      6.046966     12.093931
     -3.198198      3.483175      3.483175      6.966350
     -3.188188      1.988583      1.988583      3.977166
     -3.178178      1.356550      1.356550      2.713100
     -3.168168      1.466915      1.466915      2.933829
     -3.158158      2.340816      2.340816      4.681631
     -3.148148      4.135163      4.135163      8.270326
     -3.138138      7.078443      7.078443     14.156887
     -3.128128     11.355000     11.355000     22.710000
     -3.118118     16.961446     16.961446     33.922892
     -3.108108     23.584051     23.584051     47.168101
     -3.098098     30.561707     30.561707     61.123415
     -3.088088     36.983606     36.983606     73.967212
     -3.078078     41.917516     41.917516     83.835031
     -3.068068     44.694501     44.694501     89.389003
     -3.058058     45.129796     45.129796     90.259591
     -3.048048     43.572336     43.572336     87.144672
     -3.038038     40.749956     40.749956     81.499912
     -3.028028     37.476903     37.476903     74.953806
     -3.018018     34.359823     34.359823     68.719646
     -3.008008     31.637202     31.637202     63.274403
     -2.997998     29.215732     29.215732     58.431464
     -2.987988     26.866031     26.866031     53.732061
     -2.977978     24.465026     24.465026     48.930052
     -2.967968     22.160013     22.160013     44.320025
     -2.957958     20.378528     20.378528     40.757057
     -2.947948     19.685862     19.685862     39.371725
     -2.937938     20.557665     20.557665     41.115331
     -2.927928     23.163694     23.163694     46.327388
     -2.917918     27.247780     27.247780     54.495560
     -2.907908     32.150815     32.150815     64.301629
     -2.897898     36.973258     36.973258     73.946516
     -2.887888     40.824997     40.824997     81.649994
     -2.877878     43.076751     43.076751     86.153502
     -2.867868     43.522041     43.522041     87.044082
     -2.857858     42.389260     42.389260     84.778520
     -2.847848     40.202371     40.202371     80.404741
     -2.837838     37.552632     37.552632     75.105264
     -2.827828     34.881899     34.881899     69.763798
     -2.817818     32.369497     32.369497     64.738993
     -2.807808     29.961442     29.961442     59.922883
     -2.797798     27.509208     27.509208     55.018416
     -2.787788     24.932618     24.932618     49.865236
     -2.777778     22.315782     22.315782     44.631564
     -2.767768     19.888771     19.888771     39.777541
     -2.757758     17.915881     17.915881     35.831762
     -2.747748     16.565038     16.565038     33.130077
     -2.737738     15.840822     15.840822     31.681644
     -2.727728     15.620884     15.620884     31.241767
     -2.717718     15.767614     15.767614     31.535229
     -2.707708     16.236435     16.236435     32.472870
     -2.697698     17.102828     17.102828     34.205656
     -2.687688     18.484381     18.484381     36.968761
     -2.677678     20.407880     20.407880     40.815760
     -2.667668     22.714984     22.714984     45.429968
     -2.657658     25.080583     25.080583     50.161166
     -2.647648     27.144956     27.144956     54.289912
     -2.637638     28.682450     28.682450     57.364899
     -2.627628     29.701115     29.701115     59.402230
     -2.617618     30.411565     30.411565     60.823130
     -2.607608     31.088967     31.088967     62.177935
     -2.597598     31.917636     31.917636     63.835272
     -2.587588     32.906893     32.906893     65.813787
     -2.577578     33.906220     33.906220     67.812439
     -2.567568     34.679834     34.679834     69.359669
     -2.557558     34.979105     34.979105     69.958210
     -2.547548     34.584212     34.584212     69.168423
     -2.537538     33.334239     33.334239     66.668479
     -2.527528     31.178476     31.178476     62.356953
     -2.517518     28.249151     28.249151     56.498303
     -2.507508     24.910845     24.910845     49.821690
     -2.497497     21.729771     21.729771     43.459542
     -2.487487     19.342721     19.342721     38.685442
     -2.477477     18.265458     18.265458     36.530915
     -2.467467     18.721942     18.721942     37.443885
     -2.457457     20.573202     20.573202     41.146405
     -2.447447     23.381186     23.381186     46.762372
     -2.437437     26.582301     26.582301     53.164602
     -2.427427     29.695618     29.695618     59.391235
     -2.417417     32.473582     32.473582     64.947163
     -2.407407     34.927217     34.927217     69.854433
     -2.397397     37.214897     37.214897     74.429795
     -2.387387     39.449619     39.449619     78.899237
     -2.377377     41.523457     41.523457     83.046914
     -2.367367     43.046439     43.046439     86.092878
     -2.357357     43.446716     43.446716     86.893432
     -2.347347     42.199924     42.199924     84.399848
     -2.337337     39.086140     39.086140     78.172279
     -2.327327     34.351792     34.351792     68.703584
     -2.317317     28.697099     28.697099     57.394198
     -2.307307     23.094656     23.094656     46.189312
     -2.297297     18.522229     18.522229     37.044458
     -2.287287     15.719416     15.719416     31.438832
     -2.277277     15.046885     15.046885     30.093770
     -2.267267     16.467917     16.467917     32.935833
     -2.257257     19.623485     19.623485     39.246970
     -2.247247     23.953199     23.953199     47.906398
     -2.237237     28.819558     28.819558     57.639116
     -2.227227     33.607190     33.607190     67.214380
     -2.217217     37.783548     37.783548     75.567096
     -2.207207     40.922777     40.922777     81.845553
     -2.197197     42.709939     42.709939     85.419878
     -2.187187     42.951065     42.951065     85.902130
     -2.177177     41.605737     41.605737     83.211474
     -2.167167     38.832202     38.832202     77.664404
     -2.157157     35.006488     35.006488     70.012976
     -2.147147     30.672051     30.672051     61.344103
     -2.137137     26.408627     26.408627     52.817254
     -2.127127     22.662829     22.662829     45.325657
     -2.117117     19.620245     19.620245     39.240491
     -2.107107     17.187129     17.187129     34.374257
     -2.097097     15.091544     15.091544     30.183088
     -2.087087     13.047115     13.047115     26.094230
     -2.077077     10.892202     10.892202     21.784405
     -2.067067      8.641170      8.641170     17.282339
     -2.057057      6.441294      6.441294     12.882587
     -2.047047      4.478836      4.478836      8.957672
     -2.037037      2.892325      2.892325      5.784649
     -2.027027      1.730602      1.730602      3.461204
     -2.017017      0.959468      0.959468      1.918936
     -2.007007      0.497018      0.497018      0.994037
     -1.996997      0.253303      0.253303      0.506606
     -1.986987      0.159358      0.159358      0.318716
     -1.976977      0.182808      0.182808      0.365615
     -1.966967      0.334105      0.334105      0.668209
     -1.956957      0.667244      0.667244      1.334488
     -1.946947      1.274349      1.274349      2.548699
     -1.936937      2.269452      2.269452      4.538905
     -1.926927      3.757221      3.757221      7.514442
     -1.916917      5.789004      5.789004     11.578009
     -1.906907      8.318769      8.318769     16.637539
     -1.896897     11.178614     11.178614     22.357229
     -1.886887     14.090870     14.090870     28.181741
     -1.876877     16.720302     16.720302     33.440604
     -1.866867     18.752778     18.752778     37.505556
     -1.856857     19.975975     19.975975     39.951950
     -1.846847     20.337793     20.337793     40.675586
     -1.836837     19.965487     19.965487     39.930973
     -1.826827     19.137453     19.137453     38.274906
     -1.816817     18.209788     18.209788     36.419576
     -1.806807     17.514184     17.514184     35.028369
     -1.796797     17.259550     17.259550     34.519100
     -1.786787     17.474957     17.474957     34.949913
     -1.776777     18.016020     18.016020     36.032039
     -1.766767     18.626232     18.626232     37.252465
     -1.756757     19.020209     19.020209     38.040418
     -1.746747     18.954986     18.954986     37.909972
     -1.736737     18.275581     18.275581     36.551162
     -1.726727     16.941005     16.941005     33.882011
     -1.716717     15.039452     15.039452     30.078904
     -1.706707     12.789140     12.789140     25.578281
     -1.696697     10.511830     10.511830     21.023661
     -1.686687      8.571821      8.571821     17.143641
     -1.676677      7.290089      7.290089     14.580177
     -1.666667      6.857355      6.857355     13.714710
     -1.656657      7.272940      7.272940     14.545880
     -1.646647      8.330402      8.330402     16.660804
     -1.636637      9.660915      9.660915     19.321831
     -1.626627     10.831505     10.831505     21.663011
