# EIG2DOS: Utility for SIESTA to obtain the electronic density of states
#  E. Artacho, Apr 1999, A. Garcia, Apr 2012
#  Nick R. Papior, Feb 2017
# ------------------------------------------
# Eigenvalues calculated from a non-polarized calculation
# Eigenvalues read from siesta.EIG
# Kpoint weights read from siesta.KP
# Using smearing parameter:   0.0500
# Using 1000 points in the energy range
# Selected bands: 1 to: 2981
# Emin, Emax in file for selected band(s):    -27.0648331    218.3344870
# Nbands, Nspin, Nk   =   2981     1     1
# E_F                 =    -4.2737 eV --> (shifted to ZERO)
# Broadening          =     0.0500 eV
#
#        E            N(up)  (=)   N(down)         Ntot
     -5.000000     38.002787     38.002787     76.005574
     -4.989990     40.275739     40.275739     80.551479
     -4.979980     42.313042     42.313042     84.626083
     -4.969970     43.654875     43.654875     87.309751
     -4.959960     43.915502     43.915502     87.831004
     -4.949950     42.917573     42.917573     85.835145
     -4.939940     40.755957     40.755957     81.511913
     -4.929930     37.788273     37.788273     75.576546
     -4.919920     34.577833     34.577833     69.155665
     -4.909910     31.816137     31.816137     63.632275
     -4.899900     30.230393     30.230393     60.460786
     -4.889890     30.458859     30.458859     60.917717
     -4.879880     32.880928     32.880928     65.761855
     -4.869870     37.429980     37.429980     74.859959
     -4.859860     43.471459     43.471459     86.942917
     -4.849850     49.847815     49.847815     99.695631
     -4.839840     55.139646     55.139646    110.279292
     -4.829830     58.081962     58.081962    116.163923
     -4.819820     57.971647     57.971647    115.943294
     -4.809810     54.881687     54.881687    109.763374
     -4.799800     49.585150     49.585150     99.170300
     -4.789790     43.237697     43.237697     86.475394
     -4.779780     36.979788     36.979788     73.959577
     -4.769770     31.632570     31.632570     63.265139
     -4.759760     27.580525     27.580525     55.161050
     -4.749750     24.825156     24.825156     49.650312
     -4.739740     23.126221     23.126221     46.252442
     -4.729730     22.144474     22.144474     44.288948
     -4.719720     21.538606     21.538606     43.077212
     -4.709710     21.011489     21.011489     42.022978
     -4.699700     20.325700     20.325700     40.651399
     -4.689690     19.314482     19.314482     38.628963
     -4.679680     17.907002     17.907002     35.814004
     -4.669670     16.170084     16.170084     32.340167
     -4.659660     14.348916     14.348916     28.697832
     -4.649650     12.877190     12.877190     25.754380
     -4.639640     12.330397     12.330397     24.660794
     -4.629630     13.312872     13.312872     26.625744
     -4.619620     16.291532     16.291532     32.583064
     -4.609610     21.411946     21.411946     42.823892
     -4.599600     28.353520     28.353520     56.707041
     -4.589590     36.292716     36.292716     72.585432
     -4.579580     44.029413     44.029413     88.058826
     -4.569570     50.278909     50.278909    100.557817
     -4.559560     54.052877     54.052877    108.105753
     -4.549550     54.988530     54.988530    109.977059
     -4.539540     53.482481     53.482481    106.964962
     -4.529530     50.558992     50.558992    101.117984
     -4.519520     47.517948     47.517948     95.035895
     -4.509510     45.503972     45.503972     91.007945
     -4.499499     45.163907     45.163907     90.327814
     -4.489489     46.506853     46.506853     93.013707
     -4.479479     48.984195     48.984195     97.968390
     -4.469469     51.720129     51.720129    103.440258
     -4.459459     53.786037     53.786037    107.572073
     -4.449449     54.429879     54.429879    108.859759
     -4.439439     53.219270     53.219270    106.438540
     -4.429429     50.099321     50.099321    100.198642
     -4.419419     45.383640     45.383640     90.767280
     -4.409409     39.691893     39.691893     79.383787
     -4.399399     33.837674     33.837674     67.675349
     -4.389389     28.671928     28.671928     57.343855
     -4.379379     24.903388     24.903388     49.806776
     -4.369369     22.938569     22.938569     45.877137
     -4.359359     22.793537     22.793537     45.587074
     -4.349349     24.115720     24.115720     48.231439
     -4.339339     26.316738     26.316738     52.633475
     -4.329329     28.772343     28.772343     57.544686
     -4.319319     31.016292     31.016292     62.032584
     -4.309309     32.858265     32.858265     65.716530
     -4.299299     34.389793     34.389793     68.779586
     -4.289289     35.886872     35.886872     71.773744
     -4.279279     37.650891     37.650891     75.301781
     -4.269269     39.841643     39.841643     79.683287
     -4.259259     42.354522     42.354522     84.709044
     -4.249249     44.787280     44.787280     89.574560
     -4.239239     46.526232     46.526232     93.052463
     -4.229229     46.945394     46.945394     93.890789
     -4.219219     45.656334     45.656334     91.312668
     -4.209209     42.700561     42.700561     85.401121
     -4.199199     38.581232     38.581232     77.162464
     -4.189189     34.101634     34.101634     68.203268
     -4.179179     30.079669     30.079669     60.159339
     -4.169169     27.075709     27.075709     54.151417
     -4.159159     25.260209     25.260209     50.520417
     -4.149149     24.466736     24.466736     48.933471
     -4.139139     24.378859     24.378859     48.757717
     -4.129129     24.740897     24.740897     49.481794
     -4.119119     25.484548     25.484548     50.969095
     -4.109109     26.713295     26.713295     53.426591
     -4.099099     28.557267     28.557267     57.114535
     -4.089089     30.976609     30.976609     61.953219
     -4.079079     33.626543     33.626543     67.253086
     -4.069069     35.879438     35.879438     71.758876
     -4.059059     37.024034     37.024034     74.048068
     -4.049049     36.560737     36.560737     73.121474
     -4.039039     34.444896     34.444896     68.889793
     -4.029029     31.146816     31.146816     62.293632
     -4.019019     27.495060     27.495060     54.990120
     -4.009009     24.387859     24.387859     48.775717
     -3.998999     22.519933     22.519933     45.039867
     -3.988989     22.242901     22.242901     44.485802
     -3.978979     23.584655     23.584655     47.169310
     -3.968969     26.364224     26.364224     52.728448
     -3.958959     30.309193     30.309193     60.618385
     -3.948949     35.119540     35.119540     70.239079
     -3.938939     40.484084     40.484084     80.968168
     -3.928929     46.091597     46.091597     92.183193
     -3.918919     51.664794     51.664794    103.329589
     -3.908909     57.002219     57.002219    114.004437
     -3.898899     61.983455     61.983455    123.966910
     -3.888889     66.506553     66.506553    133.013106
     -3.878879     70.375815     70.375815    140.751629
     -3.868869     73.207374     73.207374    146.414749
     -3.858859     74.431412     74.431412    148.862825
     -3.848849     73.429598     73.429598    146.859197
     -3.838839     69.773132     69.773132    139.546265
     -3.828829     63.461542     63.461542    126.923085
     -3.818819     55.045134     55.045134    110.090268
     -3.808809     45.558906     45.558906     91.117812
     -3.798799     36.280356     36.280356     72.560712
     -3.788789     28.401397     28.401397     56.802793
     -3.778779     22.734969     22.734969     45.469937
     -3.768769     19.550628     19.550628     39.101256
     -3.758759     18.573930     18.573930     37.147860
     -3.748749     19.126753     19.126753     38.253506
     -3.738739     20.352218     20.352218     40.704437
     -3.728729     21.459984     21.459984     42.919968
     -3.718719     21.934747     21.934747     43.869494
     -3.708709     21.663023     21.663023     43.326047
     -3.698699     20.948267     20.948267     41.896533
     -3.688689     20.404904     20.404904     40.809808
     -3.678679     20.750372     20.750372     41.500743
     -3.668669     22.547656     22.547656     45.095312
     -3.658659     25.978318     25.978318     51.956637
     -3.648649     30.730606     30.730606     61.461213
     -3.638639     36.055738     36.055738     72.111476
     -3.628629     40.981173     40.981173     81.962346
     -3.618619     44.600135     44.600135     89.200271
     -3.608609     46.321723     46.321723     92.643446
     -3.598599     45.990123     45.990123     91.980246
     -3.588589     43.850977     43.850977     87.701955
     -3.578579     40.412431     40.412431     80.824861
     -3.568569     36.276061     36.276061     72.552122
     -3.558559     31.993597     31.993597     63.987193
     -3.548549     27.969587     27.969587     55.939174
     -3.538539     24.410904     24.410904     48.821807
     -3.528529     21.326063     21.326063     42.652126
     -3.518519     18.579812     18.579812     37.159624
     -3.508509     15.993226     15.993226     31.986451
     -3.498498     13.453771     13.453771     26.907543
     -3.488488     10.987676     10.987676     21.975352
     -3.478478      8.763444      8.763444     17.526888
     -3.468468      7.030217      7.030217     14.060434
     -3.458458      6.023054      6.023054     12.046107
     -3.448448      5.873432      5.873432     11.746865
     -3.438438      6.552057      6.552057     13.104114
     -3.428428      7.857636      7.857636     15.715273
     -3.418418      9.457386      9.457386     18.914772
     -3.408408     10.976935     10.976935     21.953871
     -3.398398     12.120953     12.120953     24.241906
     -3.388388     12.784972     12.784972     25.569944
     -3.378378     13.110157     13.110157     26.220314
     -3.368368     13.450185     13.450185     26.900369
     -3.358358     14.258254     14.258254     28.516509
     -3.348348     15.938592     15.938592     31.877184
     -3.338338     18.716309     18.716309     37.432618
     -3.328328     22.558695     22.558695     45.117390
     -3.318318     27.151283     27.151283     54.302565
     -3.308308     31.920049     31.920049     63.840097
     -3.298298     36.102430     36.102430     72.204860
     -3.288288     38.881626     38.881626     77.763253
     -3.278278     39.582017     39.582017     79.164034
     -3.268268     37.877321     37.877321     75.754642
     -3.258258     33.923519     33.923519     67.847037
     -3.248248     28.339220     28.339220     56.678440
     -3.238238     22.024494     22.024494     44.048987
     -3.228228     15.893192     15.893192     31.786385
     -3.218218     10.635314     10.635314     21.270629
     -3.208208      6.599156      6.599156     13.198312
     -3.198198      3.812667      3.812667      7.625335
     -3.188188      2.099238      2.099238      4.198475
     -3.178178      1.219383      1.219383      2.438767
     -3.168168      0.985740      0.985740      1.971481
     -3.158158      1.329908      1.329908      2.659815
     -3.148148      2.321982      2.321982      4.643964
     -3.138138      4.148875      4.148875      8.297750
     -3.128128      7.053194      7.053194     14.106388
     -3.118118     11.233961     11.233961     22.467923
     -3.108108     16.722350     16.722350     33.444700
     -3.098098     23.267488     23.267488     46.534975
     -3.088088     30.285265     30.285265     60.570530
     -3.078078     36.918680     36.918680     73.837359
     -3.068068     42.221297     42.221297     84.442593
     -3.058058     45.416137     45.416137     90.832273
     -3.048048     46.132074     46.132074     92.264149
     -3.038038     44.514375     44.514375     89.028750
     -3.028028     41.158256     41.158256     82.316513
     -3.018018     36.898677     36.898677     73.797354
     -3.008008     32.555183     32.555183     65.110367
     -2.997998     28.738823     28.738823     57.477646
     -2.987988     25.780864     25.780864     51.561727
     -2.977978     23.777626     23.777626     47.555251
     -2.967968     22.700914     22.700914     45.401828
     -2.957958     22.511962     22.511962     45.023925
     -2.947948     23.227849     23.227849     46.455698
     -2.937938     24.911319     24.911319     49.822637
     -2.927928     27.586164     27.586164     55.172329
     -2.917918     31.118674     31.118674     62.237348
     -2.907908     35.134831     35.134831     70.269662
     -2.897898     39.038808     39.038808     78.077616
     -2.887888     42.151752     42.151752     84.303505
     -2.877878     43.922254     43.922254     87.844507
     -2.867868     44.112133     44.112133     88.224265
     -2.857858     42.865334     42.865334     85.730668
     -2.847848     40.623889     40.623889     81.247778
     -2.837838     37.931787     37.931787     75.863574
     -2.827828     35.222455     35.222455     70.444910
     -2.817818     32.689475     32.689475     65.378950
     -2.807808     30.292843     30.292843     60.585686
     -2.797798     27.881120     27.881120     55.762241
     -2.787788     25.351783     25.351783     50.703566
     -2.777778     22.758139     22.758139     45.516278
     -2.767768     20.307439     20.307439     40.614877
     -2.757758     18.260273     18.260273     36.520546
     -2.747748     16.798778     16.798778     33.597556
     -2.737738     15.947358     15.947358     31.894716
     -2.727728     15.594526     15.594526     31.189051
     -2.717718     15.598553     15.598553     31.197105
     -2.707708     15.903716     15.903716     31.807431
     -2.697698     16.584805     16.584805     33.169611
     -2.687688     17.783780     17.783780     35.567559
     -2.677678     19.575979     19.575979     39.151958
     -2.667668     21.855761     21.855761     43.711522
     -2.657658     24.325237     24.325237     48.650473
     -2.647648     26.605357     26.605357     53.210714
     -2.637638     28.407084     28.407084     56.814169
     -2.627628     29.657831     29.657831     59.315663
     -2.617618     30.506287     30.506287     61.012574
     -2.607608     31.208635     31.208635     62.417270
     -2.597598     31.973680     31.973680     63.947361
     -2.587588     32.860114     32.860114     65.720227
     -2.577578     33.769308     33.769308     67.538616
     -2.567568     34.506477     34.506477     69.012954
     -2.557558     34.849531     34.849531     69.699061
     -2.547548     34.589124     34.589124     69.178247
     -2.537538     33.553158     33.553158     67.106316
     -2.527528     31.651971     31.651971     63.303942
     -2.517518     28.954076     28.954076     57.908151
     -2.507508     25.753128     25.753128     51.506256
     -2.497497     22.563673     22.563673     45.127347
     -2.487487     20.011690     20.011690     40.023379
     -2.477477     18.647657     18.647657     37.295313
     -2.467467     18.761294     18.761294     37.522589
     -2.457457     20.284853     20.284853     40.569706
     -2.447447     22.832894     22.832894     45.665789
     -2.437437     25.863265     25.863265     51.726531
     -2.427427     28.887614     28.887614     57.775227
     -2.417417     31.635813     31.635813     63.271627
     -2.407407     34.098636     34.098636     68.197272
     -2.397397     36.429685     36.429685     72.859370
     -2.387387     38.756139     38.756139     77.512278
     -2.377377     40.995660     40.995660     81.991320
     -2.367367     42.779288     42.779288     85.558577
     -2.357357     43.533316     43.533316     87.066631
     -2.347347     42.696578     42.696578     85.393155
     -2.337337     39.979582     39.979582     79.959163
     -2.327327     35.545314     35.545314     71.090628
     -2.317317     30.025629     30.025629     60.051257
     -2.307307     24.365210     24.365210     48.730420
     -2.297297     19.563424     19.563424     39.126847
     -2.287287     16.419876     16.419876     32.839753
     -2.277277     15.369320     15.369320     30.738639
     -2.267267     16.438214     16.438214     32.876429
     -2.257257     19.304942     19.304942     38.609883
     -2.247247     23.420181     23.420181     46.840363
     -2.237237     28.142102     28.142102     56.284204
     -2.227227     32.850535     32.850535     65.701070
     -2.217217     37.017872     37.017872     74.035745
     -2.207207     40.232348     40.232348     80.464696
     -2.197197     42.190716     42.190716     84.381433
     -2.187187     42.692372     42.692372     85.384744
     -2.177177     41.661862     41.661862     83.323723
     -2.167167     39.197986     39.197986     78.395972
     -2.157157     35.611731     35.611731     71.223461
     -2.147147     31.401349     31.401349     62.802698
     -2.137137     27.140057     27.140057     54.280113
     -2.127127     23.308146     23.308146     46.616291
     -2.117117     20.147858     20.147858     40.295717
     -2.107107     17.618349     17.618349     35.236697
     -2.097097     15.475006     15.475006     30.950012
     -2.087087     13.426969     13.426969     26.853939
     -2.077077     11.286524     11.286524     22.573048
     -2.067067      9.038654      9.038654     18.077308
     -2.057057      6.813137      6.813137     13.626275
     -2.047047      4.795791      4.795791      9.591581
     -2.037037      3.137251      3.137251      6.274501
     -2.027027      1.902180      1.902180      3.804359
     -2.017017      1.068494      1.068494      2.136988
     -2.007007      0.559577      0.559577      1.119154
     -1.996997      0.284652      0.284652      0.569304
     -1.986987      0.170259      0.170259      0.340518
     -1.976977      0.178123      0.178123      0.356247
     -1.966967      0.312728      0.312728      0.625456
     -1.956957      0.622712      0.622712      1.245424
     -1.946947      1.196175      1.196175      2.392351
     -1.936937      2.145661      2.145661      4.291322
     -1.926927      3.578343      3.578343      7.156686
     -1.916917      5.552931      5.552931     11.105861
     -1.906907      8.034831      8.034831     16.069661
     -1.896897     10.868872     10.868872     21.737744
     -1.886887     13.787316     13.787316     27.574632
     -1.876877     16.458213     16.458213     32.916426
     -1.866867     18.561810     18.561810     37.123619
     -1.856857     19.870881     19.870881     39.741761
     -1.846847     20.309842     20.309842     40.619684
     -1.836837     19.974450     19.974450     39.948901
     -1.826827     19.103128     19.103128     38.206255
     -1.816817     18.001983     18.001983     36.003967
     -1.806807     16.941851     16.941851     33.883702
     -1.796797     16.064492     16.064492     32.128984
     -1.786787     15.342991     15.342991     30.685981
     -1.776777     14.623745     14.623745     29.247489
     -1.766767     13.736307     13.736307     27.472613
     -1.756757     12.616150     12.616150     25.232301
     -1.746747     11.373166     11.373166     22.746331
     -1.736737     10.266255     10.266255     20.532509
     -1.726727      9.595411      9.595411     19.190823
     -1.716717      9.566336      9.566336     19.132673
     -1.706707     10.195469     10.195469     20.390938
     -1.696697     11.301184     11.301184     22.602368
     -1.686687     12.582912     12.582912     25.165824
     -1.676677     13.745617     13.745617     27.491234
     -1.666667     14.604187     14.604187     29.208373
     -1.656657     15.114717     15.114717     30.229434
     -1.646647     15.323737     15.323737     30.647474
     -1.636637     15.277544     15.277544     30.555088
     -1.626627     14.958603     14.958603     29.917205
