# EIG2DOS: Utility for SIESTA to obtain the electronic density of states
#  E. Artacho, Apr 1999, A. Garcia, Apr 2012
#  Nick R. Papior, Feb 2017
# ------------------------------------------
# Eigenvalues calculated from a non-polarized calculation
# Eigenvalues read from siesta.EIG
# Kpoint weights read from siesta.KP
# Using smearing parameter:   0.0500
# Using 1000 points in the energy range
# Selected bands: 1 to: 2981
# Emin, Emax in file for selected band(s):    -27.2105790    218.3530160
# Nbands, Nspin, Nk   =   2981     1     1
# E_F                 =    -4.2548 eV --> (shifted to ZERO)
# Broadening          =     0.0500 eV
#
#        E            N(up)  (=)   N(down)         Ntot
     -5.000000     32.372673     32.372673     64.745347
     -4.989990     36.436651     36.436651     72.873302
     -4.979980     40.169577     40.169577     80.339153
     -4.969970     43.002536     43.002536     86.005072
     -4.959960     44.448503     44.448503     88.897006
     -4.949950     44.251812     44.251812     88.503623
     -4.939940     42.479562     42.479562     84.959123
     -4.929930     39.526435     39.526435     79.052870
     -4.919920     36.045381     36.045381     72.090761
     -4.909910     32.838266     32.838266     65.676532
     -4.899900     30.731173     30.731173     61.462346
     -4.889890     30.434025     30.434025     60.868049
     -4.879880     32.375573     32.375573     64.751145
     -4.869870     36.532394     36.532394     73.064788
     -4.859860     42.318569     42.318569     84.637138
     -4.849850     48.625836     48.625836     97.251671
     -4.839840     54.063656     54.063656    108.127312
     -4.829830     57.351193     57.351193    114.702385
     -4.819820     57.715492     57.715492    115.430984
     -4.809810     55.122188     55.122188    110.244377
     -4.799800     50.236273     50.236273    100.472546
     -4.789790     44.142685     44.142685     88.285371
     -4.779780     37.968066     37.968066     75.936133
     -4.769770     32.570021     32.570021     65.140042
     -4.759760     28.394797     28.394797     56.789593
     -4.749750     25.503175     25.503175     51.006349
     -4.739740     23.693425     23.693425     47.386849
     -4.729730     22.638847     22.638847     45.277694
     -4.719720     21.989515     21.989515     43.979030
     -4.709710     21.428526     21.428526     42.857051
     -4.699700     20.699116     20.699116     41.398233
     -4.689690     19.626237     19.626237     39.252474
     -4.679680     18.149104     18.149104     36.298208
     -4.669670     16.365355     16.365355     32.730711
     -4.659660     14.569546     14.569546     29.139093
     -4.649650     13.258224     13.258224     26.516448
     -4.639640     13.076596     13.076596     26.153192
     -4.629630     14.696129     14.696129     29.392258
     -4.619620     18.632813     18.632813     37.265625
     -4.609610     25.040230     25.040230     50.080460
     -4.599600     33.538917     33.538917     67.077835
     -4.589590     43.163070     43.163070     86.326141
     -4.579580     52.494556     52.494556    104.989112
     -4.569570     59.994821     59.994821    119.989643
     -4.559560     64.450723     64.450723    128.901446
     -4.549550     65.369839     65.369839    130.739678
     -4.539540     63.151504     63.151504    126.303008
     -4.529530     58.942781     58.942781    117.885561
     -4.519520     54.227234     54.227234    108.454468
     -4.509510     50.314702     50.314702    100.629403
     -4.499499     47.938171     47.938171     95.876343
     -4.489489     47.103800     47.103800     94.207601
     -4.479479     47.219672     47.219672     94.439344
     -4.469469     47.412035     47.412035     94.824070
     -4.459459     46.877801     46.877801     93.755603
     -4.449449     45.137035     45.137035     90.274071
     -4.439439     42.119150     42.119150     84.238300
     -4.429429     38.099759     38.099759     76.199519
     -4.419419     33.560478     33.560478     67.120957
     -4.409409     29.050232     29.050232     58.100465
     -4.399399     25.090961     25.090961     50.181922
     -4.389389     22.122928     22.122928     44.245857
     -4.379379     20.459211     20.459211     40.918423
     -4.369369     20.230579     20.230579     40.461159
     -4.359359     21.336483     21.336483     42.672967
     -4.349349     23.442612     23.442612     46.885224
     -4.339339     26.056047     26.056047     52.112094
     -4.329329     28.668936     28.668936     57.337872
     -4.319319     30.918898     30.918898     61.837795
     -4.309309     32.698615     32.698615     65.397229
     -4.299299     34.167185     34.167185     68.334369
     -4.289289     35.656717     35.656717     71.313433
     -4.279279     37.506425     37.506425     75.012849
     -4.269269     39.880180     39.880180     79.760360
     -4.259259     42.632208     42.632208     85.264417
     -4.249249     45.280573     45.280573     90.561145
     -4.239239     47.122494     47.122494     94.244988
     -4.229229     47.473271     47.473271     94.946541
     -4.219219     45.944942     45.944942     91.889884
     -4.209209     42.639694     42.639694     85.279387
     -4.199199     38.154744     38.154744     76.309487
     -4.189189     33.382569     33.382569     66.765139
     -4.179179     29.196519     29.196519     58.393037
     -4.169169     26.170659     26.170659     52.341318
     -4.159159     24.457394     24.457394     48.914788
     -4.149149     23.856645     23.856645     47.713290
     -4.139139     24.014184     24.014184     48.028368
     -4.129129     24.635807     24.635807     49.271613
     -4.119119     25.613629     25.613629     51.227258
     -4.109109     27.013051     27.013051     54.026102
     -4.099099     28.936008     28.936008     57.872015
     -4.089089     31.335072     31.335072     62.670143
     -4.079079     33.883803     33.883803     67.767607
     -4.069069     35.992722     35.992722     71.985444
     -4.059059     36.992318     36.992318     73.984637
     -4.049049     36.411027     36.411027     72.822055
     -4.039039     34.210935     34.210935     68.421869
     -4.029029     30.854681     30.854681     61.709362
     -4.019019     27.164548     27.164548     54.329097
     -4.009009     24.046302     24.046302     48.092603
     -3.998999     22.215227     22.215227     44.430455
     -3.988989     22.042461     22.042461     44.084922
     -3.978979     23.556934     23.556934     47.113869
     -3.968969     26.551978     26.551978     53.103955
     -3.958959     30.709750     30.709750     61.419500
     -3.948949     35.683055     35.683055     71.366110
     -3.938939     41.129871     41.129871     82.259742
     -3.928929     46.733029     46.733029     93.466057
     -3.918919     52.230695     52.230695    104.461389
     -3.908909     57.447196     57.447196    114.894392
     -3.898899     62.287015     62.287015    124.574029
     -3.888889     66.666224     66.666224    133.332447
     -3.878879     70.400649     70.400649    140.801298
     -3.868869     73.115425     73.115425    146.230850
     -3.858859     74.250477     74.250477    148.500953
     -3.848849     73.197368     73.197368    146.394736
     -3.838839     69.532960     69.532960    139.065919
     -3.828829     63.253266     63.253266    126.506532
     -3.818819     54.894511     54.894511    109.789022
     -3.808809     45.471106     45.471106     90.942212
     -3.798799     36.241210     36.241210     72.482420
     -3.788789     28.385920     28.385920     56.771840
     -3.778779     22.718967     22.718967     45.437934
     -3.768769     19.520093     19.520093     39.040185
     -3.758759     18.528605     18.528605     37.057210
     -3.748749     19.077279     19.077279     38.154559
     -3.738739     20.312893     20.312893     40.625785
     -3.728729     21.440485     21.440485     42.880970
     -3.718719     21.934083     21.934083     43.868165
     -3.708709     21.667900     21.667900     43.335799
     -3.698699     20.936612     20.936612     41.873225
     -3.688689     20.353747     20.353747     40.707494
     -3.678679     20.645756     20.645756     41.291511
     -3.668669     22.393046     22.393046     44.786091
     -3.658659     25.797565     25.797565     51.595130
     -3.648649     30.562900     30.562900     61.125800
     -3.638639     35.943214     35.943214     71.886428
     -3.628629     40.953775     40.953775     81.907550
     -3.618619     44.664493     44.664493     89.328985
     -3.608609     46.459359     46.459359     92.918719
     -3.598599     46.165614     46.165614     92.331229
     -3.588589     44.025614     44.025614     88.051228
     -3.578579     40.556722     40.556722     81.113444
     -3.568569     36.376199     36.376199     72.752399
     -3.558559     32.051059     32.051059     64.102118
     -3.548549     27.996345     27.996345     55.992689
     -3.538539     24.423489     24.423489     48.846978
     -3.528529     21.340443     21.340443     42.680885
     -3.518519     18.607491     18.607491     37.214982
     -3.508509     16.038485     16.038485     32.076970
     -3.498498     13.512284     13.512284     27.024568
     -3.488488     11.047033     11.047033     22.094066
     -3.478478      8.805809      8.805809     17.611619
     -3.468468      7.036720      7.036720     14.073439
     -3.458458      5.979120      5.979120     11.958241
     -3.448448      5.774121      5.774121     11.548242
     -3.438438      6.406179      6.406179     12.812357
     -3.428428      7.689004      7.689004     15.378008
     -3.418418      9.301494      9.301494     18.602989
     -3.408408     10.872549     10.872549     21.745099
     -3.398398     12.098370     12.098370     24.196740
     -3.388388     12.854804     12.854804     25.709607
     -3.378378     13.256787     13.256787     26.513574
     -3.368368     13.632309     13.632309     27.264619
     -3.358358     14.416421     14.416421     28.832842
     -3.348348     16.008178     16.008178     32.016356
     -3.338338     18.644254     18.644254     37.288508
     -3.328328     22.322231     22.322231     44.644463
     -3.318318     26.775695     26.775695     53.551390
     -3.308308     31.490955     31.490955     62.981911
     -3.298298     35.768740     35.768740     71.537480
     -3.288288     38.849418     38.849418     77.698836
     -3.278278     40.104459     40.104459     80.208918
     -3.268268     39.245869     39.245869     78.491739
     -3.258258     36.457879     36.457879     72.915758
     -3.248248     32.362546     32.362546     64.725093
     -3.238238     27.807367     27.807367     55.614733
     -3.228228     23.564293     23.564293     47.128586
     -3.218218     20.085030     20.085030     40.170059
     -3.208208     17.426475     17.426475     34.852951
     -3.198198     15.364086     15.364086     30.728172
     -3.188188     13.613427     13.613427     27.226854
     -3.178178     12.038661     12.038661     24.077322
     -3.168168     10.754742     10.754742     21.509484
     -3.158158     10.097118     10.097118     20.194235
     -3.148148     10.493526     10.493526     20.987052
     -3.138138     12.299219     12.299219     24.598438
     -3.128128     15.651344     15.651344     31.302687
     -3.118118     20.379280     20.379280     40.758560
     -3.108108     25.991114     25.991114     51.982229
     -3.098098     31.743737     31.743737     63.487475
     -3.088088     36.788317     36.788317     73.576633
     -3.078078     40.360777     40.360777     80.721555
     -3.068068     41.964991     41.964991     83.929983
     -3.058058     41.487832     41.487832     82.975665
     -3.048048     39.201043     39.201043     78.402085
     -3.038038     35.645360     35.645360     71.290720
     -3.028028     31.442882     31.442882     62.885763
     -3.018018     27.118227     27.118227     54.236454
     -3.008008     23.004454     23.004454     46.008909
     -2.997998     19.263893     19.263893     38.527787
     -2.987988     15.992404     15.992404     31.984807
     -2.977978     13.335471     13.335471     26.670943
     -2.967968     11.547811     11.547811     23.095622
     -2.957958     10.966137     10.966137     21.932275
     -2.947948     11.909144     11.909144     23.818289
     -2.937938     14.546218     14.546218     29.092436
     -2.927928     18.782952     18.782952     37.565904
     -2.917918     24.205757     24.205757     48.411513
     -2.907908     30.115339     30.115339     60.230679
     -2.897898     35.656808     35.656808     71.313616
     -2.887888     40.020500     40.020500     80.041001
     -2.877878     42.652010     42.652010     85.304020
     -2.867868     43.392705     43.392705     86.785409
     -2.857858     42.490138     42.490138     84.980276
     -2.847848     40.469498     40.469498     80.938997
     -2.837838     37.919321     37.919321     75.838642
     -2.827828     35.284723     35.284723     70.569445
     -2.817818     32.756685     32.756685     65.513371
     -2.807808     30.297162     30.297162     60.594325
     -2.797798     27.771600     27.771600     55.543200
     -2.787788     25.108476     25.108476     50.216951
     -2.777778     22.397081     22.397081     44.794162
     -2.767768     19.874208     19.874208     39.748417
     -2.757758     17.815709     17.815709     35.631418
     -2.747748     16.403403     16.403403     32.806806
     -2.737738     15.650177     15.650177     31.300354
     -2.727728     15.428327     15.428327     30.856654
     -2.717718     15.580035     15.580035     31.160070
     -2.707708     16.034775     16.034775     32.069549
     -2.697698     16.851997     16.851997     33.703994
     -2.687688     18.155669     18.155669     36.311338
     -2.677678     20.001169     20.001169     40.002338
     -2.667668     22.265826     22.265826     44.531652
     -2.657658     24.645212     24.645212     49.290425
     -2.647648     26.770297     26.770297     53.540594
     -2.637638     28.378916     28.378916     56.757832
     -2.627628     29.435481     29.435481     58.870963
     -2.617618     30.124964     30.124964     60.249929
     -2.607608     30.729377     30.729377     61.458754
     -2.597598     31.468112     31.468112     62.936223
     -2.587588     32.395709     32.395709     64.791418
     -2.577578     33.398140     33.398140     66.796281
     -2.567568     34.258152     34.258152     68.516304
     -2.557558     34.728306     34.728306     69.456613
     -2.547548     34.575493     34.575493     69.150986
     -2.537538     33.609841     33.609841     67.219682
     -2.527528     31.733012     31.733012     63.466024
     -2.517518     29.014606     29.014606     58.029212
     -2.507508     25.757594     25.757594     51.515189
     -2.497497     22.491743     22.491743     44.983486
     -2.487487     19.862261     19.862261     39.724521
     -2.477477     18.441214     18.441214     36.882428
     -2.467467     18.539514     18.539514     37.079028
     -2.457457     20.105444     20.105444     40.210887
     -2.447447     22.758634     22.758634     45.517267
     -2.437437     25.946932     25.946932     51.893864
     -2.427427     29.157106     29.157106     58.314213
     -2.417417     32.084209     32.084209     64.168418
     -2.407407     34.681999     34.681999     69.363998
     -2.397397     37.072868     37.072868     74.145736
     -2.387387     39.365434     39.365434     78.730868
     -2.377377     41.476900     41.476900     82.953800
     -2.367367     43.059086     43.059086     86.118173
     -2.357357     43.578624     43.578624     87.157248
     -2.347347     42.525495     42.525495     85.050991
     -2.337337     39.657550     39.657550     79.315101
     -2.327327     35.166554     35.166554     70.333107
     -2.317317     29.686778     29.686778     59.373556
     -2.307307     24.141639     24.141639     48.283277
     -2.297297     19.496098     19.496098     38.992197
     -2.287287     16.514307     16.514307     33.028615
     -2.277277     15.602731     15.602731     31.205462
     -2.267267     16.769682     16.769682     33.539363
     -2.257257     19.685069     19.685069     39.370137
     -2.247247     23.799097     23.799097     47.598194
     -2.237237     28.475440     28.475440     56.950880
     -2.227227     33.103049     33.103049     66.206098
     -2.217217     37.164743     37.164743     74.329485
     -2.207207     40.259233     40.259233     80.518466
     -2.197197     42.094083     42.094083     84.188166
     -2.187187     42.480722     42.480722     84.961444
     -2.177177     41.356738     41.356738     82.713476
     -2.167167     38.832666     38.832666     77.665332
     -2.157157     35.226305     35.226305     70.452610
     -2.147147     31.034992     31.034992     62.069984
     -2.137137     26.823120     26.823120     53.646239
     -2.127127     23.057050     23.057050     46.114101
     -2.117117     19.964453     19.964453     39.928907
     -2.107107     17.493361     17.493361     34.986721
     -2.097097     15.393634     15.393634     30.787267
     -2.087087     13.374248     13.374248     26.748496
     -2.077077     11.250782     11.250782     22.501565
     -2.067067      9.012596      9.012596     18.025192
     -2.057057      6.793135      6.793135     13.586269
     -2.047047      4.780411      4.780411      9.560821
     -2.037037      3.125906      3.125906      6.251812
     -2.027027      1.894318      1.894318      3.788637
     -2.017017      1.063307      1.063307      2.126614
     -2.007007      0.555956      0.555956      1.111913
     -1.996997      0.281110      0.281110      0.562220
     -1.986987      0.164599      0.164599      0.329198
     -1.976977      0.166836      0.166836      0.333672
     -1.966967      0.290299      0.290299      0.580599
     -1.956957      0.581341      0.581341      1.162681
     -1.946947      1.126728      1.126728      2.253457
     -1.936937      2.040821      2.040821      4.081641
     -1.926927      3.438589      3.438589      6.877178
     -1.916917      5.395231      5.395231     10.790462
     -1.906907      7.903159      7.903159     15.806318
     -1.896897     10.845536     10.845536     21.691072
     -1.886887     14.004593     14.004593     28.009185
     -1.876877     17.109541     17.109541     34.219081
     -1.866867     19.908858     19.908858     39.817717
     -1.856857     22.237006     22.237006     44.474011
     -1.846847     24.045867     24.045867     48.091734
     -1.836837     25.386614     25.386614     50.773229
     -1.826827     26.349817     26.349817     52.699633
     -1.816817     26.990248     26.990248     53.980495
     -1.806807     27.270896     27.270896     54.541793
     -1.796797     27.054983     27.054983     54.109966
     -1.786787     26.155555     26.155555     52.311110
     -1.776777     24.425231     24.425231     48.850461
     -1.766767     21.846294     21.846294     43.692589
     -1.756757     18.577306     18.577306     37.154612
     -1.746747     14.931913     14.931913     29.863826
     -1.736737     11.299092     11.299092     22.598185
     -1.726727      8.042406      8.042406     16.084813
     -1.716717      5.422759      5.422759     10.845518
     -1.706707      3.572121      3.572121      7.144242
     -1.696697      2.516531      2.516531      5.033062
     -1.686687      2.222449      2.222449      4.444898
     -1.676677      2.633105      2.633105      5.266209
     -1.666667      3.672603      3.672603      7.345206
     -1.656657      5.218372      5.218372     10.436743
     -1.646647      7.065587      7.065587     14.131174
     -1.636637      8.918345      8.918345     17.836691
     -1.626627     10.433353     10.433353     20.866706
