# EIG2DOS: Utility for SIESTA to obtain the electronic density of states
#  E. Artacho, Apr 1999, A. Garcia, Apr 2012
#  Nick R. Papior, Feb 2017
# ------------------------------------------
# Eigenvalues calculated from a non-polarized calculation
# Eigenvalues read from siesta.EIG
# Kpoint weights read from siesta.KP
# Using smearing parameter:   0.0500
# Using 1000 points in the energy range
# Selected bands: 1 to: 2981
# Emin, Emax in file for selected band(s):    -27.0847580    218.3350850
# Nbands, Nspin, Nk   =   2981     1     1
# E_F                 =    -4.2738 eV --> (shifted to ZERO)
# Broadening          =     0.0500 eV
#
#        E            N(up)  (=)   N(down)         Ntot
     -5.000000     35.598908     35.598908     71.197815
     -4.989990     38.507452     38.507452     77.014904
     -4.979980     41.022073     41.022073     82.044145
     -4.969970     42.676282     42.676282     85.352564
     -4.959960     43.134925     43.134925     86.269849
     -4.949950     42.281600     42.281600     84.563200
     -4.939940     40.253467     40.253467     80.506934
     -4.929930     37.424665     37.424665     74.849331
     -4.919920     34.356140     34.356140     68.712280
     -4.909910     31.728671     31.728671     63.457342
     -4.899900     30.258189     30.258189     60.516378
     -4.889890     30.574907     30.574907     61.149814
     -4.879880     33.054570     33.054570     66.109141
     -4.869870     37.631330     37.631330     75.262660
     -4.859860     43.675132     43.675132     87.350264
     -4.849850     50.035177     50.035177    100.070355
     -4.839840     55.299044     55.299044    110.598087
     -4.829830     58.207154     58.207154    116.414308
     -4.819820     58.059359     58.059359    116.118718
     -4.809810     54.929357     54.929357    109.858715
     -4.799800     49.589650     49.589650     99.179301
     -4.789790     43.195440     43.195440     86.390879
     -4.779780     36.888333     36.888333     73.776667
     -4.769770     31.493279     31.493279     62.986558
     -4.759760     27.401028     27.401028     54.802056
     -4.749750     24.620001     24.620001     49.240002
     -4.739740     22.914789     22.914789     45.829578
     -4.729730     21.946806     21.946806     43.893613
     -4.719720     21.371136     21.371136     42.742273
     -4.709710     20.884699     20.884699     41.769398
     -4.699700     20.244473     20.244473     40.488947
     -4.689690     19.280453     19.280453     38.560906
     -4.679680     17.921479     17.921479     35.842957
     -4.669670     16.236283     16.236283     32.472567
     -4.659660     14.472525     14.472525     28.945049
     -4.649650     13.064142     13.064142     26.128284
     -4.639640     12.580812     12.580812     25.161623
     -4.629630     13.611484     13.611484     27.222968
     -4.619620     16.598230     16.598230     33.196461
     -4.609610     21.659459     21.659459     43.318918
     -4.599600     28.459413     28.459413     56.918826
     -4.589590     36.187144     36.187144     72.374288
     -4.579580     43.690329     43.690329     87.380659
     -4.569570     49.759205     49.759205     99.518410
     -4.559560     53.486014     53.486014    106.972027
     -4.549550     54.571001     54.571001    109.142002
     -4.539540     53.444574     53.444574    106.889148
     -4.529530     51.138195     51.138195    102.276390
     -4.519520     48.937756     48.937756     97.875511
     -4.509510     47.943916     47.943916     95.887833
     -4.499499     48.701771     48.701771     97.403543
     -4.489489     51.032812     51.032812    102.065624
     -4.479479     54.121658     54.121658    108.243317
     -4.469469     56.813563     56.813563    113.627126
     -4.459459     58.004354     58.004354    116.008707
     -4.449449     56.979850     56.979850    113.959700
     -4.439439     53.594766     53.594766    107.189531
     -4.429429     48.255548     48.255548     96.511096
     -4.419419     41.751587     41.751587     83.503173
     -4.409409     35.025718     35.025718     70.051436
     -4.399399     28.968922     28.968922     57.937845
     -4.389389     24.279961     24.279961     48.559922
     -4.379379     21.385704     21.385704     42.771408
     -4.369369     20.402667     20.402667     40.805334
     -4.359359     21.135559     21.135559     42.271118
     -4.349349     23.128107     23.128107     46.256214
     -4.339339     25.778131     25.778131     51.556263
     -4.329329     28.499561     28.499561     56.999123
     -4.319319     30.881268     30.881268     61.762535
     -4.309309     32.783343     32.783343     65.566685
     -4.299299     34.334528     34.334528     68.669057
     -4.289289     35.834528     35.834528     71.669055
     -4.279279     37.598090     37.598090     75.196181
     -4.269269     39.791873     39.791873     79.583747
     -4.259259     42.314946     42.314946     84.629893
     -4.249249     44.767758     44.767758     89.535515
     -4.239239     46.539058     46.539058     93.078116
     -4.229229     47.004210     47.004210     94.008421
     -4.219219     45.773103     45.773103     91.546206
     -4.209209     42.880573     42.880573     85.761146
     -4.199199     38.817543     38.817543     77.635087
     -4.189189     34.371534     34.371534     68.743067
     -4.179179     30.345900     30.345900     60.691800
     -4.169169     27.293621     27.293621     54.587242
     -4.159159     25.389159     25.389159     50.778318
     -4.149149     24.481336     24.481336     48.962671
     -4.139139     24.275087     24.275087     48.550173
     -4.129129     24.534489     24.534489     49.068978
     -4.119119     25.203277     25.203277     50.406554
     -4.109109     26.388011     26.388011     52.776021
     -4.099099     28.216595     28.216595     56.433189
     -4.089089     30.647057     30.647057     61.294114
     -4.079079     33.335622     33.335622     66.671244
     -4.069069     35.657274     35.657274     71.314549
     -4.059059     36.900197     36.900197     73.800394
     -4.049049     36.556627     36.556627     73.113254
     -4.039039     34.565359     34.565359     69.130718
     -4.029029     31.375447     31.375447     62.750893
     -4.019019     27.795723     27.795723     55.591447
     -4.009009     24.711888     24.711888     49.423776
     -3.998999     22.816352     22.816352     45.632704
     -3.988989     22.468545     22.468545     44.937089
     -3.978979     23.711732     23.711732     47.423464
     -3.968969     26.383741     26.383741     52.767482
     -3.958959     30.229620     30.229620     60.459240
     -3.948949     34.961274     34.961274     69.922547
     -3.938939     40.271603     40.271603     80.543206
     -3.928929     45.846057     45.846057     91.692114
     -3.918919     51.399647     51.399647    102.799294
     -3.908909     56.723309     56.723309    113.446619
     -3.898899     61.693494     61.693494    123.386989
     -3.888889     66.212231     66.212231    132.424462
     -3.878879     70.094394     70.094394    140.188789
     -3.868869     72.968869     72.968869    145.937737
     -3.858859     74.273440     74.273440    148.546881
     -3.848849     73.385282     73.385282    146.770563
     -3.838839     69.856750     69.856750    139.713499
     -3.828829     63.659231     63.659231    127.318461
     -3.818819     55.316236     55.316236    110.632473
     -3.808809     45.848071     45.848071     91.696142
     -3.798799     36.534751     36.534751     73.069501
     -3.788789     28.585233     28.585233     57.170467
     -3.778779     22.836027     22.836027     45.672054
     -3.768769     19.578198     19.578198     39.156395
     -3.758759     18.551254     18.551254     37.102508
     -3.748749     19.081947     19.081947     38.163895
     -3.738739     20.310451     20.310451     40.620902
     -3.728729     21.438105     21.438105     42.876210
     -3.718719     21.938610     21.938610     43.877221
     -3.708709     21.687466     21.687466     43.374932
     -3.698699     20.979578     20.979578     41.959157
     -3.688689     20.425343     20.425343     40.850686
     -3.678679     20.743799     20.743799     41.487598
     -3.668669     22.504927     22.504927     45.009855
     -3.658659     25.900877     25.900877     51.801755
     -3.648649     30.631041     30.631041     61.262081
     -3.638639     35.954890     35.954890     71.909779
     -3.628629     40.902571     40.902571     81.805141
     -3.618619     44.563522     44.563522     89.127044
     -3.608609     46.337800     46.337800     92.675601
     -3.598599     46.058122     46.058122     92.116245
     -3.588589     43.959595     43.959595     87.919189
     -3.578579     40.543535     40.543535     81.087071
     -3.568569     36.409808     36.409808     72.819616
     -3.558559     32.113330     32.113330     64.226661
     -3.548549     28.065141     28.065141     56.130282
     -3.538539     24.479543     24.479543     48.959087
     -3.528529     21.371157     21.371157     42.742315
     -3.518519     18.608094     18.608094     37.216188
     -3.508509     16.011885     16.011885     32.023770
     -3.498498     13.468420     13.468420     26.936840
     -3.488488     11.001638     11.001638     22.003276
     -3.478478      8.778140      8.778140     17.556280
     -3.468468      7.046010      7.046010     14.092020
     -3.458458      6.039916      6.039916     12.079833
     -3.448448      5.891090      5.891090     11.782180
     -3.438438      6.569654      6.569654     13.139308
     -3.428428      7.873250      7.873250     15.746500
     -3.418418      9.467770      9.467770     18.935540
     -3.408408     10.977726     10.977726     21.955452
     -3.398398     12.107319     12.107319     24.214638
     -3.388388     12.752500     12.752500     25.504999
     -3.378378     13.055707     13.055707     26.111415
     -3.368368     13.372530     13.372530     26.745059
     -3.358358     14.158393     14.158393     28.316786
     -3.348348     15.819762     15.819762     31.639524
     -3.338338     18.583834     18.583834     37.167668
     -3.328328     22.419944     22.419944     44.839889
     -3.318318     27.015936     27.015936     54.031873
     -3.308308     31.800421     31.800421     63.600841
     -3.298298     36.013018     36.013018     72.026036
     -3.288288     38.836948     38.836948     77.673896
     -3.278278     39.592642     39.592642     79.185284
     -3.268268     37.945500     37.945500     75.891001
     -3.258258     34.040768     34.040768     68.081536
     -3.248248     28.487644     28.487644     56.975289
     -3.238238     22.181708     22.181708     44.363415
     -3.228228     16.038690     16.038690     32.077380
     -3.218218     10.755555     10.755555     21.511109
     -3.208208      6.689776      6.689776     13.379552
     -3.198198      3.878275      3.878275      7.756550
     -3.188188      2.152922      2.152922      4.305844
     -3.178178      1.284642      1.284642      2.569284
     -3.168168      1.102761      1.102761      2.205521
     -3.158158      1.565954      1.565954      3.131909
     -3.148148      2.781890      2.781890      5.563780
     -3.138138      4.976804      4.976804      9.953608
     -3.128128      8.413493      8.413493     16.826986
     -3.118118     13.261916     13.261916     26.523833
     -3.108108     19.448929     19.448929     38.897858
     -3.098098     26.543961     26.543961     53.087921
     -3.088088     33.752061     33.752061     67.504121
     -3.078078     40.060522     40.060522     80.121045
     -3.068068     44.517385     44.517385     89.034771
     -3.058058     46.540265     46.540265     93.080531
     -3.048048     46.113857     46.113857     92.227715
     -3.038038     43.771641     43.771641     87.543282
     -3.028028     40.361742     40.361742     80.723483
     -3.018018     36.710078     36.710078     73.420156
     -3.008008     33.346012     33.346012     66.692023
     -2.997998     30.414730     30.414730     60.829460
     -2.987988     27.794275     27.794275     55.588551
     -2.977978     25.329198     25.329198     50.658395
     -2.967968     23.045010     23.045010     46.090020
     -2.957958     21.234071     21.234071     42.468142
     -2.947948     20.377831     20.377831     40.755661
     -2.937938     20.948747     20.948747     41.897494
     -2.927928     23.183634     23.183634     46.367268
     -2.917918     26.926286     26.926286     53.852573
     -2.907908     31.606726     31.606726     63.213452
     -2.897898     36.371654     36.371654     72.743307
     -2.887888     40.323265     40.323265     80.646531
     -2.877878     42.780343     42.780343     85.560686
     -2.867868     43.463629     43.463629     86.927259
     -2.857858     42.535199     42.535199     85.070398
     -2.847848     40.480810     40.480810     80.961619
     -2.837838     37.890515     37.890515     75.781029
     -2.827828     35.235346     35.235346     70.470692
     -2.817818     32.735166     32.735166     65.470331
     -2.807808     30.365211     30.365211     60.730423
     -2.797798     27.979584     27.979584     55.959168
     -2.787788     25.474038     25.474038     50.948076
     -2.777778     22.896659     22.896659     45.793319
     -2.767768     20.450241     20.450241     40.900482
     -2.757758     18.394852     18.394852     36.789704
     -2.747748     16.916838     16.916838     33.833676
     -2.737738     16.047889     16.047889     32.095778
     -2.727728     15.683887     15.683887     31.367774
     -2.717718     15.687719     15.687719     31.375438
     -2.707708     16.003860     16.003860     32.007720
     -2.697698     16.702656     16.702656     33.405312
     -2.687688     17.917959     17.917959     35.835918
     -2.677678     19.715310     19.715310     39.430620
     -2.667668     21.980345     21.980345     43.960690
     -2.657658     24.410642     24.410642     48.821284
     -2.647648     26.629213     26.629213     53.258427
     -2.637638     28.356066     28.356066     56.712133
     -2.627628     29.532343     29.532343     59.064687
     -2.617618     30.320795     30.320795     60.641589
     -2.607608     30.987470     30.987470     61.974939
     -2.597598     31.744220     31.744220     63.488441
     -2.587588     32.646344     32.646344     65.292688
     -2.577578     33.588218     33.588218     67.176437
     -2.567568     34.367987     34.367987     68.735974
     -2.557558     34.758630     34.758630     69.517259
     -2.547548     34.547933     34.547933     69.095867
     -2.537538     33.561166     33.561166     67.122333
     -2.527528     31.704432     31.704432     63.408864
     -2.517518     29.040228     29.040228     58.080455
     -2.507508     25.856295     25.856295     51.712591
     -2.497497     22.664148     22.664148     45.328296
     -2.487487     20.091393     20.091393     40.182785
     -2.477477     18.694285     18.694285     37.388571
     -2.467467     18.769813     18.769813     37.539626
     -2.457457     20.255639     20.255639     40.511277
     -2.447447     22.767675     22.767675     45.535349
     -2.437437     25.761182     25.761182     51.522364
     -2.427427     28.743690     28.743690     57.487380
     -2.417417     31.442912     31.442912     62.885824
     -2.407407     33.852356     33.852356     67.704713
     -2.397397     36.134410     36.134410     72.268821
     -2.387387     38.429980     38.429980     76.859961
     -2.377377     40.672163     40.672163     81.344326
     -2.367367     42.504220     42.504220     85.008439
     -2.357357     43.355824     43.355824     86.711647
     -2.347347     42.656038     42.656038     85.312075
     -2.337337     40.092122     40.092122     80.184244
     -2.327327     35.795736     35.795736     71.591473
     -2.317317     30.369265     30.369265     60.738530
     -2.307307     24.740038     24.740038     49.480076
     -2.297297     19.907708     19.907708     39.815416
     -2.287287     16.687928     16.687928     33.375856
     -2.277277     15.539293     15.539293     31.078586
     -2.267267     16.510148     16.510148     33.020296
     -2.257257     19.291927     19.291927     38.583855
     -2.247247     23.338214     23.338214     46.676429
     -2.237237     28.003902     28.003902     56.007803
     -2.227227     32.665866     32.665866     65.331732
     -2.217217     36.799026     36.799026     73.598052
     -2.207207     40.000364     40.000364     80.000728
     -2.197197     41.977288     41.977288     83.954576
     -2.187187     42.534684     42.534684     85.069368
     -2.177177     41.591746     41.591746     83.183492
     -2.167167     39.230400     39.230400     78.460800
     -2.157157     35.738524     35.738524     71.477048
     -2.147147     31.593939     31.593939     63.187878
     -2.137137     27.360103     27.360103     54.720207
     -2.127127     23.521201     23.521201     47.042402
     -2.117117     20.333584     20.333584     40.667168
     -2.107107     17.773076     17.773076     35.546153
     -2.097097     15.606759     15.606759     31.213519
     -2.087087     13.546866     13.546866     27.093732
     -2.077077     11.401558     11.401558     22.803117
     -2.067067      9.148990      9.148990     18.297981
     -2.057057      6.913893      6.913893     13.827786
     -2.047047      4.880963      4.880963      9.761926
     -2.037037      3.203095      3.203095      6.406191
     -2.027027      1.948555      1.948555      3.897110
     -2.017017      1.098259      1.098259      2.196518
     -2.007007      0.577050      0.577050      1.154099
     -1.996997      0.294165      0.294165      0.588331
     -1.986987      0.175350      0.175350      0.350700
     -1.976977      0.181379      0.181379      0.362759
     -1.966967      0.316015      0.316015      0.632029
     -1.956957      0.627462      0.627462      1.254925
     -1.946947      1.203492      1.203492      2.406985
     -1.936937      2.156101      2.156101      4.312202
     -1.926927      3.591422      3.591422      7.182845
     -1.916917      5.566588      5.566588     11.133176
     -1.906907      8.045272      8.045272     16.090544
     -1.896897     10.871220     10.871220     21.742440
     -1.886887     13.777187     13.777187     27.554375
     -1.876877     16.433806     16.433806     32.867612
     -1.866867     18.525648     18.525648     37.051296
     -1.856857     19.830432     19.830432     39.660863
     -1.846847     20.277114     20.277114     40.554228
     -1.836837     19.966069     19.966069     39.932137
     -1.826827     19.143660     19.143660     38.287320
     -1.816817     18.133485     18.133485     36.266971
     -1.806807     17.240853     17.240853     34.481706
     -1.796797     16.663318     16.663318     33.326635
     -1.786787     16.445542     16.445542     32.891083
     -1.776777     16.498883     16.498883     32.997766
     -1.766767     16.669854     16.669854     33.339709
     -1.756757     16.812122     16.812122     33.624243
     -1.746747     16.819530     16.819530     33.639060
     -1.736737     16.613243     16.613243     33.226485
     -1.726727     16.115686     16.115686     32.231371
     -1.716717     15.253663     15.253663     30.507327
     -1.706707     14.004269     14.004269     28.008538
     -1.696697     12.454870     12.454870     24.909740
     -1.686687     10.827848     10.827848     21.655696
     -1.676677      9.437714      9.437714     18.875429
     -1.666667      8.588430      8.588430     17.176860
     -1.656657      8.454022      8.454022     16.908044
     -1.646647      8.996452      8.996452     17.992904
     -1.636637      9.959813      9.959813     19.919626
     -1.626627     10.949442     10.949442     21.898884
