# EIG2DOS: Utility for SIESTA to obtain the electronic density of states
#  E. Artacho, Apr 1999, A. Garcia, Apr 2012
#  Nick R. Papior, Feb 2017
# ------------------------------------------
# Eigenvalues calculated from a non-polarized calculation
# Eigenvalues read from siesta.EIG
# Kpoint weights read from siesta.KP
# Using smearing parameter:   0.0500
# Using 1000 points in the energy range
# Selected bands: 1 to: 2981
# Emin, Emax in file for selected band(s):    -27.0437421    218.3137890
# Nbands, Nspin, Nk   =   2981     1     1
# E_F                 =    -4.2995 eV --> (shifted to ZERO)
# Broadening          =     0.0500 eV
#
#        E            N(up)  (=)   N(down)         Ntot
     -5.000000     43.965806     43.965806     87.931612
     -4.989990     45.513915     45.513915     91.027830
     -4.979980     46.215334     46.215334     92.430667
     -4.969970     46.068497     46.068497     92.136994
     -4.959960     45.062640     45.062640     90.125280
     -4.949950     43.219628     43.219628     86.439255
     -4.939940     40.652541     40.652541     81.305081
     -4.929930     37.612951     37.612951     75.225902
     -4.919920     34.510755     34.510755     69.021511
     -4.909910     31.899916     31.899916     63.799831
     -4.899900     30.421064     30.421064     60.842129
     -4.889890     30.685270     30.685270     61.370541
     -4.879880     33.093445     33.093445     66.186890
     -4.869870     37.626375     37.626375     75.252751
     -4.859860     43.694325     43.694325     87.388651
     -4.849850     50.156889     50.156889    100.313777
     -4.839840     55.573223     55.573223    111.146446
     -4.829830     58.627770     58.627770    117.255540
     -4.819820     58.562854     58.562854    117.125709
     -4.809810     55.419414     55.419414    110.838827
     -4.799800     49.974138     49.974138     99.948276
     -4.789790     43.416686     43.416686     86.833372
     -4.779780     36.934889     36.934889     73.869778
     -4.769770     31.393689     31.393689     62.787378
     -4.759760     27.208494     27.208494     54.416988
     -4.749750     24.396942     24.396942     48.793884
     -4.739740     22.721049     22.721049     45.442098
     -4.729730     21.830703     21.830703     43.661405
     -4.719720     21.362104     21.362104     42.724207
     -4.709710     20.988480     20.988480     41.976960
     -4.699700     20.442809     20.442809     40.885617
     -4.689690     19.535305     19.535305     39.070610
     -4.679680     18.180834     18.180834     36.361668
     -4.669670     16.437825     16.437825     32.875651
     -4.659660     14.544365     14.544365     29.088731
     -4.649650     12.926538     12.926538     25.853075
     -4.639640     12.155791     12.155791     24.311581
     -4.629630     12.845470     12.845470     25.690941
     -4.619620     15.495235     15.495235     30.990470
     -4.609610     20.311868     20.311868     40.623736
     -4.599600     27.055932     27.055932     54.111864
     -4.589590     34.980328     34.980328     69.960657
     -4.579580     42.922157     42.922157     85.844315
     -4.569570     49.566000     49.566000     99.132000
     -4.559560     53.819706     53.819706    107.639413
     -4.549550     55.170239     55.170239    110.340478
     -4.539540     53.867102     53.867102    107.734205
     -4.529530     50.839901     50.839901    101.679801
     -4.519520     47.371389     47.371389     94.742777
     -4.509510     44.657573     44.657573     89.315146
     -4.499499     43.432780     43.432780     86.865561
     -4.489489     43.798571     43.798571     87.597141
     -4.479479     45.296607     45.296607     90.593215
     -4.469469     47.160457     47.160457     94.320913
     -4.459459     48.619284     48.619284     97.238568
     -4.449449     49.129288     49.129288     98.258575
     -4.439439     48.465123     48.465123     96.930246
     -4.429429     46.679746     46.679746     93.359492
     -4.419419     43.998282     43.998282     87.996563
     -4.409409     40.723301     40.723301     81.446602
     -4.399399     37.193705     37.193705     74.387411
     -4.389389     33.783382     33.783382     67.566764
     -4.379379     30.889273     30.889273     61.778547
     -4.369369     28.868856     28.868856     57.737713
     -4.359359     27.936298     27.936298     55.872597
     -4.349349     28.075018     28.075018     56.150036
     -4.339339     29.031296     29.031296     58.062591
     -4.329329     30.410645     30.410645     60.821290
     -4.319319     31.836723     31.836723     63.673446
     -4.309309     33.095653     33.095653     66.191307
     -4.299299     34.199196     34.199196     68.398392
     -4.289289     35.344629     35.344629     70.689257
     -4.279279     36.795017     36.795017     73.590033
     -4.269269     38.727934     38.727934     77.455868
     -4.259259     41.104497     41.104497     82.208995
     -4.249249     43.606176     43.606176     87.212353
     -4.239239     45.676849     45.676849     91.353698
     -4.229229     46.680353     46.680353     93.360705
     -4.219219     46.133041     46.133041     92.266081
     -4.209209     43.917118     43.917118     87.834236
     -4.199199     40.365696     40.365696     80.731392
     -4.189189     36.161804     36.161804     72.323609
     -4.179179     32.090740     32.090740     64.181479
     -4.169169     28.766959     28.766959     57.533918
     -4.159159     26.467641     26.467641     52.935283
     -4.149149     25.139492     25.139492     50.278984
     -4.139139     24.549439     24.549439     49.098879
     -4.129129     24.481896     24.481896     48.963792
     -4.119119     24.875004     24.875004     49.750009
     -4.109109     25.828611     25.828611     51.657221
     -4.099099     27.482454     27.482454     54.964907
     -4.089089     29.828870     29.828870     59.657741
     -4.079079     32.566192     32.566192     65.132384
     -4.069069     35.093022     35.093022     70.186043
     -4.059059     36.679458     36.679458     73.358915
     -4.049049     36.752476     36.752476     73.504953
     -4.039039     35.156012     35.156012     70.312024
     -4.029029     32.246989     32.246989     64.493977
     -4.019019     28.775075     28.775075     57.550149
     -4.009009     25.613602     25.613602     51.227205
     -3.998999     23.483703     23.483703     46.967407
     -3.988989     22.797277     22.797277     45.594553
     -3.978979     23.656233     23.656233     47.312466
     -3.968969     25.952085     25.952085     51.904169
     -3.958959     29.473300     29.473300     58.946600
     -3.948949     33.961215     33.961215     67.922431
     -3.938939     39.119834     39.119834     78.239668
     -3.928929     44.624937     44.624937     89.249873
     -3.918919     50.165612     50.165612    100.331223
     -3.908909     55.504460     55.504460    111.008920
     -3.898899     60.505991     60.505991    121.011982
     -3.888889     65.089955     65.089955    130.179910
     -3.878879     69.115714     69.115714    138.231427
     -3.868869     72.261446     72.261446    144.522893
     -3.858859     73.987032     73.987032    147.974064
     -3.848849     73.639697     73.639697    147.279393
     -3.838839     70.687597     70.687597    141.375194
     -3.828829     64.987770     64.987770    129.975541
     -3.818819     56.958825     56.958825    113.917651
     -3.808809     47.561906     47.561906     95.123812
     -3.798799     38.080885     38.080885     76.161770
     -3.788789     29.785192     29.785192     59.570385
     -3.778779     23.604970     23.604970     47.209941
     -3.768769     19.929399     19.929399     39.858798
     -3.758759     18.576670     18.576670     37.153340
     -3.748749     18.918334     18.918334     37.836669
     -3.738739     20.100663     20.100663     40.201326
     -3.728729     21.295568     21.295568     42.591137
     -3.718719     21.921403     21.921403     43.842805
     -3.708709     21.787043     21.787043     43.574086
     -3.698699     21.127130     21.127130     42.254259
     -3.688689     20.515273     20.515273     41.030546
     -3.678679     20.669133     20.669133     41.338267
     -3.668669     22.194819     22.194819     44.389639
     -3.658659     25.347997     25.347997     50.695994
     -3.648649     29.898626     29.898626     59.797253
     -3.638639     35.160265     35.160265     70.320530
     -3.628629     40.183542     40.183542     80.367084
     -3.618619     44.041321     44.041321     88.082642
     -3.608609     46.090520     46.090520     92.181040
     -3.598599     46.111631     46.111631     92.223263
     -3.588589     44.293488     44.293488     88.586977
     -3.578579     41.104264     41.104264     82.208528
     -3.568569     37.124330     37.124330     74.248659
     -3.558559     32.901416     32.901416     65.802833
     -3.548549     28.851416     28.851416     57.702831
     -3.538539     25.205089     25.205089     50.410178
     -3.528529     22.001484     22.001484     44.002967
     -3.518519     19.133645     19.133645     38.267289
     -3.508509     16.440441     16.440441     32.880882
     -3.498498     13.813265     13.813265     27.626530
     -3.488488     11.271435     11.271435     22.542870
     -3.478478      8.972792      8.972792     17.945585
     -3.468468      7.159077      7.159077     14.318154
     -3.458458      6.065203      6.065203     12.130406
     -3.448448      5.830078      5.830078     11.660157
     -3.438438      6.436856      6.436856     12.873712
     -3.428428      7.697212      7.697212     15.394425
     -3.418418      9.286276      9.286276     18.572552
     -3.408408     10.827391     10.827391     21.654782
     -3.398398     12.010403     12.010403     24.020806
     -3.388388     12.706002     12.706002     25.412005
     -3.378378     13.027752     13.027752     26.055504
     -3.368368     13.308129     13.308129     26.616258
     -3.358358     13.992666     13.992666     27.985333
     -3.348348     15.494338     15.494338     30.988677
     -3.338338     18.062920     18.062920     36.125840
     -3.328328     21.704606     21.704606     43.409212
     -3.318318     26.155426     26.155426     52.310851
     -3.308308     30.896520     30.896520     61.793039
     -3.298298     35.210316     35.210316     70.420632
     -3.288288     38.293924     38.293924     76.587849
     -3.278278     39.437583     39.437583     78.875166
     -3.268268     38.232925     38.232925     76.465850
     -3.258258     34.728987     34.728987     69.457973
     -3.248248     29.450320     29.450320     58.900639
     -3.238238     23.249299     23.249299     46.498598
     -3.228228     17.050517     17.050517     34.101035
     -3.218218     11.599680     11.599680     23.199360
     -3.208208      7.316989      7.316989     14.633977
     -3.198198      4.290479      4.290479      8.580958
     -3.188188      2.375803      2.375803      4.751605
     -3.178178      1.335546      1.335546      2.671092
     -3.168168      0.959947      0.959947      1.919893
     -3.158158      1.140782      1.140782      2.281563
     -3.148148      1.895882      1.895882      3.791765
     -3.138138      3.351609      3.351609      6.703218
     -3.128128      5.689532      5.689532     11.379064
     -3.118118      9.063568      9.063568     18.127135
     -3.108108     13.502793     13.502793     27.005585
     -3.098098     18.830331     18.830331     37.660662
     -3.088088     24.637268     24.637268     49.274535
     -3.078078     30.338762     30.338762     60.677524
     -3.068068     35.304828     35.304828     70.609655
     -3.058058     39.016776     39.016776     78.033552
     -3.048048     41.180235     41.180235     82.360470
     -3.038038     41.747004     41.747004     83.494007
     -3.028028     40.852609     40.852609     81.705218
     -3.018018     38.727746     38.727746     77.455492
     -3.008008     35.650511     35.650511     71.301022
     -2.997998     31.963961     31.963961     63.927923
     -2.987988     28.122667     28.122667     56.245334
     -2.977978     24.701147     24.701147     49.402294
     -2.967968     22.320249     22.320249     44.640498
     -2.957958     21.505061     21.505061     43.010122
     -2.947948     22.535256     22.535256     45.070511
     -2.937938     25.354052     25.354052     50.708104
     -2.927928     29.568495     29.568495     59.136990
     -2.917918     34.531011     34.531011     69.062022
     -2.907908     39.468482     39.468482     78.936964
     -2.897898     43.626379     43.626379     87.252758
     -2.887888     46.406612     46.406612     92.813224
     -2.877878     47.480879     47.480879     94.961757
     -2.867868     46.853850     46.853850     93.707701
     -2.857858     44.847068     44.847068     89.694136
     -2.847848     41.991256     41.991256     83.982512
     -2.837838     38.852145     38.852145     77.704291
     -2.827828     35.852719     35.852719     71.705437
     -2.817818     33.166323     33.166323     66.332646
     -2.807808     30.726950     30.726950     61.453900
     -2.797798     28.346538     28.346538     56.693076
     -2.787788     25.874796     25.874796     51.749592
     -2.777778     23.316074     23.316074     46.632149
     -2.767768     20.843492     20.843492     41.686984
     -2.757758     18.709662     18.709662     37.419324
     -2.747748     17.112814     17.112814     34.225628
     -2.737738     16.102054     16.102054     32.204108
     -2.727728     15.579985     15.579985     31.159969
     -2.717718     15.398813     15.398813     30.797625
     -2.707708     15.484959     15.484959     30.969919
     -2.697698     15.906362     15.906362     31.812724
     -2.687688     16.831631     16.831631     33.663263
     -2.677678     18.400915     18.400915     36.801830
     -2.667668     20.589700     20.589700     41.179400
     -2.657658     23.157451     23.157451     46.314901
     -2.647648     25.722752     25.722752     51.445504
     -2.637638     27.925973     27.925973     55.851946
     -2.627628     29.582601     29.582601     59.165203
     -2.617618     30.736064     30.736064     61.472127
     -2.607608     31.585467     31.585467     63.170934
     -2.597598     32.344148     32.344148     64.688297
     -2.587588     33.120978     33.120978     66.241957
     -2.577578     33.884726     33.884726     67.769452
     -2.567568     34.503362     34.503362     69.006724
     -2.557558     34.803766     34.803766     69.607533
     -2.547548     34.607706     34.607706     69.215411
     -2.537538     33.748271     33.748271     67.496542
     -2.527528     32.104539     32.104539     64.209077
     -2.517518     29.675903     29.675903     59.351806
     -2.507508     26.666459     26.666459     53.332919
     -2.497497     23.513579     23.513579     47.027159
     -2.487487     20.810612     20.810612     41.621223
     -2.477477     19.133852     19.133852     38.267704
     -2.467467     18.845780     18.845780     37.691560
     -2.457457     19.968328     19.968328     39.936656
     -2.447447     22.189475     22.189475     44.378951
     -2.437437     25.002712     25.002712     50.005423
     -2.427427     27.915359     27.915359     55.830717
     -2.417417     30.628422     30.628422     61.256843
     -2.407407     33.103102     33.103102     66.206204
     -2.397397     35.482912     35.482912     70.965824
     -2.387387     37.911392     37.911392     75.822784
     -2.377377     40.339674     40.339674     80.679347
     -2.367367     42.427955     42.427955     84.855910
     -2.357357     43.603473     43.603473     87.206945
     -2.347347     43.262903     43.262903     86.525806
     -2.337337     41.034497     41.034497     82.068994
     -2.327327     36.981370     36.981370     73.962739
     -2.317317     31.651607     31.651607     63.303214
     -2.307307     25.951933     25.951933     51.903867
     -2.297297     20.901078     20.901078     41.802156
     -2.287287     17.363981     17.363981     34.727963
     -2.277277     15.859662     15.859662     31.719325
     -2.267267     16.489117     16.489117     32.978235
     -2.257257     18.977851     18.977851     37.955702
     -2.247247     22.794915     22.794915     45.589830
     -2.237237     27.300128     27.300128     54.600256
     -2.227227     31.874885     31.874885     63.749769
     -2.217217     36.003964     36.003964     72.007927
     -2.207207     39.296880     39.296880     78.593760
     -2.197197     41.465849     41.465849     82.931698
     -2.187187     42.300480     42.300480     84.600961
     -2.177177     41.678580     41.678580     83.357160
     -2.167167     39.621014     39.621014     79.242027
     -2.157157     36.353552     36.353552     72.707104
     -2.147147     32.314007     32.314007     64.628014
     -2.137137     28.064040     28.064040     56.128080
     -2.127127     24.124286     24.124286     48.248572
     -2.117117     20.808832     20.808832     41.617665
     -2.107107     18.146930     18.146930     36.293861
     -2.097097     15.933607     15.933607     31.867214
     -2.087087     13.876926     13.876926     27.753852
     -2.077077     11.758080     11.758080     23.516161
     -2.067067      9.523401      9.523401     19.046803
     -2.057057      7.276833      7.276833     14.553666
     -2.047047      5.199820      5.199820     10.399640
     -2.037037      3.456067      3.456067      6.912134
     -2.027027      2.130028      2.130028      4.260057
     -2.017017      1.216156      1.216156      2.432312
     -2.007007      0.646186      0.646186      1.292372
     -1.996997      0.329709      0.329709      0.659419
     -1.986987      0.188525      0.188525      0.377051
     -1.976977      0.177540      0.177540      0.355080
     -1.966967      0.294263      0.294263      0.588526
     -1.956957      0.581135      0.581135      1.162271
     -1.946947      1.121523      1.121523      2.243046
     -1.936937      2.025754      2.025754      4.051507
     -1.926927      3.402690      3.402690      6.805381
     -1.916917      5.317587      5.317587     10.635174
     -1.906907      7.746769      7.746769     15.493539
     -1.896897     10.547951     10.547951     21.095902
     -1.886887     13.464463     13.464463     26.928925
     -1.876877     16.169867     16.169867     32.339734
     -1.866867     18.342089     18.342089     36.684178
     -1.856857     19.743612     19.743612     39.487224
     -1.846847     20.282549     20.282549     40.565098
     -1.836837     20.036075     20.036075     40.072149
     -1.826827     19.226749     19.226749     38.453498
     -1.816817     18.152460     18.152460     36.304919
     -1.806807     17.085633     17.085633     34.171267
     -1.796797     16.175940     16.175940     32.351881
     -1.786787     15.400607     15.400607     30.801213
     -1.776777     14.592647     14.592647     29.185295
     -1.766767     13.539677     13.539677     27.079353
     -1.756757     12.106040     12.106040     24.212080
     -1.746747     10.317362     10.317362     20.634724
     -1.736737      8.370162      8.370162     16.740325
     -1.726727      6.572860      6.572860     13.145720
     -1.716717      5.257102      5.257102     10.514204
     -1.706707      4.700381      4.700381      9.400762
     -1.696697      5.078053      5.078053     10.156107
     -1.686687      6.438070      6.438070     12.876140
     -1.676677      8.684386      8.684386     17.368771
     -1.666667     11.566657     11.566657     23.133314
     -1.656657     14.690096     14.690096     29.380191
     -1.646647     17.563561     17.563561     35.127122
     -1.636637     19.690528     19.690528     39.381056
     -1.626627     20.684817     20.684817     41.369635
