# EIG2DOS: Utility for SIESTA to obtain the electronic density of states
#  E. Artacho, Apr 1999, A. Garcia, Apr 2012
#  Nick R. Papior, Feb 2017
# ------------------------------------------
# Eigenvalues calculated from a non-polarized calculation
# Eigenvalues read from siesta.EIG
# Kpoint weights read from siesta.KP
# Using smearing parameter:   0.0500
# Using 1000 points in the energy range
# Selected bands: 1 to: 2981
# Emin, Emax in file for selected band(s):    -27.0691396    218.3440860
# Nbands, Nspin, Nk   =   2981     1     1
# E_F                 =    -4.2630 eV --> (shifted to ZERO)
# Broadening          =     0.0500 eV
#
#        E            N(up)  (=)   N(down)         Ntot
     -5.000000     34.651713     34.651713     69.303427
     -4.989990     38.023498     38.023498     76.046996
     -4.979980     41.065776     41.065776     82.131551
     -4.969970     43.211492     43.211492     86.422984
     -4.959960     44.030800     44.030800     88.061600
     -4.949950     43.349138     43.349138     86.698277
     -4.939940     41.297685     41.297685     82.595369
     -4.929930     38.291498     38.291498     76.582996
     -4.919920     34.958494     34.958494     69.916987
     -4.909910     32.047671     32.047671     64.095341
     -4.899900     30.325966     30.325966     60.651933
     -4.889890     30.449757     30.449757     60.899515
     -4.879880     32.798399     32.798399     65.596798
     -4.869870     37.295714     37.295714     74.591428
     -4.859860     43.298025     43.298025     86.596049
     -4.849850     49.645992     49.645992     99.291984
     -4.839840     54.926505     54.926505    109.853010
     -4.829830     57.883617     57.883617    115.767234
     -4.819820     57.818314     57.818314    115.636628
     -4.809810     54.797895     54.797895    109.595790
     -4.799800     49.581143     49.581143     99.162286
     -4.789790     43.306989     43.306989     86.613978
     -4.779780     37.103616     37.103616     74.207233
     -4.769770     31.787892     31.787892     63.575785
     -4.759760     27.747020     27.747020     55.494040
     -4.749750     24.988464     24.988464     49.976929
     -4.739740     23.277501     23.277501     46.555002
     -4.729730     22.278026     22.278026     44.556052
     -4.719720     21.649430     21.649430     43.298860
     -4.709710     21.093935     21.093935     42.187870
     -4.699700     20.373841     20.373841     40.747682
     -4.689690     19.324493     19.324493     38.648985
     -4.679680     17.881178     17.881178     35.762356
     -4.669670     16.121021     16.121021     32.242042
     -4.659660     14.301382     14.301382     28.602765
     -4.649650     12.865219     12.865219     25.730437
     -4.639640     12.388550     12.388550     24.777100
     -4.629630     13.463086     13.463086     26.926173
     -4.619620     16.529773     16.529773     33.059545
     -4.609610     21.700948     21.700948     43.401897
     -4.599600     28.627772     28.627772     57.255545
     -4.589590     36.478277     36.478277     72.956553
     -4.579580     44.074751     44.074751     88.149503
     -4.569570     50.186892     50.186892    100.373784
     -4.559560     53.902551     53.902551    107.805101
     -4.549550     54.939885     54.939885    109.879771
     -4.539540     53.764326     53.764326    107.528651
     -4.529530     51.442911     51.442911    102.885822
     -4.519520     49.277313     49.277313     98.554627
     -4.509510     48.351299     48.351299     96.702598
     -4.499499     49.163308     49.163308     98.326617
     -4.489489     51.477377     51.477377    102.954753
     -4.479479     54.436605     54.436605    108.873209
     -4.469469     56.882664     56.882664    113.765328
     -4.459459     57.752452     57.752452    115.504904
     -4.449449     56.405403     56.405403    112.810805
     -4.439439     52.776570     52.776570    105.553140
     -4.429429     47.331152     47.331152     94.662303
     -4.419419     40.876877     40.876877     81.753754
     -4.409409     34.332218     34.332218     68.664436
     -4.399399     28.534270     28.534270     57.068540
     -4.389389     24.119259     24.119259     48.238518
     -4.379379     21.461676     21.461676     42.923352
     -4.369369     20.646117     20.646117     41.292234
     -4.359359     21.466876     21.466876     42.933752
     -4.349349     23.474040     23.474040     46.948079
     -4.339339     26.082410     26.082410     52.164820
     -4.329329     28.728634     28.728634     57.457268
     -4.319319     31.026930     31.026930     62.053861
     -4.309309     32.863149     32.863149     65.726297
     -4.299299     34.389296     34.389296     68.778593
     -4.289289     35.920689     35.920689     71.841378
     -4.279279     37.772381     37.772381     75.544761
     -4.269269     40.088737     40.088737     80.177475
     -4.259259     42.722970     42.722970     85.445941
     -4.249249     45.216949     45.216949     90.433898
     -4.239239     46.910338     46.910338     93.820675
     -4.229229     47.163391     47.163391     94.326783
     -4.219219     45.617969     45.617969     91.235939
     -4.209209     42.380466     42.380466     84.760931
     -4.199199     38.027244     38.027244     76.054488
     -4.189189     33.414185     33.414185     66.828370
     -4.179179     29.374751     29.374751     58.749502
     -4.169169     26.450375     26.450375     52.900749
     -4.159159     24.774460     24.774460     49.548920
     -4.149149     24.144092     24.144092     48.288183
     -4.139139     24.218127     24.218127     48.436255
     -4.129129     24.728623     24.728623     49.457246
     -4.119119     25.601069     25.601069     51.202138
     -4.109109     26.931594     26.931594     53.863188
     -4.099099     28.838869     28.838869     57.677737
     -4.089089     31.270435     31.270435     62.540870
     -4.079079     33.874577     33.874577     67.749155
     -4.069069     36.028724     36.028724     72.057448
     -4.059059     37.040352     37.040352     74.080704
     -4.049049     36.437856     36.437856     72.875712
     -4.039039     34.205454     34.205454     68.410907
     -4.029029     30.835291     30.835291     61.670582
     -4.019019     27.166941     27.166941     54.333883
     -4.009009     24.099581     24.099581     48.199162
     -3.998999     22.321739     22.321739     44.643478
     -3.988989     22.173842     22.173842     44.347683
     -3.978979     23.668032     23.668032     47.336065
     -3.968969     26.603309     26.603309     53.206617
     -3.958959     30.685285     30.685285     61.370571
     -3.948949     35.595027     35.595027     71.190055
     -3.938939     41.011257     41.011257     82.022513
     -3.928929     46.624723     46.624723     93.249446
     -3.918919     52.170552     52.170552    104.341105
     -3.908909     57.463702     57.463702    114.927403
     -3.898899     62.395847     62.395847    124.791693
     -3.888889     66.866753     66.866753    133.733505
     -3.878879     70.671607     70.671607    141.343214
     -3.868869     73.412324     73.412324    146.824647
     -3.858859     74.509098     74.509098    149.018196
     -3.848849     73.346238     73.346238    146.692476
     -3.838839     69.513337     69.513337    139.026675
     -3.828829     63.040057     63.040057    126.080113
     -3.818819     54.508888     54.508888    109.017775
     -3.808809     44.977870     44.977870     89.955739
     -3.798799     35.730484     35.730484     71.460969
     -3.788789     27.946044     27.946044     55.892087
     -3.778779     22.411198     22.411198     44.822396
     -3.768769     19.364199     19.364199     38.728399
     -3.758759     18.503092     18.503092     37.006185
     -3.748749     19.132224     19.132224     38.264448
     -3.738739     20.389714     20.389714     40.779429
     -3.728729     21.492079     21.492079     42.984158
     -3.718719     21.939750     21.939750     43.879499
     -3.708709     21.639358     21.639358     43.278716
     -3.698699     20.913477     20.913477     41.826954
     -3.688689     20.389251     20.389251     40.778502
     -3.678679     20.786276     20.786276     41.572552
     -3.668669     22.657760     22.657760     45.315520
     -3.658659     26.165987     26.165987     52.331973
     -3.648649     30.976467     30.976467     61.952934
     -3.638639     36.321929     36.321929     72.643857
     -3.628629     41.221866     41.221866     82.443731
     -3.618619     44.774163     44.774163     89.548325
     -3.608609     46.402425     46.402425     92.804851
     -3.598599     45.969359     45.969359     91.938718
     -3.588589     43.737388     43.737388     87.474777
     -3.578579     40.226373     40.226373     80.452745
     -3.568569     36.043851     36.043851     72.087701
     -3.558559     31.742438     31.742438     63.484875
     -3.548549     27.723342     27.723342     55.446684
     -3.538539     24.186798     24.186798     48.373596
     -3.528529     21.132960     21.132960     42.265921
     -3.518519     18.418798     18.418798     36.837596
     -3.508509     15.860361     15.860361     31.720721
     -3.498498     13.343712     13.343712     26.687423
     -3.488488     10.896449     10.896449     21.792898
     -3.478478      8.689359      8.689359     17.378718
     -3.468468      6.973098      6.973098     13.946196
     -3.458458      5.982817      5.982817     11.965634
     -3.448448      5.849041      5.849041     11.698082
     -3.438438      6.541357      6.541357     13.082714
     -3.428428      7.858014      7.858014     15.716028
     -3.418418      9.466889      9.466889     18.933778
     -3.408408     10.995425     10.995425     21.990849
     -3.398398     12.150831     12.150831     24.301663
     -3.388388     12.831016     12.831016     25.662033
     -3.378378     13.178163     13.178163     26.356326
     -3.368368     13.544619     13.544619     27.089239
     -3.358358     14.379752     14.379752     28.759504
     -3.348348     16.082472     16.082472     32.164944
     -3.338338     18.872885     18.872885     37.745770
     -3.328328     22.715100     22.715100     45.430199
     -3.318318     27.293598     27.293598     54.587196
     -3.308308     32.034588     32.034588     64.069175
     -3.298298     36.176164     36.176164     72.352329
     -3.288288     38.902978     38.902978     77.805956
     -3.278278     39.543204     39.543204     79.086408
     -3.268268     37.777918     37.777918     75.555836
     -3.258258     33.773141     33.773141     67.546282
     -3.248248     28.156980     28.156980     56.313959
     -3.238238     21.834592     21.834592     43.669185
     -3.228228     15.718468     15.718468     31.436937
     -3.218218     10.491838     10.491838     20.983677
     -3.208208      6.494338      6.494338     12.988676
     -3.198198      3.747537      3.747537      7.495073
     -3.188188      2.074104      2.074104      4.148207
     -3.178178      1.241794      1.241794      2.483589
     -3.168168      1.080066      1.080066      2.160131
     -3.158158      1.547707      1.547707      3.095415
     -3.148148      2.750431      2.750431      5.500863
     -3.138138      4.910997      4.910997      9.821995
     -3.128128      8.290717      8.290717     16.581434
     -3.118118     13.065295     13.065295     26.130591
     -3.108108     19.178218     19.178218     38.356436
     -3.098098     26.224112     26.224112     52.448224
     -3.088088     33.431049     33.431049     66.862097
     -3.078078     39.790743     39.790743     79.581485
     -3.068068     44.323548     44.323548     88.647095
     -3.058058     46.387235     46.387235     92.774470
     -3.048048     45.893800     45.893800     91.787600
     -3.038038     43.325946     43.325946     86.651891
     -3.028028     39.539413     39.539413     79.078826
     -3.018018     35.445563     35.445563     70.891126
     -3.008008     31.724103     31.724103     63.448206
     -2.997998     28.687269     28.687269     57.374537
     -2.987988     26.328653     26.328653     52.657306
     -2.977978     24.499253     24.499253     48.998505
     -2.967968     23.106383     23.106383     46.212766
     -2.957958     22.238649     22.238649     44.477298
     -2.947948     22.164548     22.164548     44.329096
     -2.937938     23.209532     23.209532     46.419063
     -2.927928     25.567656     25.567656     51.135311
     -2.917918     29.134446     29.134446     58.268892
     -2.907908     33.444396     33.444396     66.888792
     -2.897898     37.755687     37.755687     75.511374
     -2.887888     41.259701     41.259701     82.519402
     -2.877878     43.333068     43.333068     86.666136
     -2.867868     43.726030     43.726030     87.452061
     -2.857858     42.607098     42.607098     85.214196
     -2.847848     40.448988     40.448988     80.897975
     -2.837838     37.813119     37.813119     75.626239
     -2.827828     35.133923     35.133923     70.267845
     -2.817818     32.598446     32.598446     65.196892
     -2.807808     30.164780     30.164780     60.329560
     -2.797798     27.691573     27.691573     55.383147
     -2.787788     25.097227     25.097227     50.194454
     -2.777778     22.458666     22.458666     44.917331
     -2.767768     19.999579     19.999579     39.999158
     -2.757758     17.983985     17.983985     35.967970
     -2.747748     16.585678     16.585678     33.171356
     -2.737738     15.815963     15.815963     31.631926
     -2.727728     15.553542     15.553542     31.107084
     -2.717718     15.653927     15.653927     31.307854
     -2.707708     16.062623     16.062623     32.125246
     -2.697698     16.851773     16.851773     33.703547
     -2.687688     18.149835     18.149835     36.299670
     -2.677678     20.007672     20.007672     40.015345
     -2.667668     22.293043     22.293043     44.586086
     -2.657658     24.693276     24.693276     49.386552
     -2.647648     26.837210     26.837210     53.674420
     -2.637638     28.466753     28.466753     56.933506
     -2.627628     29.551981     29.551981     59.103962
     -2.617618     30.279018     30.279018     60.558037
     -2.607608     30.923185     30.923185     61.846371
     -2.597598     31.691139     31.691139     63.382278
     -2.587588     32.624383     32.624383     65.248767
     -2.577578     33.601452     33.601452     67.202905
     -2.567568     34.405843     34.405843     68.811686
     -2.557558     34.797711     34.797711     69.595423
     -2.547548     34.555366     34.555366     69.110733
     -2.537538     33.502233     33.502233     67.004466
     -2.527528     31.554864     31.554864     63.109729
     -2.517518     28.798780     28.798780     57.597561
     -2.507508     25.550713     25.550713     51.101426
     -2.497497     22.346097     22.346097     44.692195
     -2.487487     19.821884     19.821884     39.643767
     -2.477477     18.526252     18.526252     37.052504
     -2.467467     18.735559     18.735559     37.471119
     -2.457457     20.363656     20.363656     40.727313
     -2.447447     23.008366     23.008366     46.016731
     -2.437437     26.117046     26.117046     52.234092
     -2.427427     29.198051     29.198051     58.396103
     -2.417417     31.982435     31.982435     63.964869
     -2.407407     34.461751     34.461751     68.923501
     -2.397397     36.785753     36.785753     73.571506
     -2.387387     39.072516     39.072516     78.145033
     -2.377377     41.229732     41.229732     82.459465
     -2.367367     42.885435     42.885435     85.770869
     -2.357357     43.476822     43.476822     86.953644
     -2.347347     42.468898     42.468898     84.937796
     -2.337337     39.607312     39.607312     79.214624
     -2.327327     35.087600     35.087600     70.175200
     -2.317317     29.560322     29.560322     59.120644
     -2.307307     23.969450     23.969450     47.938899
     -2.297297     19.296259     19.296259     38.592518
     -2.287287     16.312429     16.312429     32.624857
     -2.277277     15.423785     15.423785     30.847570
     -2.267267     16.633527     16.633527     33.267054
     -2.257257     19.605521     19.605521     39.211042
     -2.247247     23.784504     23.784504     47.569008
     -2.237237     28.528849     28.528849     57.057698
     -2.227227     33.221364     33.221364     66.442727
     -2.217217     37.337408     37.337408     74.674817
     -2.207207     40.467523     40.467523     80.935047
     -2.197197     42.312165     42.312165     84.624330
     -2.187187     42.679405     42.679405     85.358810
     -2.177177     41.509830     41.509830     83.019660
     -2.167167     38.924140     38.924140     77.848280
     -2.157157     35.255003     35.255003     70.510006
     -2.147147     31.013867     31.013867     62.027735
     -2.137137     26.772588     26.772588     53.545176
     -2.127127     22.995530     22.995530     45.991059
     -2.117117     19.901096     19.901096     39.802192
     -2.107107     17.426734     17.426734     34.853468
     -2.097097     15.316416     15.316416     30.632832
     -2.087087     13.280473     13.280473     26.560945
     -2.077077     11.141123     11.141123     22.282247
     -2.067067      8.895064      8.895064     17.790127
     -2.057057      6.679659      6.679659     13.359318
     -2.047047      4.681978      4.681978      9.363956
     -2.037037      3.049017      3.049017      6.098034
     -2.027027      1.840082      1.840082      3.680164
     -2.017017      1.028785      1.028785      2.057570
     -2.007007      0.536500      0.536500      1.073000
     -1.996997      0.272548      0.272548      0.545097
     -1.986987      0.164793      0.164793      0.329586
     -1.976977      0.176657      0.176657      0.353315
     -1.966967      0.314207      0.314207      0.628415
     -1.956957      0.627419      0.627419      1.254837
     -1.946947      1.205533      1.205533      2.411067
     -1.936937      2.162090      2.162090      4.324180
     -1.926927      3.605048      3.605048      7.210096
     -1.916917      5.593443      5.593443     11.186886
     -1.906907      8.092137      8.092137     16.184274
     -1.896897     10.944053     10.944053     21.888106
     -1.886887     13.877873     13.877873     27.755747
     -1.876877     16.556647     16.556647     33.113295
     -1.866867     18.655382     18.655382     37.310765
     -1.856857     19.943480     19.943480     39.886961
     -1.846847     20.346315     20.346315     40.692629
     -1.836837     19.966829     19.966829     39.933658
     -1.826827     19.057631     19.057631     38.115263
     -1.816817     17.946101     17.946101     35.892202
     -1.806807     16.932038     16.932038     33.864077
     -1.796797     16.195502     16.195502     32.391004
     -1.786787     15.757654     15.757654     31.515308
     -1.776777     15.516364     15.516364     31.032729
     -1.766767     15.336234     15.336234     30.672468
     -1.756757     15.136641     15.136641     30.273283
     -1.746747     14.921309     14.921309     29.842618
     -1.736737     14.734127     14.734127     29.468253
     -1.726727     14.580699     14.580699     29.161397
     -1.716717     14.381852     14.381852     28.763704
     -1.706707     14.002569     14.002569     28.005139
     -1.696697     13.343537     13.343537     26.687074
     -1.686687     12.434090     12.434090     24.868180
     -1.676677     11.459346     11.459346     22.918692
     -1.666667     10.693807     10.693807     21.387614
     -1.656657     10.371116     10.371116     20.742232
     -1.646647     10.558669     10.558669     21.117338
     -1.636637     11.105246     11.105246     22.210491
     -1.626627     11.692853     11.692853     23.385706
