# EIG2DOS: Utility for SIESTA to obtain the electronic density of states
#  E. Artacho, Apr 1999, A. Garcia, Apr 2012
#  Nick R. Papior, Feb 2017
# ------------------------------------------
# Eigenvalues calculated from a non-polarized calculation
# Eigenvalues read from siesta.EIG
# Kpoint weights read from siesta.KP
# Using smearing parameter:   0.0500
# Using 1000 points in the energy range
# Selected bands: 1 to: 2981
# Emin, Emax in file for selected band(s):    -27.1847226    218.3424090
# Nbands, Nspin, Nk   =   2981     1     1
# E_F                 =    -4.2672 eV --> (shifted to ZERO)
# Broadening          =     0.0500 eV
#
#        E            N(up)  (=)   N(down)         Ntot
     -5.000000     34.884326     34.884326     69.768652
     -4.989990     38.141379     38.141379     76.282757
     -4.979980     40.947654     40.947654     81.895308
     -4.969970     42.818236     42.818236     85.636471
     -4.959960     43.408529     43.408529     86.817057
     -4.949950     42.603487     42.603487     85.206974
     -4.939940     40.553099     40.553099     81.106198
     -4.929930     37.652922     37.652922     75.305845
     -4.919920     34.488309     34.488309     68.976617
     -4.909910     31.761784     31.761784     63.523568
     -4.899900     30.204802     30.204802     60.409604
     -4.889890     30.455936     30.455936     60.911871
     -4.879880     32.893209     32.893209     65.786418
     -4.869870     37.449184     37.449184     74.898368
     -4.859860     43.490868     43.490868     86.981737
     -4.849850     49.865092     49.865092     99.730183
     -4.839840     55.158087     55.158087    110.316174
     -4.829830     58.108801     58.108801    116.217602
     -4.819820     58.013678     58.013678    116.027356
     -4.809810     54.940272     54.940272    109.880545
     -4.799800     49.653376     49.653376     99.306752
     -4.789790     43.301516     43.301516     86.603031
     -4.779780     37.022951     37.022951     74.045902
     -4.769770     31.643118     31.643118     63.286235
     -4.759760     27.555727     27.555727     55.111454
     -4.749750     24.772534     24.772534     49.545068
     -4.739740     23.060290     23.060290     46.120580
     -4.729730     22.080903     22.080903     44.161806
     -4.719720     21.488589     21.488589     42.977178
     -4.709710     20.978797     20.978797     41.957595
     -4.699700     20.307592     20.307592     40.615184
     -4.689690     19.306116     19.306116     38.612233
     -4.679680     17.907775     17.907775     35.815550
     -4.669670     16.189533     16.189533     32.379066
     -4.659660     14.409597     14.409597     28.819193
     -4.649650     13.012493     13.012493     26.024985
     -4.639640     12.577219     12.577219     25.154439
     -4.629630     13.702705     13.702705     27.405409
     -4.619620     16.847973     16.847973     33.695946
     -4.609610     22.164868     22.164868     44.329736
     -4.599600     29.375477     29.375477     58.750954
     -4.589590     37.749281     37.749281     75.498561
     -4.579580     46.216479     46.216479     92.432959
     -4.569570     53.609307     53.609307    107.218614
     -4.559560     58.965861     58.965861    117.931723
     -4.549550     61.791468     61.791468    123.582936
     -4.539540     62.178020     62.178020    124.356039
     -4.529530     60.734358     60.734358    121.468715
     -4.519520     58.355181     58.355181    116.710362
     -4.509510     55.916445     55.916445    111.832890
     -4.499499     54.007251     54.007251    108.014501
     -4.489489     52.787183     52.787183    105.574367
     -4.479479     52.005899     52.005899    104.011798
     -4.469469     51.159629     51.159629    102.319257
     -4.459459     49.711488     49.711488     99.422977
     -4.449449     47.288234     47.288234     94.576468
     -4.439439     43.790093     43.790093     87.580187
     -4.429429     39.397966     39.397966     78.795932
     -4.419419     34.506530     34.506530     69.013060
     -4.409409     29.629299     29.629299     59.258597
     -4.399399     25.308159     25.308159     50.616317
     -4.389389     22.032894     22.032894     44.065789
     -4.379379     20.161298     20.161298     40.322595
     -4.369369     19.840504     19.840504     39.681008
     -4.359359     20.954267     20.954267     41.908533
     -4.349349     23.133342     23.133342     46.266684
     -4.339339     25.849056     25.849056     51.698112
     -4.329329     28.569708     28.569708     57.139416
     -4.319319     30.922198     30.922198     61.844396
     -4.309309     32.793069     32.793069     65.586137
     -4.299299     34.329169     34.329169     68.658337
     -4.289289     35.840609     35.840609     71.681218
     -4.279279     37.643362     37.643362     75.286725
     -4.269269     39.894211     39.894211     79.788421
     -4.259259     42.471639     42.471639     84.943278
     -4.249249     44.949889     44.949889     89.899778
     -4.239239     46.695587     46.695587     93.391173
     -4.229229     47.076673     47.076673     94.153346
     -4.219219     45.716091     45.716091     91.432183
     -4.209209     42.679151     42.679151     85.358302
     -4.199199     38.493630     38.493630     76.987259
     -4.189189     33.976785     33.976785     67.953569
     -4.179179     29.945208     29.945208     59.890415
     -4.169169     26.946985     26.946985     53.893970
     -4.159159     25.138851     25.138851     50.277702
     -4.149149     24.347373     24.347373     48.694746
     -4.139139     24.257876     24.257876     48.515753
     -4.129129     24.621010     24.621010     49.242021
     -4.119119     25.372912     25.372912     50.745824
     -4.109109     26.615652     26.615652     53.231303
     -4.099099     28.473057     28.473057     56.946114
     -4.089089     30.898903     30.898903     61.797805
     -4.079079     33.547103     33.547103     67.094206
     -4.069069     35.795723     35.795723     71.591447
     -4.059059     36.943593     36.943593     73.887186
     -4.049049     36.500037     36.500037     73.000073
     -4.039039     34.422998     34.422998     68.845996
     -4.029029     31.177296     31.177296     62.354593
     -4.019019     27.580343     27.580343     55.160686
     -4.009009     24.518444     24.518444     49.036888
     -3.998999     22.678251     22.678251     45.356503
     -3.988989     22.409343     22.409343     44.818686
     -3.978979     23.742825     23.742825     47.485650
     -3.968969     26.503468     26.503468     53.006936
     -3.958959     30.424241     30.424241     60.848482
     -3.948949     35.208579     35.208579     70.417157
     -3.938939     40.546991     40.546991     81.093982
     -3.928929     46.129235     46.129235     92.258470
     -3.918919     51.678957     51.678957    103.357914
     -3.908909     56.995167     56.995167    113.990333
     -3.898899     61.956692     61.956692    123.913384
     -3.888889     66.459788     66.459788    132.919577
     -3.878879     70.307555     70.307555    140.615110
     -3.868869     73.117412     73.117412    146.234824
     -3.858859     74.323572     74.323572    148.647144
     -3.848849     73.312337     73.312337    146.624675
     -3.838839     69.657015     69.657015    139.314031
     -3.828829     63.355146     63.355146    126.710292
     -3.818819     54.952275     54.952275    109.904550
     -3.808809     45.479020     45.479020     90.958041
     -3.798799     36.211374     36.211374     72.422748
     -3.788789     28.342757     28.342757     56.685514
     -3.778779     22.688689     22.688689     45.377379
     -3.768769     19.520052     19.520052     39.040105
     -3.758759     18.561282     18.561282     37.122564
     -3.748749     19.131093     19.131093     38.262185
     -3.738739     20.368865     20.368865     40.737731
     -3.728729     21.481664     21.481664     42.963328
     -3.718719     21.954003     21.954003     43.908005
     -3.708709     21.674963     21.674963     43.349926
     -3.698699     20.952503     20.952503     41.905006
     -3.688689     20.405748     20.405748     40.811496
     -3.678679     20.755016     20.755016     41.510031
     -3.668669     22.563026     22.563026     45.126051
     -3.658659     26.007979     26.007979     52.015959
     -3.648649     30.773189     30.773189     61.546378
     -3.638639     36.105597     36.105597     72.211194
     -3.628629     41.030809     41.030809     82.061619
     -3.618619     44.642932     44.642932     89.285864
     -3.608609     46.353484     46.353484     92.706968
     -3.598599     46.008839     46.008839     92.017678
     -3.588589     43.855542     43.855542     87.711085
     -3.578579     40.401708     40.401708     80.803415
     -3.568569     36.249187     36.249187     72.498374
     -3.558559     31.951234     31.951234     63.902468
     -3.548549     27.914947     27.914947     55.829894
     -3.538539     24.349541     24.349541     48.699082
     -3.528529     21.264406     21.264406     42.528811
     -3.518519     18.523279     18.523279     37.046558
     -3.508509     15.944947     15.944947     31.889895
     -3.498498     13.414357     13.414357     26.828714
     -3.488488     10.955793     10.955793     21.911586
     -3.478478      8.736679      8.736679     17.473358
     -3.468468      7.005846      7.005846     14.011692
     -3.458458      5.998686      5.998686     11.997371
     -3.448448      5.847633      5.847633     11.695267
     -3.438438      6.524965      6.524965     13.049929
     -3.428428      7.831330      7.831330     15.662661
     -3.418418      9.435695      9.435695     18.871389
     -3.408408     10.964513     10.964513     21.929026
     -3.398398     12.121823     12.121823     24.243645
     -3.388388     12.801038     12.801038     25.602075
     -3.378378     13.140231     13.140231     26.280462
     -3.368368     13.489848     13.489848     26.979695
     -3.358358     14.300553     14.300553     28.601106
     -3.348348     15.975390     15.975390     31.950780
     -3.338338     18.740083     18.740083     37.480166
     -3.328328     22.564539     22.564539     45.129077
     -3.318318     27.138818     27.138818     54.277635
     -3.308308     31.894953     31.894953     63.789906
     -3.298298     36.077814     36.077814     72.155629
     -3.288288     38.880576     38.880576     77.761153
     -3.278278     39.643884     39.643884     79.287768
     -3.268268     38.070682     38.070682     76.141363
     -3.258258     34.366795     34.366795     68.733590
     -3.248248     29.224877     29.224877     58.449754
     -3.238238     23.635344     23.635344     47.270688
     -3.228228     18.593178     18.593178     37.186356
     -3.218218     14.818156     14.818156     29.636313
     -3.208208     12.591759     12.591759     25.183518
     -3.198198     11.755080     11.755080     23.510160
     -3.188188     11.848272     11.848272     23.696543
     -3.178178     12.330543     12.330543     24.661087
     -3.168168     12.804536     12.804536     25.609071
     -3.158158     13.173056     13.173056     26.346112
     -3.148148     13.676199     13.676199     27.352397
     -3.138138     14.792362     14.792362     29.584725
     -3.128128     17.032053     17.032053     34.064107
     -3.118118     20.694452     20.694452     41.388905
     -3.108108     25.677064     25.677064     51.354127
     -3.098098     31.417521     31.417521     62.835042
     -3.088088     37.003454     37.003454     74.006909
     -3.078078     41.422868     41.422868     82.845736
     -3.068068     43.866922     43.866922     87.733844
     -3.058058     43.967822     43.967822     87.935644
     -3.048048     41.876659     41.876659     83.753317
     -3.038038     38.155566     38.155566     76.311132
     -3.028028     33.543562     33.543562     67.087124
     -3.018018     28.710687     28.710687     57.421374
     -3.008008     24.109350     24.109350     48.218699
     -2.997998     19.969578     19.969578     39.939156
     -2.987988     16.405027     16.405027     32.810055
     -2.977978     13.546225     13.546225     27.092450
     -2.967968     11.620150     11.620150     23.240300
     -2.957958     10.938076     10.938076     21.876152
     -2.947948     11.803315     11.803315     23.606630
     -2.937938     14.381220     14.381220     28.762441
     -2.927928     18.581422     18.581422     37.162844
     -2.917918     23.996611     23.996611     47.993223
     -2.907908     29.929810     29.929810     59.859620
     -2.897898     35.520209     35.520209     71.040417
     -2.887888     39.943619     39.943619     79.887237
     -2.877878     42.626570     42.626570     85.253141
     -2.867868     43.393912     43.393912     86.787824
     -2.857858     42.486281     42.486281     84.972562
     -2.847848     40.435278     40.435278     80.870555
     -2.837838     37.847567     37.847567     75.695135
     -2.827828     35.191500     35.191500     70.383000
     -2.817818     32.677337     32.677337     65.354673
     -2.807808     30.274589     30.274589     60.549179
     -2.797798     27.841307     27.841307     55.682614
     -2.787788     25.286147     25.286147     50.572293
     -2.777778     22.673133     22.673133     45.346266
     -2.767768     20.216596     20.216596     40.433191
     -2.757758     18.178899     18.178899     36.357798
     -2.747748     16.739607     16.739607     33.479215
     -2.737738     15.919137     15.919137     31.838274
     -2.727728     15.603584     15.603584     31.207167
     -2.717718     15.651355     15.651355     31.302709
     -2.707708     16.007460     16.007460     32.014921
     -2.697698     16.744121     16.744121     33.488243
     -2.687688     17.994187     17.994187     35.988374
     -2.677678     19.817630     19.817630     39.635261
     -2.667668     22.092135     22.092135     44.184270
     -2.657658     24.509687     24.509687     49.019374
     -2.647648     26.694290     26.694290     53.388580
     -2.637638     28.374398     28.374398     56.748796
     -2.627628     29.503930     29.503930     59.007861
     -2.617618     30.257560     30.257560     60.515120
     -2.607608     30.908210     30.908210     61.816419
     -2.597598     31.668307     31.668307     63.336614
     -2.587588     32.588819     32.588819     65.177639
     -2.577578     33.557148     33.557148     67.114296
     -2.567568     34.363472     34.363472     68.726943
     -2.557558     34.772908     34.772908     69.545816
     -2.547548     34.566944     34.566944     69.133888
     -2.537538     33.568315     33.568315     67.136631
     -2.527528     31.686296     31.686296     63.372592
     -2.517518     28.992225     28.992225     57.984451
     -2.507508     25.785569     25.785569     51.571138
     -2.497497     22.587908     22.587908     45.175815
     -2.487487     20.031264     20.031264     40.062527
     -2.477477     18.669241     18.669241     37.338481
     -2.467467     18.790853     18.790853     37.581706
     -2.457457     20.324342     20.324342     40.648684
     -2.447447     22.878792     22.878792     45.757585
     -2.437437     25.907550     25.907550     51.815101
     -2.427427     28.920623     28.920623     57.841246
     -2.417417     31.649368     31.649368     63.298737
     -2.407407     34.087646     34.087646     68.175291
     -2.397397     36.391607     36.391607     72.783215
     -2.387387     38.689553     38.689553     77.379105
     -2.377377     40.900195     40.900195     81.800389
     -2.367367     42.658121     42.658121     85.316242
     -2.357357     43.396840     43.396840     86.793681
     -2.347347     42.563910     42.563910     85.127821
     -2.337337     39.875313     39.875313     79.750625
     -2.327327     35.492147     35.492147     70.984294
     -2.317317     30.036750     30.036750     60.073500
     -2.307307     24.440689     24.440689     48.881378
     -2.297297     19.692231     19.692231     39.384462
     -2.287287     16.585466     16.585466     33.170932
     -2.277277     15.554937     15.554937     31.109874
     -2.267267     16.629178     16.629178     33.258357
     -2.257257     19.487853     19.487853     38.975705
     -2.247247     23.581102     23.581102     47.162204
     -2.237237     28.266049     28.266049     56.532099
     -2.227227     32.923332     32.923332     65.846664
     -2.217217     37.029739     37.029739     74.059477
     -2.207207     40.181564     40.181564     80.363128
     -2.197197     42.085626     42.085626     84.171252
     -2.187187     42.550662     42.550662     85.101324
     -2.177177     41.507085     41.507085     83.014170
     -2.167167     39.054259     39.054259     78.108517
     -2.157157     35.498202     35.498202     70.996403
     -2.147147     31.328177     31.328177     62.656353
     -2.137137     27.107109     27.107109     54.214218
     -2.127127     23.306673     23.306673     46.613345
     -2.117117     20.164317     20.164317     40.328635
     -2.107107     17.638910     17.638910     35.277819
     -2.097097     15.489224     15.489224     30.978449
     -2.087087     13.429649     13.429649     26.859298
     -2.077077     11.277586     11.277586     22.555171
     -2.067067      9.021527      9.021527     18.043054
     -2.057057      6.792586      6.792586     13.585173
     -2.047047      4.776051      4.776051      9.552103
     -2.037037      3.120993      3.120993      6.241986
     -2.027027      1.890356      1.890356      3.780713
     -2.017017      1.060786      1.060786      2.121571
     -2.007007      0.555028      0.555028      1.110056
     -1.996997      0.282200      0.282200      0.564400
     -1.986987      0.169028      0.169028      0.338056
     -1.976977      0.177516      0.177516      0.355032
     -1.966967      0.312414      0.312414      0.624828
     -1.956957      0.622607      0.622607      1.245214
     -1.946947      1.196494      1.196494      2.392989
     -1.936937      2.147072      2.147072      4.294144
     -1.926927      3.582230      3.582230      7.164461
     -1.916917      5.561763      5.561763     11.123526
     -1.906907      8.052748      8.052748     16.105496
     -1.896897     10.902992     10.902992     21.805983
     -1.886887     13.850983     13.850983     27.701966
     -1.876877     16.578319     16.578319     33.156637
     -1.866867     18.792653     18.792653     37.585307
     -1.856857     20.315559     20.315559     40.631119
     -1.846847     21.145687     21.145687     42.291374
     -1.836837     21.471781     21.471781     42.943561
     -1.826827     21.619685     21.619685     43.239371
     -1.816817     21.934786     21.934786     43.869571
     -1.806807     22.629551     22.629551     45.259102
     -1.796797     23.656709     23.656709     47.313418
     -1.786787     24.678624     24.678624     49.357249
     -1.776777     25.171262     25.171262     50.342525
     -1.766767     24.632731     24.632731     49.265462
     -1.756757     22.801761     22.801761     45.603523
     -1.746747     19.777783     19.777783     39.555566
     -1.736737     15.986380     15.986380     31.972760
     -1.726727     12.018939     12.018939     24.037879
     -1.716717      8.436876      8.436876     16.873751
     -1.706707      5.632899      5.632899     11.265799
     -1.696697      3.792219      3.792219      7.584438
     -1.686687      2.934860      2.934860      5.869720
     -1.676677      2.984669      2.984669      5.969337
     -1.666667      3.814596      3.814596      7.629192
     -1.656657      5.249734      5.249734     10.499467
     -1.646647      7.046027      7.046027     14.092054
     -1.636637      8.882929      8.882929     17.765858
     -1.626627     10.402294     10.402294     20.804588
