# EIG2DOS: Utility for SIESTA to obtain the electronic density of states
#  E. Artacho, Apr 1999, A. Garcia, Apr 2012
#  Nick R. Papior, Feb 2017
# ------------------------------------------
# Eigenvalues calculated from a non-polarized calculation
# Eigenvalues read from siesta.EIG
# Kpoint weights read from siesta.KP
# Using smearing parameter:   0.0500
# Using 1000 points in the energy range
# Selected bands: 1 to: 2981
# Emin, Emax in file for selected band(s):    -27.0666145    218.3359940
# Nbands, Nspin, Nk   =   2981     1     1
# E_F                 =    -4.2694 eV --> (shifted to ZERO)
# Broadening          =     0.0500 eV
#
#        E            N(up)  (=)   N(down)         Ntot
     -5.000000     37.413167     37.413167     74.826335
     -4.989990     39.986196     39.986196     79.972393
     -4.979980     42.058494     42.058494     84.116989
     -4.969970     43.197549     43.197549     86.395097
     -4.959960     43.131001     43.131001     86.262002
     -4.949950     41.818834     41.818834     83.637668
     -4.939940     39.464729     39.464729     78.929458
     -4.929930     36.482774     36.482774     72.965547
     -4.919920     33.444453     33.444453     66.888905
     -4.909910     31.018392     31.018392     62.036783
     -4.899900     29.891426     29.891426     59.782853
     -4.889890     30.645493     30.645493     61.290987
     -4.879880     33.581921     33.581921     67.163841
     -4.869870     38.534770     38.534770     77.069540
     -4.859860     44.767489     44.767489     89.534979
     -4.849850     51.053612     51.053612    102.107224
     -4.839840     55.974319     55.974319    111.948638
     -4.829830     58.348603     58.348603    116.697206
     -4.819820     57.618221     57.618221    115.236442
     -4.809810     54.010066     54.010066    108.020131
     -4.799800     48.404300     48.404300     96.808600
     -4.789790     41.984784     41.984784     83.969567
     -4.779780     35.845587     35.845587     71.691175
     -4.769770     30.719094     30.719094     61.438188
     -4.759760     26.898045     26.898045     53.796091
     -4.749750     24.317757     24.317757     48.635514
     -4.739740     22.708632     22.708632     45.417264
     -4.729730     21.736416     21.736416     43.472831
     -4.719720     21.089118     21.089118     42.178236
     -4.709710     20.509994     20.509994     41.019988
     -4.699700     19.799394     19.799394     39.598788
     -4.689690     18.815163     18.815163     37.630326
     -4.679680     17.494329     17.494329     34.988658
     -4.669670     15.899665     15.899665     31.799330
     -4.659660     14.270377     14.270377     28.540754
     -4.649650     13.040519     13.040519     26.081039
     -4.639640     12.792135     12.792135     25.584270
     -4.629630     14.131188     14.131188     28.262377
     -4.619620     17.503434     17.503434     35.006869
     -4.609610     22.996320     22.996320     45.992640
     -4.599600     30.196302     30.196302     60.392603
     -4.589590     38.177820     38.177820     76.355639
     -4.579580     45.673806     45.673806     91.347612
     -4.569570     51.411079     51.411079    102.822158
     -4.559560     54.509511     54.509511    109.019022
     -4.549550     54.789538     54.789538    109.579077
     -4.539540     52.850655     52.850655    105.701309
     -4.529530     49.874832     49.874832     99.749664
     -4.519520     47.226912     47.226912     94.453823
     -4.509510     46.006089     46.006089     92.012178
     -4.499499     46.710957     46.710957     93.421915
     -4.489489     49.121702     49.121702     98.243405
     -4.479479     52.414693     52.414693    104.829386
     -4.469469     55.447566     55.447566    110.895131
     -4.459459     57.110198     57.110198    114.220396
     -4.449449     56.632463     56.632463    113.264925
     -4.439439     53.766549     53.766549    107.533099
     -4.429429     48.809399     48.809399     97.618798
     -4.419419     42.484340     42.484340     84.968680
     -4.409409     35.740605     35.740605     71.481209
     -4.399399     29.539129     29.539129     59.078257
     -4.389389     24.673785     24.673785     49.347571
     -4.379379     21.648295     21.648295     43.296590
     -4.369369     20.612481     20.612481     41.224961
     -4.359359     21.362431     21.362431     42.724862
     -4.349349     23.412496     23.412496     46.824993
     -4.339339     26.135206     26.135206     52.270412
     -4.329329     28.937458     28.937458     57.874916
     -4.319319     31.416936     31.416936     62.833871
     -4.309309     33.443317     33.443317     66.886633
     -4.299299     35.138412     35.138412     70.276824
     -4.289289     36.769866     36.769866     73.539732
     -4.279279     38.600949     38.600949     77.201898
     -4.269269     40.745240     40.745240     81.490480
     -4.259259     43.068875     43.068875     86.137749
     -4.249249     45.175775     45.175775     90.351551
     -4.239239     46.499155     46.499155     92.998310
     -4.229229     46.491304     46.491304     92.982608
     -4.219219     44.852472     44.852472     89.704943
     -4.209209     41.697068     41.697068     83.394137
     -4.199199     37.562576     37.562576     75.125153
     -4.189189     33.237253     33.237253     66.474507
     -4.179179     29.480840     29.480840     58.961680
     -4.169169     26.773760     26.773760     53.547521
     -4.159159     25.212835     25.212835     50.425670
     -4.149149     24.588226     24.588226     49.176451
     -4.139139     24.581521     24.581521     49.163041
     -4.129129     24.971312     24.971312     49.942625
     -4.119119     25.739918     25.739918     51.479836
     -4.109109     27.029826     27.029826     54.059652
     -4.099099     28.973976     28.973976     57.947952
     -4.089089     31.491288     31.491288     62.982575
     -4.079079     34.168743     34.168743     68.337485
     -4.069069     36.320536     36.320536     72.641073
     -4.059059     37.225391     37.225391     74.450783
     -4.049049     36.437431     36.437431     72.874861
     -4.039039     34.010288     34.010288     68.020577
     -4.029029     30.512364     30.512364     61.024727
     -4.019019     26.825585     26.825585     53.651171
     -4.009009     23.837851     23.837851     47.675702
     -3.998999     22.184664     22.184664     44.369328
     -3.988989     22.145135     22.145135     44.290271
     -3.978979     23.694415     23.694415     47.388831
     -3.968969     26.631890     26.631890     53.263780
     -3.958959     30.691036     30.691036     61.382073
     -3.948949     35.586762     35.586762     71.173524
     -3.938939     41.020099     41.020099     82.040197
     -3.928929     46.687333     46.687333     93.374665
     -3.918919     52.316604     52.316604    104.633209
     -3.908909     57.708634     57.708634    115.417268
     -3.898899     62.734454     62.734454    125.468907
     -3.888889     67.265193     67.265193    134.530386
     -3.878879     71.061992     71.061992    142.123983
     -3.868869     73.698245     73.698245    147.396490
     -3.858859     74.587282     74.587282    149.174563
     -3.848849     73.140067     73.140067    146.280134
     -3.838839     69.004806     69.004806    138.009611
     -3.828829     62.284617     62.284617    124.569234
     -3.818819     53.624815     53.624815    107.249629
     -3.808809     44.113766     44.113766     88.227532
     -3.798799     35.024043     35.024043     70.048087
     -3.788789     27.489121     27.489121     54.978242
     -3.778779     22.231236     22.231236     44.462472
     -3.768769     19.424576     19.424576     38.849152
     -3.758759     18.719302     18.719302     37.438605
     -3.748749     19.398181     19.398181     38.796361
     -3.738739     20.607678     20.607678     41.215355
     -3.728729     21.599432     21.599432     43.198863
     -3.718719     21.926058     21.926058     43.852117
     -3.708709     21.548641     21.548641     43.097283
     -3.698699     20.829837     20.829837     41.659674
     -3.688689     20.408635     20.408635     40.817271
     -3.678679     20.982052     20.982052     41.964105
     -3.668669     23.051380     23.051380     46.102759
     -3.658659     26.714148     26.714148     53.428296
     -3.648649     31.581289     31.581289     63.162579
     -3.638639     36.861413     36.861413     73.722827
     -3.628629     41.588475     41.588475     83.176950
     -3.618619     44.905406     44.905406     89.810811
     -3.608609     46.291955     46.291955     92.583909
     -3.598599     45.657691     45.657691     91.315382
     -3.588589     43.290940     43.290940     86.581881
     -3.578579     39.716174     39.716174     79.432349
     -3.568569     35.530824     35.530824     71.061649
     -3.558559     31.269683     31.269683     62.539366
     -3.548549     27.312816     27.312816     54.625631
     -3.538539     23.839176     23.839176     47.678352
     -3.528529     20.831931     20.831931     41.663862
     -3.518519     18.140788     18.140788     36.281577
     -3.508509     15.587526     15.587526     31.175051
     -3.498498     13.074927     13.074927     26.149854
     -3.488488     10.651198     10.651198     21.302395
     -3.478478      8.502756      8.502756     17.005512
     -3.468468      6.884246      6.884246     13.768492
     -3.458458      6.020664      6.020664     12.041328
     -3.448448      6.019754      6.019754     12.039509
     -3.438438      6.820521      6.820521     13.641042
     -3.428428      8.190690      8.190690     16.381380
     -3.418418      9.777883      9.777883     19.555766
     -3.408408     11.209357     11.209357     22.418714
     -3.398398     12.217016     12.217016     24.434033
     -3.388388     12.744523     12.744523     25.489046
     -3.378378     12.988755     12.988755     25.977511
     -3.368368     13.349876     13.349876     26.699752
     -3.358358     14.304333     14.304333     28.608667
     -3.348348     16.248521     16.248521     32.497041
     -3.338338     19.366501     19.366501     38.733003
     -3.328328     23.553858     23.553858     47.107716
     -3.318318     28.403057     28.403057     56.806114
     -3.308308     33.245783     33.245783     66.491565
     -3.298298     37.254844     37.254844     74.509689
     -3.288288     39.610142     39.610142     79.220284
     -3.278278     39.708876     39.708876     79.417752
     -3.268268     37.357670     37.357670     74.715339
     -3.258258     32.860725     32.860725     65.721449
     -3.248248     26.946898     26.946898     53.893796
     -3.238238     20.553272     20.553272     41.106543
     -3.228228     14.556047     14.556047     29.112093
     -3.218218      9.561230      9.561230     19.122460
     -3.208208      5.826069      5.826069     11.652137
     -3.198198      3.310829      3.310829      6.621659
     -3.188188      1.806533      1.806533      3.613066
     -3.178178      1.072618      1.072618      2.145235
     -3.168168      0.940835      0.940835      1.881670
     -3.158158      1.371915      1.371915      2.743829
     -3.148148      2.468838      2.468838      4.937676
     -3.138138      4.450817      4.450817      8.901635
     -3.128128      7.585517      7.585517     15.171033
     -3.118118     12.078065     12.078065     24.156130
     -3.108108     17.932429     17.932429     35.864858
     -3.098098     24.828924     24.828924     49.657848
     -3.088088     32.082497     32.082497     64.164993
     -3.078078     38.736542     38.736542     77.473084
     -3.068068     43.795766     43.795766     87.591532
     -3.058058     46.526697     46.526697     93.053393
     -3.048048     46.699678     46.699678     93.399357
     -3.038038     44.654827     44.654827     89.309655
     -3.028028     41.153969     41.153969     82.307938
     -3.018018     37.088763     37.088763     74.177526
     -3.008008     33.185794     33.185794     66.371589
     -2.997998     29.839885     29.839885     59.679769
     -2.987988     27.128709     27.128709     54.257417
     -2.977978     24.967177     24.967177     49.934355
     -2.967968     23.301162     23.301162     46.602324
     -2.957958     22.237517     22.237517     44.475034
     -2.947948     22.049314     22.049314     44.098628
     -2.937938     23.056383     23.056383     46.112765
     -2.927928     25.437740     25.437740     50.875480
     -2.917918     29.065381     29.065381     58.130763
     -2.907908     33.444916     33.444916     66.889832
     -2.897898     37.805695     37.805695     75.611390
     -2.887888     41.316719     41.316719     82.633439
     -2.877878     43.344435     43.344435     86.688870
     -2.867868     43.644608     43.644608     87.289217
     -2.857858     42.406767     42.406767     84.813533
     -2.847848     40.135287     40.135287     80.270575
     -2.837838     37.425024     37.425024     74.850048
     -2.827828     34.735373     34.735373     69.470746
     -2.817818     32.262138     32.262138     64.524277
     -2.807808     29.953813     29.953813     59.907626
     -2.797798     27.645096     27.645096     55.290192
     -2.787788     25.223870     25.223870     50.447739
     -2.777778     22.737911     22.737911     45.475823
     -2.767768     20.388612     20.388612     40.777223
     -2.757758     18.427259     18.427259     36.854517
     -2.747748     17.025797     17.025797     34.051595
     -2.737738     16.205448     16.205448     32.410896
     -2.727728     15.866086     15.866086     31.732172
     -2.717718     15.891515     15.891515     31.783030
     -2.707708     16.253821     16.253821     32.507642
     -2.697698     17.039113     17.039113     34.078227
     -2.687688     18.370115     18.370115     36.740230
     -2.677678     20.274627     20.274627     40.549254
     -2.667668     22.592569     22.592569     45.185139
     -2.657658     24.995251     24.995251     49.990502
     -2.647648     27.117847     27.117847     54.235694
     -2.637638     28.727930     28.727930     57.455861
     -2.627628     29.824721     29.824721     59.649443
     -2.617618     30.607730     30.607730     61.215461
     -2.607608     31.339417     31.339417     62.678833
     -2.597598     32.192011     32.192011     64.384022
     -2.587588     33.167124     33.167124     66.334248
     -2.577578     34.114679     34.114679     68.229359
     -2.567568     34.809019     34.809019     69.618037
     -2.557558     35.019053     35.019053     70.038106
     -2.547548     34.544656     34.544656     69.089312
     -2.537538     33.241167     33.241167     66.482335
     -2.527528     31.067382     31.067382     62.134763
     -2.517518     28.157848     28.157848     56.315695
     -2.507508     24.873143     24.873143     49.746286
     -2.497497     21.769417     21.769417     43.538834
     -2.487487     19.466711     19.466711     38.933421
     -2.477477     18.457583     18.457583     36.915167
     -2.467467     18.939677     18.939677     37.879355
     -2.457457     20.751567     20.751567     41.503134
     -2.447447     23.445009     23.445009     46.890017
     -2.437437     26.464287     26.464287     52.928573
     -2.427427     29.354501     29.354501     58.709003
     -2.417417     31.906553     31.906553     63.813106
     -2.407407     34.173656     34.173656     68.347312
     -2.397397     36.351869     36.351869     72.703738
     -2.387387     38.580985     38.580985     77.161969
     -2.377377     40.763722     40.763722     81.527443
     -2.367367     42.499858     42.499858     84.999716
     -2.357357     43.184117     43.184117     86.368234
     -2.347347     42.239407     42.239407     84.478815
     -2.337337     39.385747     39.385747     78.771495
     -2.327327     34.819223     34.819223     69.638445
     -2.317317     29.214339     29.214339     58.428678
     -2.307307     23.548522     23.548522     47.097044
     -2.297297     18.829786     18.829786     37.659572
     -2.287287     15.840844     15.840844     31.681688
     -2.277277     14.984544     14.984544     29.969087
     -2.267267     16.255337     16.255337     32.510674
     -2.257257     19.310121     19.310121     38.620243
     -2.247247     23.590555     23.590555     47.181110
     -2.237237     28.452724     28.452724     56.905449
     -2.227227     33.273163     33.273163     66.546326
     -2.217217     37.514322     37.514322     75.028645
     -2.207207     40.748643     40.748643     81.497286
     -2.197197     42.658517     42.658517     85.317033
     -2.187187     43.040874     43.040874     86.081749
     -2.177177     41.837471     41.837471     83.674942
     -2.167167     39.183300     39.183300     78.366600
     -2.157157     35.433370     35.433370     70.866740
     -2.147147     31.120334     31.120334     62.240668
     -2.137137     26.827382     26.827382     53.654763
     -2.127127     23.016949     23.016949     46.033899
     -2.117117     19.896157     19.896157     39.792314
     -2.107107     17.390501     17.390501     34.781003
     -2.097097     15.239348     15.239348     30.478696
     -2.087087     13.158371     13.158371     26.316743
     -2.077077     10.981364     10.981364     21.962728
     -2.067067      8.715864      8.715864     17.431728
     -2.057057      6.503718      6.503718     13.007435
     -2.047047      4.528720      4.528720      9.057440
     -2.037037      2.929494      2.929494      5.858989
     -2.027027      1.756189      1.756189      3.512379
     -2.017017      0.975917      0.975917      1.951834
     -2.007007      0.507596      0.507596      1.015193
     -1.996997      0.261835      0.261835      0.523670
     -1.986987      0.170570      0.170570      0.341139
     -1.976977      0.203264      0.203264      0.406527
     -1.966967      0.373290      0.373290      0.746581
     -1.956957      0.737915      0.737915      1.475829
     -1.946947      1.390971      1.390971      2.781941
     -1.936937      2.443803      2.443803      4.887607
     -1.926927      3.991438      3.991438      7.982875
     -1.916917      6.068397      6.068397     12.136793
     -1.906907      8.608580      8.608580     17.217160
     -1.896897     11.428835     11.428835     22.857670
     -1.886887     14.250161     14.250161     28.500323
     -1.876877     16.754927     16.754927     33.509854
     -1.866867     18.662142     18.662142     37.324284
     -1.856857     19.795894     19.795894     39.591788
     -1.846847     20.126744     20.126744     40.253488
     -1.836837     19.775470     19.775470     39.550940
     -1.826827     18.976449     18.976449     37.952898
     -1.816817     18.005654     18.005654     36.011309
     -1.806807     17.091417     17.091417     34.182833
     -1.796797     16.342113     16.342113     32.684227
     -1.786787     15.728919     15.728919     31.457838
     -1.776777     15.139862     15.139862     30.279723
     -1.766767     14.479570     14.479570     28.959140
     -1.756757     13.754981     13.754981     27.509962
     -1.746747     13.089767     13.089767     26.179533
     -1.736737     12.653521     12.653521     25.307042
     -1.726727     12.548630     12.548630     25.097261
     -1.716717     12.728902     12.728902     25.457804
     -1.706707     13.006765     13.006765     26.013529
     -1.696697     13.150474     13.150474     26.300948
     -1.686687     13.014921     13.014921     26.029841
     -1.676677     12.626392     12.626392     25.252785
     -1.666667     12.167755     12.167755     24.335511
     -1.656657     11.869636     11.869636     23.739272
     -1.646647     11.869232     11.869232     23.738465
     -1.636637     12.118028     12.118028     24.236055
     -1.626627     12.392399     12.392399     24.784799
