# EIG2DOS: Utility for SIESTA to obtain the electronic density of states
#  E. Artacho, Apr 1999, A. Garcia, Apr 2012
#  Nick R. Papior, Feb 2017
# ------------------------------------------
# Eigenvalues calculated from a non-polarized calculation
# Eigenvalues read from siesta.EIG
# Kpoint weights read from siesta.KP
# Using smearing parameter:   0.0500
# Using 1000 points in the energy range
# Selected bands: 1 to: 2981
# Emin, Emax in file for selected band(s):    -27.0842527    218.3256290
# Nbands, Nspin, Nk   =   2981     1     1
# E_F                 =    -4.2822 eV --> (shifted to ZERO)
# Broadening          =     0.0500 eV
#
#        E            N(up)  (=)   N(down)         Ntot
     -5.000000     40.300360     40.300360     80.600720
     -4.989990     41.970070     41.970070     83.940140
     -4.979980     43.245658     43.245658     86.491316
     -4.969970     43.831673     43.831673     87.663345
     -4.959960     43.478579     43.478579     86.957158
     -4.949950     42.088625     42.088625     84.177250
     -4.939940     39.771954     39.771954     79.543908
     -4.929930     36.849786     36.849786     73.699572
     -4.919920     33.822434     33.822434     67.644869
     -4.909910     31.317324     31.317324     62.634647
     -4.899900     30.012348     30.012348     60.024695
     -4.889890     30.513689     30.513689     61.027378
     -4.879880     33.178490     33.178490     66.356981
     -4.869870     37.918294     37.918294     75.836588
     -4.859860     44.073514     44.073514     88.147029
     -4.849850     50.464059     50.464059    100.928118
     -4.839840     55.662415     55.662415    111.324830
     -4.829830     58.420038     58.420038    116.840077
     -4.819820     58.074906     58.074906    116.149813
     -4.809810     54.753365     54.753365    109.506730
     -4.799800     49.274997     49.274997     98.549994
     -4.789790     42.819638     42.819638     85.639275
     -4.779780     36.525583     36.525583     73.051165
     -4.769770     31.193254     31.193254     62.386508
     -4.759760     27.180945     27.180945     54.361890
     -4.749750     24.469213     24.469213     48.938427
     -4.739740     22.806645     22.806645     45.613291
     -4.729730     21.851896     21.851896     43.703793
     -4.719720     21.267667     21.267667     42.535334
     -4.709710     20.763751     20.763751     41.527503
     -4.699700     20.109613     20.109613     40.219225
     -4.689690     19.142789     19.142789     38.285579
     -4.679680     17.792726     17.792726     35.585452
     -4.669670     16.123079     16.123079     32.246159
     -4.659660     14.374849     14.374849     28.749698
     -4.649650     12.979147     12.979147     25.958294
     -4.639640     12.511195     12.511195     25.022391
     -4.629630     13.575032     13.575032     27.150065
     -4.619620     16.632979     16.632979     33.265957
     -4.609610     21.818452     21.818452     43.636905
     -4.599600     28.792050     28.792050     57.584100
     -4.589590     36.710932     36.710932     73.421863
     -4.579580     44.364447     44.364447     88.728895
     -4.569570     50.473764     50.473764    100.947529
     -4.559560     54.074246     54.074246    108.148493
     -4.549550     54.838498     54.838498    109.676997
     -4.539540     53.199682     53.199682    106.399364
     -4.529530     50.210408     50.210408    100.420816
     -4.519520     47.186747     47.186747     94.373494
     -4.509510     45.278461     45.278461     90.556922
     -4.499499     45.128176     45.128176     90.256352
     -4.489489     46.728992     46.728992     93.457983
     -4.479479     49.497891     49.497891     98.995781
     -4.469469     52.501853     52.501853    105.003705
     -4.459459     54.738940     54.738940    109.477879
     -4.449449     55.389366     55.389366    110.778732
     -4.439439     53.988194     53.988194    107.976387
     -4.429429     50.504871     50.504871    101.009742
     -4.419419     45.333105     45.333105     90.666211
     -4.409409     39.201620     39.201620     78.403241
     -4.399399     33.021990     33.021990     66.043979
     -4.389389     27.698960     27.698960     55.397919
     -4.379379     23.939842     23.939842     47.879685
     -4.369369     22.107156     22.107156     44.214312
     -4.359359     22.156177     22.156177     44.312354
     -4.349349     23.681247     23.681247     47.362495
     -4.339339     26.061984     26.061984     52.123967
     -4.329329     28.663509     28.663509     57.327018
     -4.319319     31.021691     31.021691     62.043383
     -4.309309     32.949978     32.949978     65.899955
     -4.299299     34.537613     34.537613     69.075225
     -4.289289     36.051497     36.051497     72.102994
     -4.279279     37.783559     37.783559     75.567117
     -4.269269     39.893856     39.893856     79.787712
     -4.259259     42.295226     42.295226     84.590453
     -4.249249     44.619064     44.619064     89.238127
     -4.239239     46.290754     46.290754     92.581507
     -4.229229     46.713046     46.713046     93.426091
     -4.219219     45.503486     45.503486     91.006973
     -4.209209     42.684349     42.684349     85.368699
     -4.199199     38.722527     38.722527     77.445054
     -4.189189     34.381742     34.381742     68.763485
     -4.179179     30.449330     30.449330     60.898659
     -4.169169     27.470425     27.470425     54.940850
     -4.159159     25.615694     25.615694     51.231387
     -4.149149     24.730829     24.730829     49.461658
     -4.139139     24.519188     24.519188     49.038375
     -4.129129     24.748824     24.748824     49.497648
     -4.119119     25.375563     25.375563     50.751125
     -4.109109     26.523153     26.523153     53.046306
     -4.099099     28.333409     28.333409     56.666818
     -4.089089     30.766300     30.766300     61.532600
     -4.079079     33.465591     33.465591     66.931182
     -4.069069     35.786198     35.786198     71.572395
     -4.059059     37.001172     37.001172     74.002344
     -4.049049     36.602810     36.602810     73.205620
     -4.039039     34.546023     34.546023     69.092046
     -4.029029     31.302697     31.302697     62.605395
     -4.019019     27.697828     27.697828     55.395657
     -4.009009     24.618000     24.618000     49.236000
     -3.998999     22.742589     22.742589     45.485178
     -3.988989     22.413599     22.413599     44.827197
     -3.978979     23.663249     23.663249     47.326498
     -3.968969     26.329973     26.329973     52.659946
     -3.958959     30.168703     30.168703     60.337407
     -3.948949     34.903566     34.903566     69.807132
     -3.938939     40.235599     40.235599     80.471199
     -3.928929     45.851644     45.851644     91.703287
     -3.918919     51.462157     51.462157    102.924314
     -3.908909     56.849350     56.849350    113.698700
     -3.898899     61.877621     61.877621    123.755242
     -3.888889     66.433926     66.433926    132.867852
     -3.878879     70.316937     70.316937    140.633874
     -3.868869     73.143279     73.143279    146.286557
     -3.858859     74.349529     74.349529    148.699057
     -3.848849     73.327802     73.327802    146.655604
     -3.838839     69.660185     69.660185    139.320371
     -3.828829     63.353482     63.353482    126.706963
     -3.818819     54.959178     54.959178    109.918356
     -3.808809     45.507707     45.507707     91.015414
     -3.798799     36.268941     36.268941     72.537883
     -3.788789     28.427339     28.427339     56.854677
     -3.778779     22.790573     22.790573     45.581146
     -3.768769     19.625406     19.625406     39.250813
     -3.758759     18.656354     18.656354     37.312708
     -3.748749     19.205453     19.205453     38.410905
     -3.738739     20.417369     20.417369     40.834738
     -3.728729     21.505327     21.505327     43.010653
     -3.718719     21.959817     21.959817     43.919635
     -3.708709     21.674397     21.674397     43.348793
     -3.698699     20.958517     20.958517     41.917034
     -3.688689     20.428731     20.428731     40.857462
     -3.678679     20.798741     20.798741     41.597481
     -3.668669     22.622221     22.622221     45.244443
     -3.658659     26.068929     26.068929     52.137858
     -3.648649     30.817757     30.817757     61.635515
     -3.638639     36.117503     36.117503     72.235007
     -3.628629     41.001675     41.001675     82.003350
     -3.618619     44.575524     44.575524     89.151047
     -3.608609     46.260865     46.260865     92.521729
     -3.598599     45.910090     45.910090     91.820181
     -3.588589     43.770093     43.770093     87.540186
     -3.578579     40.344372     40.344372     80.688745
     -3.568569     36.227145     36.227145     72.454289
     -3.558559     31.963149     31.963149     63.926297
     -3.548549     27.951960     27.951960     55.903921
     -3.538539     24.397816     24.397816     48.795631
     -3.528529     21.308841     21.308841     42.617682
     -3.518519     18.551685     18.551685     37.103370
     -3.508509     15.951550     15.951550     31.903100
     -3.498498     13.401505     13.401505     26.803010
     -3.488488     10.933298     10.933298     21.866596
     -3.478478      8.719061      8.719061     17.438123
     -3.468468      7.008348      7.008348     14.016695
     -3.458458      6.032979      6.032979     12.065957
     -3.448448      5.917969      5.917969     11.835938
     -3.438438      6.625489      6.625489     13.250979
     -3.428428      7.945567      7.945567     15.891135
     -3.418418      9.539181      9.539181     19.078362
     -3.408408     11.030807     11.030807     22.061613
     -3.398398     12.130559     12.130559     24.261117
     -3.388388     12.745399     12.745399     25.490797
     -3.378378     13.031092     13.031092     26.062184
     -3.368368     13.355125     13.355125     26.710250
     -3.358358     14.179945     14.179945     28.359890
     -3.348348     15.911695     15.911695     31.823389
     -3.338338     18.768439     18.768439     37.536879
     -3.328328     22.701241     22.701241     45.402482
     -3.318318     27.372380     27.372380     54.744760
     -3.308308     32.183089     32.183089     64.366178
     -3.298298     36.352897     36.352897     72.705794
     -3.288288     39.061940     39.061940     78.123881
     -3.278278     39.649602     39.649602     79.299204
     -3.268268     37.818311     37.818311     75.636621
     -3.258258     33.755852     33.755852     67.511704
     -3.248248     28.104014     28.104014     56.208027
     -3.238238     21.770378     21.770378     43.540756
     -3.228228     15.661081     15.661081     31.322162
     -3.218218     10.449541     10.449541     20.899081
     -3.208208      6.466688      6.466688     12.933377
     -3.198198      3.728256      3.728256      7.456513
     -3.188188      2.052916      2.052916      4.105832
     -3.178178      1.203761      1.203761      2.407522
     -3.168168      1.002548      1.002548      2.005096
     -3.158158      1.396557      1.396557      2.793115
     -3.148148      2.478325      2.478325      4.956650
     -3.138138      4.461769      4.461769      8.923538
     -3.128128      7.613048      7.613048     15.226097
     -3.118118     12.135948     12.135948     24.271895
     -3.108108     18.028984     18.028984     36.057968
     -3.098098     24.960351     24.960351     49.920701
     -3.088088     32.227779     32.227779     64.455558
     -3.078078     38.858987     38.858987     77.717975
     -3.068068     43.854014     43.854014     87.708028
     -3.058058     46.492886     46.492886     92.985771
     -3.048048     46.576974     46.576974     93.153948
     -3.038038     44.484415     44.484415     88.968830
     -3.028028     41.005011     41.005011     82.010023
     -3.018018     37.032689     37.032689     74.065379
     -3.008008     33.264696     33.264696     66.529393
     -2.997998     30.043109     30.043109     60.086217
     -2.987988     27.389137     27.389137     54.778275
     -2.977978     25.179955     25.179955     50.359910
     -2.967968     23.357125     23.357125     46.714251
     -2.957958     22.057194     22.057194     44.114388
     -2.947948     21.604592     21.604592     43.209184
     -2.937938     22.374433     22.374433     44.748865
     -2.927928     24.590260     24.590260     49.180520
     -2.917918     28.150534     28.150534     56.301068
     -2.907908     32.568319     32.568319     65.136637
     -2.897898     37.063348     37.063348     74.126695
     -2.887888     40.780515     40.780515     81.561030
     -2.877878     43.051254     43.051254     86.102509
     -2.867868     43.591444     43.591444     87.182889
     -2.857858     42.554473     42.554473     85.108946
     -2.847848     40.421291     40.421291     80.842581
     -2.837838     37.781573     37.781573     75.563146
     -2.827828     35.106847     35.106847     70.213694
     -2.817818     32.614718     32.614718     65.229437
     -2.807808     30.274230     30.274230     60.548459
     -2.797798     27.930696     27.930696     55.861392
     -2.787788     25.470846     25.470846     50.941691
     -2.777778     22.935133     22.935133     45.870267
     -2.767768     20.520367     20.520367     41.040734
     -2.757758     18.481707     18.481707     36.963413
     -2.747748     17.001424     17.001424     34.002849
     -2.737738     16.108748     16.108748     32.217497
     -2.727728     15.700185     15.700185     31.400371
     -2.717718     15.643500     15.643500     31.287001
     -2.707708     15.892283     15.892283     31.784566
     -2.697698     16.528916     16.528916     33.057831
     -2.687688     17.700142     17.700142     35.400284
     -2.677678     19.482974     19.482974     38.965948
     -2.667668     21.770811     21.770811     43.541622
     -2.657658     24.263062     24.263062     48.526125
     -2.647648     26.577035     26.577035     53.154069
     -2.637638     28.419484     28.419484     56.838968
     -2.627628     29.713070     29.713070     59.426140
     -2.617618     30.601100     30.601100     61.202200
     -2.607608     31.333986     31.333986     62.667971
     -2.597598     32.115220     32.115220     64.230439
     -2.587588     33.000061     33.000061     66.000122
     -2.577578     33.889741     33.889741     67.779481
     -2.567568     34.593175     34.593175     69.186350
     -2.557558     34.895002     34.895002     69.790005
     -2.547548     34.593777     34.593777     69.187554
     -2.537538     33.524566     33.524566     67.049131
     -2.527528     31.603042     31.603042     63.206085
     -2.517518     28.900952     28.900952     57.801905
     -2.507508     25.712891     25.712891     51.425783
     -2.497497     22.551337     22.551337     45.102673
     -2.487487     20.036195     20.036195     40.072389
     -2.477477     18.707679     18.707679     37.415358
     -2.467467     18.842731     18.842731     37.685462
     -2.457457     20.361950     20.361950     40.723900
     -2.447447     22.873668     22.873668     45.747335
     -2.437437     25.837855     25.837855     51.675710
     -2.427427     28.776718     28.776718     57.553436
     -2.417417     31.436372     31.436372     62.872743
     -2.407407     33.825354     33.825354     67.650709
     -2.397397     36.112697     36.112697     72.225394
     -2.387387     38.435875     38.435875     76.871750
     -2.377377     40.715764     40.715764     81.431529
     -2.367367     42.578161     42.578161     85.156323
     -2.357357     43.435487     43.435487     86.870974
     -2.347347     42.706337     42.706337     85.412675
     -2.337337     40.079675     40.079675     80.159349
     -2.327327     35.701983     35.701983     71.403966
     -2.317317     30.198450     30.198450     60.396901
     -2.307307     24.517886     24.517886     49.035772
     -2.297297     19.671527     19.671527     39.343055
     -2.287287     16.473478     16.473478     32.946956
     -2.277277     15.370893     15.370893     30.741785
     -2.267267     16.397838     16.397838     32.795677
     -2.257257     19.235101     19.235101     38.470202
     -2.247247     23.331934     23.331934     46.663869
     -2.237237     28.043611     28.043611     56.087222
     -2.227227     32.748063     32.748063     65.496125
     -2.217217     36.918309     36.918309     73.836617
     -2.207207     40.145510     40.145510     80.291020
     -2.197197     42.129615     42.129615     84.259231
     -2.187187     42.670689     42.670689     85.341378
     -2.177177     41.689528     41.689528     83.379056
     -2.167167     39.277002     39.277002     78.554004
     -2.157157     35.734361     35.734361     71.468723
     -2.147147     31.551673     31.551673     63.103346
     -2.137137     27.298183     27.298183     54.596365
     -2.127127     23.455294     23.455294     46.910588
     -2.117117     20.270382     20.270382     40.540765
     -2.107107     17.709571     17.709571     35.419142
     -2.097097     15.534829     15.534829     31.069658
     -2.087087     13.460016     13.460016     26.920031
     -2.077077     11.299784     11.299784     22.599567
     -2.067067      9.039407      9.039407     18.078814
     -2.057057      6.807544      6.807544     13.615088
     -2.047047      4.788228      4.788228      9.576456
     -2.037037      3.130274      3.130274      6.260548
     -2.027027      1.896890      1.896890      3.793781
     -2.017017      1.065088      1.065088      2.130175
     -2.007007      0.557896      0.557896      1.115793
     -1.996997      0.284673      0.284673      0.569347
     -1.986987      0.172515      0.172515      0.345030
     -1.976977      0.184111      0.184111      0.368222
     -1.966967      0.325268      0.325268      0.650536
     -1.956957      0.646068      0.646068      1.292137
     -1.946947      1.235589      1.235589      2.471177
     -1.936937      2.205945      2.205945      4.411890
     -1.926927      3.661538      3.661538      7.323075
     -1.916917      5.655662      5.655662     11.311323
     -1.906907      8.146727      8.146727     16.293455
     -1.896897     10.973521     10.973521     21.947042
     -1.886887     13.866386     13.866386     27.732772
     -1.876877     16.497755     16.497755     32.995509
     -1.866867     18.558240     18.558240     37.116480
     -1.856857     19.833828     19.833828     39.667656
     -1.846847     20.260315     20.260315     40.520629
     -1.836837     19.939017     19.939017     39.878034
     -1.826827     19.106893     19.106893     38.213785
     -1.816817     18.064284     18.064284     36.128568
     -1.806807     17.078526     17.078526     34.157053
     -1.796797     16.299073     16.299073     32.598146
     -1.786787     15.725654     15.725654     31.451309
     -1.776777     15.251021     15.251021     30.502042
     -1.766767     14.757860     14.757860     29.515720
     -1.756757     14.211872     14.211872     28.423745
     -1.746747     13.690328     13.690328     27.380657
     -1.736737     13.325598     13.325598     26.651196
     -1.726727     13.201146     13.201146     26.402291
     -1.716717     13.272485     13.272485     26.544971
     -1.706707     13.371521     13.371521     26.743043
     -1.696697     13.297977     13.297977     26.595955
     -1.686687     12.942970     12.942970     25.885939
     -1.676677     12.366262     12.366262     24.732524
     -1.666667     11.775348     11.775348     23.550696
     -1.656657     11.413573     11.413573     22.827146
     -1.646647     11.419105     11.419105     22.838211
     -1.636637     11.734481     11.734481     23.468962
     -1.626627     12.118974     12.118974     24.237947
