# EIG2DOS: Utility for SIESTA to obtain the electronic density of states
#  E. Artacho, Apr 1999, A. Garcia, Apr 2012
#  Nick R. Papior, Feb 2017
# ------------------------------------------
# Eigenvalues calculated from a non-polarized calculation
# Eigenvalues read from siesta.EIG
# Kpoint weights read from siesta.KP
# Using smearing parameter:   0.0500
# Using 1000 points in the energy range
# Selected bands: 1 to: 2981
# Emin, Emax in file for selected band(s):    -27.2901637    218.3769310
# Nbands, Nspin, Nk   =   2981     1     1
# E_F                 =    -4.2249 eV --> (shifted to ZERO)
# Broadening          =     0.0500 eV
#
#        E            N(up)  (=)   N(down)         Ntot
     -5.000000     31.159743     31.159743     62.319485
     -4.989990     35.742045     35.742045     71.484090
     -4.979980     40.150771     40.150771     80.301543
     -4.969970     43.691492     43.691492     87.382984
     -4.959960     45.721638     45.721638     91.443276
     -4.949950     45.860347     45.860347     91.720694
     -4.939940     44.125128     44.125128     88.250257
     -4.929930     40.948552     40.948552     81.897104
     -4.919920     37.085156     37.085156     74.170313
     -4.909910     33.456625     33.456625     66.913250
     -4.899900     30.981435     30.981435     61.962871
     -4.889890     30.407186     30.407186     60.814373
     -4.879880     32.145671     32.145671     64.291341
     -4.869870     36.127017     36.127017     72.254034
     -4.859860     41.726893     41.726893     83.453785
     -4.849850     47.837386     47.837386     95.674771
     -4.839840     53.113642     53.113642    106.227285
     -4.829830     56.343254     56.343254    112.686508
     -4.819820     56.805337     56.805337    113.610674
     -4.809810     54.469477     54.469477    108.938954
     -4.799800     49.951515     49.951515     99.903029
     -4.789790     44.257849     44.257849     88.515697
     -4.779780     38.444203     38.444203     76.888406
     -4.769770     33.335234     33.335234     66.670468
     -4.759760     29.395147     29.395147     58.790294
     -4.749750     26.750924     26.750924     53.501847
     -4.739740     25.303468     25.303468     50.606936
     -4.729730     24.845770     24.845770     49.691540
     -4.719720     25.133281     25.133281     50.266562
     -4.709710     25.895192     25.895192     51.790385
     -4.699700     26.814272     26.814272     53.628544
     -4.689690     27.523465     27.523465     55.046930
     -4.679680     27.660464     27.660464     55.320928
     -4.669670     26.985893     26.985893     53.971786
     -4.659660     25.522311     25.522311     51.044622
     -4.649650     23.639549     23.639549     47.279098
     -4.639640     22.020969     22.020969     44.041938
     -4.629630     21.493773     21.493773     42.987545
     -4.619620     22.768256     22.768256     45.536513
     -4.609610     26.174630     26.174630     52.349259
     -4.599600     31.494639     31.494639     62.989277
     -4.589590     37.958874     37.958874     75.917747
     -4.579580     44.428684     44.428684     88.857368
     -4.569570     49.717573     49.717573     99.435146
     -4.559560     52.950137     52.950137    105.900274
     -4.549550     53.830973     53.830973    107.661946
     -4.539540     52.719306     52.719306    105.438612
     -4.529530     50.474884     50.474884    100.949768
     -4.519520     48.130708     48.130708     96.261416
     -4.509510     46.518970     46.518970     93.037940
     -4.499499     45.995251     45.995251     91.990501
     -4.489489     46.362493     46.362493     92.724987
     -4.479479     47.009428     47.009428     94.018855
     -4.469469     47.188195     47.188195     94.376389
     -4.459459     46.305108     46.305108     92.610217
     -4.449449     44.108960     44.108960     88.217920
     -4.439439     40.723361     40.723361     81.446721
     -4.429429     36.547612     36.547612     73.095224
     -4.419419     32.102945     32.102945     64.205889
     -4.409409     27.903185     27.903185     55.806371
     -4.399399     24.387206     24.387206     48.774411
     -4.389389     21.897487     21.897487     43.794974
     -4.379379     20.662630     20.662630     41.325261
     -4.369369     20.757884     20.757884     41.515769
     -4.359359     22.059434     22.059434     44.118868
     -4.349349     24.237998     24.237998     48.475996
     -4.339339     26.828245     26.828245     53.656491
     -4.329329     29.367222     29.367222     58.734444
     -4.319319     31.548664     31.548664     63.097328
     -4.309309     33.322784     33.322784     66.645567
     -4.299299     34.892221     34.892221     69.784443
     -4.289289     36.598940     36.598940     73.197880
     -4.279279     38.740437     38.740437     77.480875
     -4.269269     41.382199     41.382199     82.764398
     -4.259259     44.242491     44.242491     88.484981
     -4.249249     46.711894     46.711894     93.423788
     -4.239239     48.027565     48.027565     96.055131
     -4.229229     47.555070     47.555070     95.110140
     -4.219219     45.065919     45.065919     90.131837
     -4.209209     40.879107     40.879107     81.758213
     -4.199199     35.786493     35.786493     71.572985
     -4.189189     30.786037     30.786037     61.572074
     -4.179179     26.744603     26.744603     53.489205
     -4.169169     24.143523     24.143523     48.287046
     -4.159159     23.008826     23.008826     46.017652
     -4.149149     23.029706     23.029706     46.059411
     -4.139139     23.782281     23.782281     47.564562
     -4.129129     24.941623     24.941623     49.883245
     -4.119119     26.387591     26.387591     52.775181
     -4.109109     28.167538     28.167538     56.335077
     -4.099099     30.345214     30.345214     60.690429
     -4.089089     32.819101     32.819101     65.638203
     -4.079079     35.215528     35.215528     70.431057
     -4.069069     36.935348     36.935348     73.870695
     -4.059059     37.358214     37.358214     74.716429
     -4.049049     36.117823     36.117823     72.235646
     -4.039039     33.309232     33.309232     66.618463
     -4.029029     29.515244     29.515244     59.030489
     -4.019019     25.632953     25.632953     51.265907
     -4.009009     22.586278     22.586278     45.172557
     -3.998999     21.060780     21.060780     42.121560
     -3.988989     21.367183     21.367183     42.734365
     -3.978979     23.457871     23.457871     46.915743
     -3.968969     27.043035     27.043035     54.086069
     -3.958959     31.724681     31.724681     63.449362
     -3.948949     37.092541     37.092541     74.185083
     -3.938939     42.774287     42.774287     85.548575
     -3.928929     48.462974     48.462974     96.925947
     -3.918919     53.938576     53.938576    107.877152
     -3.908909     59.073375     59.073375    118.146750
     -3.898899     63.795806     63.795806    127.591612
     -3.888889     68.004886     68.004886    136.009773
     -3.878879     71.467394     71.467394    142.934787
     -3.868869     73.760903     73.760903    147.521806
     -3.858859     74.319845     74.319845    148.639689
     -3.848849     72.596090     72.596090    145.192180
     -3.838839     68.283619     68.283619    136.567237
     -3.828829     61.513207     61.513207    123.026415
     -3.818819     52.923756     52.923756    105.847512
     -3.808809     43.564374     43.564374     87.128748
     -3.798799     34.652699     34.652699     69.305398
     -3.788789     27.274028     27.274028     54.548056
     -3.778779     22.124677     22.124677     44.249355
     -3.768769     19.377553     19.377553     38.755105
     -3.758759     18.697445     18.697445     37.394890
     -3.748749     19.384795     19.384795     38.769591
     -3.738739     20.596692     20.596692     41.193384
     -3.728729     21.584604     21.584604     43.169209
     -3.718719     21.892776     21.892776     43.785552
     -3.708709     21.472439     21.472439     42.944878
     -3.698699     20.682964     20.682964     41.365928
     -3.688689     20.173076     20.173076     40.346151
     -3.678679     20.664409     20.664409     41.328817
     -3.668669     22.692535     22.692535     45.385070
     -3.658659     26.386430     26.386430     52.772861
     -3.648649     31.369861     31.369861     62.739721
     -3.638639     36.834409     36.834409     73.668819
     -3.628629     41.768172     41.768172     83.536344
     -3.618619     45.254809     45.254809     90.509618
     -3.608609     46.724857     46.724857     93.449713
     -3.598599     46.068351     46.068351     92.136703
     -3.588589     43.589550     43.589550     87.179101
     -3.578579     39.854496     39.854496     79.708992
     -3.568569     35.509400     35.509400     71.018800
     -3.558559     31.128232     31.128232     62.256463
     -3.548549     27.112069     27.112069     54.224139
     -3.538539     23.642546     23.642546     47.285093
     -3.528529     20.691335     20.691335     41.382671
     -3.518519     18.087205     18.087205     36.174409
     -3.508509     15.625819     15.625819     31.251639
     -3.498498     13.183347     13.183347     26.366693
     -3.488488     10.786292     10.786292     21.572584
     -3.478478      8.609493      8.609493     17.218987
     -3.468468      6.909800      6.909800     13.819600
     -3.458458      5.930001      5.930001     11.860002
     -3.448448      5.811740      5.811740     11.623481
     -3.438438      6.543558      6.543558     13.087115
     -3.428428      7.956304      7.956304     15.912608
     -3.418418      9.769877      9.769877     19.539753
     -3.408408     11.685739     11.685739     23.371478
     -3.398398     13.501228     13.501228     27.002457
     -3.388388     15.200094     15.200094     30.400188
     -3.378378     16.969053     16.969053     33.938106
     -3.368368     19.117898     19.117898     38.235796
     -3.358358     21.932132     21.932132     43.864264
     -3.348348     25.528733     25.528733     51.057467
     -3.338338     29.783959     29.783959     59.567919
     -3.328328     34.354669     34.354669     68.709339
     -3.318318     38.757484     38.757484     77.514967
     -3.308308     42.449953     42.449953     84.899906
     -3.298298     44.889123     44.889123     89.778246
     -3.288288     45.591032     45.591032     91.182064
     -3.278278     44.227169     44.227169     88.454338
     -3.268268     40.752474     40.752474     81.504948
     -3.258258     35.501911     35.501911     71.003823
     -3.248248     29.177988     29.177988     58.355976
     -3.238238     22.701919     22.701919     45.403839
     -3.228228     16.979385     16.979385     33.958770
     -3.218218     12.677522     12.677522     25.355045
     -3.208208     10.094137     10.094137     20.188275
     -3.198198      9.145811      9.145811     18.291623
     -3.188188      9.453371      9.453371     18.906742
     -3.178178     10.485569     10.485569     20.971137
     -3.168168     11.725276     11.725276     23.450553
     -3.158158     12.824588     12.824588     25.649176
     -3.148148     13.708651     13.708651     27.417303
     -3.138138     14.586728     14.586728     29.173456
     -3.128128     15.850442     15.850442     31.700884
     -3.118118     17.883579     17.883579     35.767157
     -3.108108     20.853924     20.853924     41.707847
     -3.098098     24.577350     24.577350     49.154700
     -3.088088     28.521674     28.521674     57.043348
     -3.078078     31.959153     31.959153     63.918305
     -3.068068     34.207880     34.207880     68.415760
     -3.058058     34.857795     34.857795     69.715590
     -3.048048     33.882206     33.882206     67.764412
     -3.038038     31.592396     31.592396     63.184792
     -3.028028     28.472924     28.472924     56.945847
     -3.018018     24.993160     24.993160     49.986320
     -3.008008     21.491837     21.491837     42.983674
     -2.997998     18.177058     18.177058     36.354117
     -2.987988     15.212005     15.212005     30.424009
     -2.977978     12.812586     12.812586     25.625173
     -2.967968     11.289182     11.289182     22.578365
     -2.957958     11.005874     11.005874     22.011747
     -2.947948     12.275026     12.275026     24.550052
     -2.937938     15.230041     15.230041     30.460083
     -2.927928     19.723141     19.723141     39.446281
     -2.917918     25.287652     25.287652     50.575304
     -2.907908     31.190324     31.190324     62.380647
     -2.897898     36.575699     36.575699     73.151399
     -2.887888     40.670821     40.670821     81.341642
     -2.877878     42.985715     42.985715     85.971430
     -2.867868     43.433232     43.433232     86.866465
     -2.857858     42.315238     42.315238     84.630477
     -2.847848     40.176224     40.176224     80.352448
     -2.837838     37.585472     37.585472     75.170944
     -2.827828     34.943059     34.943059     69.886119
     -2.817818     32.392860     32.392860     64.785720
     -2.807808     29.871367     29.871367     59.742733
     -2.797798     27.252338     27.252338     54.504677
     -2.787788     24.500783     24.500783     49.001567
     -2.777778     21.750806     21.750806     43.501612
     -2.767768     19.269445     19.269445     38.538890
     -2.757758     17.335711     17.335711     34.671423
     -2.747748     16.112219     16.112219     32.224437
     -2.737738     15.588085     15.588085     31.176171
     -2.727728     15.624882     15.624882     31.249763
     -2.717718     16.070316     16.070316     32.140632
     -2.707708     16.859310     16.859310     33.718620
     -2.697698     18.030087     18.030087     36.060174
     -2.687688     19.641787     19.641787     39.283573
     -2.677678     21.652272     21.652272     43.304543
     -2.667668     23.849627     23.849627     47.699255
     -2.657658     25.900017     25.900017     51.800034
     -2.647648     27.495338     27.495338     54.990676
     -2.637638     28.511032     28.511032     57.022064
     -2.627628     29.071208     29.071208     58.142415
     -2.617618     29.476818     29.476818     58.953636
     -2.607608     30.041543     30.041543     60.083085
     -2.597598     30.934878     30.934878     61.869757
     -2.587588     32.115383     32.115383     64.230765
     -2.577578     33.367816     33.367816     66.735632
     -2.567568     34.393563     34.393563     68.787126
     -2.557558     34.891596     34.891596     69.783193
     -2.547548     34.606195     34.606195     69.212391
     -2.537538     33.363456     33.363456     66.726912
     -2.527528     31.126604     31.126604     62.253208
     -2.517518     28.065432     28.065432     56.130865
     -2.507508     24.593916     24.593916     49.187832
     -2.497497     21.323956     21.323956     42.647912
     -2.487487     18.922246     18.922246     37.844492
     -2.477477     17.914321     17.914321     35.828643
     -2.467467     18.516200     18.516200     37.032400
     -2.457457     20.568429     20.568429     41.136859
     -2.447447     23.604749     23.604749     47.209498
     -2.437437     27.029498     27.029498     54.058995
     -2.427427     30.329499     30.329499     60.658998
     -2.417417     33.228403     33.228403     66.456805
     -2.407407     35.714841     35.714841     71.429682
     -2.397397     37.933574     37.933574     75.867148
     -2.387387     39.995852     39.995852     79.991703
     -2.377377     41.808435     41.808435     83.616870
     -2.367367     43.016277     43.016277     86.032553
     -2.357357     43.100918     43.100918     86.201836
     -2.347347     41.598957     41.598957     83.197914
     -2.337337     38.341179     38.341179     76.682358
     -2.327327     33.597810     33.597810     67.195621
     -2.317317     28.059368     28.059368     56.118735
     -2.307307     22.661973     22.661973     45.323946
     -2.297297     18.335554     18.335554     36.671107
     -2.287287     15.775899     15.775899     31.551797
     -2.277277     15.312681     15.312681     30.625362
     -2.267267     16.892069     16.892069     33.784138
     -2.257257     20.148196     20.148196     40.296391
     -2.247247     24.519484     24.519484     49.038967
     -2.237237     29.369422     29.369422     58.738845
     -2.227227     34.084289     34.084289     68.168578
     -2.217217     38.134655     38.134655     76.269309
     -2.207207     41.102251     41.102251     82.204502
     -2.197197     42.687827     42.687827     85.375655
     -2.187187     42.722636     42.722636     85.445271
     -2.177177     41.197737     41.197737     82.395473
     -2.167167     38.301074     38.301074     76.602148
     -2.157157     34.426872     34.426872     68.853744
     -2.147147     30.118610     30.118610     60.237220
     -2.137137     25.937941     25.937941     51.875882
     -2.127127     22.302691     22.302691     44.605382
     -2.117117     19.370938     19.370938     38.741877
     -2.107107     17.034926     17.034926     34.069852
     -2.097097     15.031128     15.031128     30.062256
     -2.087087     13.108391     13.108391     26.216781
     -2.077077     11.167495     11.167495     22.334990
     -2.067067      9.308570      9.308570     18.617139
     -2.057057      7.776817      7.776817     15.553635
     -2.047047      6.844975      6.844975     13.689950
     -2.037037      6.688703      6.688703     13.377407
     -2.027027      7.300711      7.300711     14.601421
     -2.017017      8.468097      8.468097     16.936195
     -2.007007      9.818145      9.818145     19.636290
     -1.996997     10.921073     10.921073     21.842146
     -1.986987     11.420624     11.420624     22.841248
     -1.976977     11.148910     11.148910     22.297819
     -1.966967     10.182447     10.182447     20.364894
     -1.956957      8.818065      8.818065     17.636130
     -1.946947      7.481037      7.481037     14.962074
     -1.936937      6.603439      6.603439     13.206877
     -1.926927      6.514352      6.514352     13.028704
     -1.916917      7.368179      7.368179     14.736358
     -1.906907      9.118161      9.118161     18.236322
     -1.896897     11.531338     11.531338     23.062676
     -1.886887     14.238633     14.238633     28.477266
     -1.876877     16.812083     16.812083     33.624166
     -1.866867     18.856086     18.856086     37.712172
     -1.856857     20.093678     20.093678     40.187355
     -1.846847     20.427126     20.427126     40.854252
     -1.836837     19.955516     19.955516     39.911032
     -1.826827     18.939316     18.939316     37.878633
     -1.816817     17.714090     17.714090     35.428180
     -1.806807     16.574272     16.574272     33.148545
     -1.796797     15.667936     15.667936     31.335873
     -1.786787     14.950037     14.950037     29.900074
     -1.776777     14.221592     14.221592     28.443183
     -1.766767     13.240005     13.240005     26.480010
     -1.756757     11.846082     11.846082     23.692164
     -1.746747     10.044129     10.044129     20.088258
     -1.736737      8.000670      8.000670     16.001341
     -1.726727      5.974752      5.974752     11.949503
     -1.716717      4.226669      4.226669      8.453337
     -1.706707      2.952738      2.952738      5.905476
     -1.696697      2.266657      2.266657      4.533313
     -1.686687      2.215042      2.215042      4.430085
     -1.676677      2.797063      2.797063      5.594127
     -1.666667      3.963573      3.963573      7.927146
     -1.656657      5.593314      5.593314     11.186627
     -1.646647      7.467880      7.467880     14.935759
     -1.636637      9.277862      9.277862     18.555724
     -1.626627     10.681436     10.681436     21.362871
