# EIG2DOS: Utility for SIESTA to obtain the electronic density of states
#  E. Artacho, Apr 1999, A. Garcia, Apr 2012
#  Nick R. Papior, Feb 2017
# ------------------------------------------
# Eigenvalues calculated from a non-polarized calculation
# Eigenvalues read from siesta.EIG
# Kpoint weights read from siesta.KP
# Using smearing parameter:   0.0500
# Using 1000 points in the energy range
# Selected bands: 1 to: 2981
# Emin, Emax in file for selected band(s):    -27.0891036    218.3409510
# Nbands, Nspin, Nk   =   2981     1     1
# E_F                 =    -4.2658 eV --> (shifted to ZERO)
# Broadening          =     0.0500 eV
#
#        E            N(up)  (=)   N(down)         Ntot
     -5.000000     36.054949     36.054949     72.109899
     -4.989990     38.985069     38.985069     77.970138
     -4.979980     41.535446     41.535446     83.070892
     -4.969970     43.196067     43.196067     86.392135
     -4.959960     43.603178     43.603178     87.206357
     -4.949950     42.638444     42.638444     85.276887
     -4.939940     40.460800     40.460800     80.921600
     -4.929930     37.477904     37.477904     74.955808
     -4.919920     34.283144     34.283144     68.566288
     -4.909910     31.580193     31.580193     63.160385
     -4.899900     30.094504     30.094504     60.189008
     -4.889890     30.451056     30.451056     60.902113
     -4.879880     33.005632     33.005632     66.011263
     -4.869870     37.660794     37.660794     75.321587
     -4.859860     43.751646     43.751646     87.503291
     -4.849850     50.101999     50.101999    100.203998
     -4.839840     55.295165     55.295165    110.590331
     -4.829830     58.092151     58.092151    116.184302
     -4.819820     57.830696     57.830696    115.661392
     -4.809810     54.624157     54.624157    109.248314
     -4.799800     49.270889     49.270889     98.541777
     -4.789790     42.929884     42.929884     85.859768
     -4.779780     36.725940     36.725940     73.451881
     -4.769770     31.454953     31.454953     62.909906
     -4.759760     27.476725     27.476725     54.953449
     -4.749750     24.775357     24.775357     49.550715
     -4.739740     23.102795     23.102795     46.205590
     -4.729730     22.120686     22.120686     44.241372
     -4.719720     21.494847     21.494847     42.989693
     -4.709710     20.938456     20.938456     41.876911
     -4.699700     20.224813     20.224813     40.449627
     -4.689690     19.196737     19.196737     38.393474
     -4.679680     17.791966     17.791966     35.583931
     -4.669670     16.086020     16.086020     32.172039
     -4.659660     14.333090     14.333090     28.666180
     -4.649650     12.973368     12.973368     25.946736
     -4.639640     12.580115     12.580115     25.160229
     -4.629630     13.739317     13.739317     27.478634
     -4.619620     16.879778     16.879778     33.759556
     -4.609610     22.094718     22.094718     44.189435
     -4.599600     29.013914     29.013914     58.027828
     -4.589590     36.790865     36.790865     73.581730
     -4.579580     44.249012     44.249012     88.498024
     -4.569570     50.177457     50.177457    100.354913
     -4.559560     53.694814     53.694814    107.389628
     -4.549550     54.547676     54.547676    109.095352
     -4.539540     53.214962     53.214962    106.429924
     -4.529530     50.759174     50.759174    101.518348
     -4.519520     48.469250     48.469250     96.938499
     -4.509510     47.425999     47.425999     94.851997
     -4.499499     48.149641     48.149641     96.299283
     -4.489489     50.451131     50.451131    100.902263
     -4.479479     53.526974     53.526974    107.053948
     -4.469469     56.248061     56.248061    112.496123
     -4.459459     57.530180     57.530180    115.060361
     -4.449449     56.656729     56.656729    113.313457
     -4.439439     53.455057     53.455057    106.910115
     -4.429429     48.292159     48.292159     96.584317
     -4.419419     41.924999     41.924999     83.849999
     -4.409409     35.284191     35.284191     70.568382
     -4.399399     29.269096     29.269096     58.538192
     -4.389389     24.597276     24.597276     49.194553
     -4.379379     21.711975     21.711975     43.423949
     -4.369369     20.735873     20.735873     41.471746
     -4.359359     21.470046     21.470046     42.940092
     -4.349349     23.451310     23.451310     46.902621
     -4.339339     26.075016     26.075016     52.150031
     -4.329329     28.761376     28.761376     57.522751
     -4.319319     31.113194     31.113194     62.226389
     -4.309309     33.006627     33.006627     66.013255
     -4.299299     34.581426     34.581426     69.162852
     -4.289289     36.137097     36.137097     72.274195
     -4.279279     37.973596     37.973596     75.947193
     -4.269269     40.228724     40.228724     80.457447
     -4.259259     42.764297     42.764297     85.528595
     -4.249249     45.146411     45.146411     90.292821
     -4.239239     46.747032     46.747032     93.494063
     -4.229229     46.954421     46.954421     93.908842
     -4.219219     45.423221     45.423221     90.846443
     -4.209209     42.253347     42.253347     84.506695
     -4.199199     37.999496     37.999496     75.998991
     -4.189189     33.489736     33.489736     66.979472
     -4.179179     29.532717     29.532717     59.065433
     -4.169169     26.653813     26.653813     53.307627
     -4.159159     24.980811     24.980811     49.961621
     -4.149149     24.314575     24.314575     48.629151
     -4.139139     24.325062     24.325062     48.650123
     -4.129129     24.760297     24.760297     49.520594
     -4.119119     25.563510     25.563510     51.127021
     -4.109109     26.846154     26.846154     53.692307
     -4.099099     28.735248     28.735248     57.470495
     -4.089089     31.176845     31.176845     62.353690
     -4.079079     33.808936     33.808936     67.617872
     -4.069069     35.995199     35.995199     71.990398
     -4.059059     37.033090     37.033090     74.066179
     -4.049049     36.449421     36.449421     72.898841
     -4.039039     34.234295     34.234295     68.468589
     -4.029029     30.886975     30.886975     61.773949
     -4.019019     27.248051     27.248051     54.496102
     -4.009009     24.208405     24.208405     48.416810
     -3.998999     22.442425     22.442425     44.884850
     -3.988989     22.278682     22.278682     44.557363
     -3.978979     23.727317     23.727317     47.454634
     -3.968969     26.597361     26.597361     53.194722
     -3.958959     30.612144     30.612144     61.224288
     -3.948949     35.470274     35.470274     70.940547
     -3.938939     40.861154     40.861154     81.722308
     -3.928929     46.476910     46.476910     92.953819
     -3.918919     52.046418     52.046418    104.092837
     -3.908909     57.374400     57.374400    114.748800
     -3.898899     62.341765     62.341765    124.683530
     -3.888889     66.839466     66.839466    133.678932
     -3.878879     70.657454     70.657454    141.314909
     -3.868869     73.396807     73.396807    146.793614
     -3.858859     74.480993     74.480993    148.961985
     -3.848849     73.300197     73.300197    146.600393
     -3.838839     69.450376     69.450376    138.900752
     -3.828829     62.966337     62.966337    125.932675
     -3.818819     54.433819     54.433819    108.867639
     -3.808809     44.912290     44.912290     89.824580
     -3.798799     35.684941     35.684941     71.369881
     -3.788789     27.928801     27.928801     55.857602
     -3.778779     22.425942     22.425942     44.851885
     -3.768769     19.408115     19.408115     38.816230
     -3.758759     18.566418     18.566418     37.132835
     -3.748749     19.200064     19.200064     38.400129
     -3.738739     20.446001     20.446001     40.892001
     -3.728729     21.524543     21.524543     43.049087
     -3.718719     21.944193     21.944193     43.888386
     -3.708709     21.621512     21.621512     43.243024
     -3.698699     20.887461     20.887461     41.774923
     -3.688689     20.372787     20.372787     40.745575
     -3.678679     20.794139     20.794139     41.588278
     -3.668669     22.695926     22.695926     45.391852
     -3.658659     26.229028     26.229028     52.458057
     -3.648649     31.049583     31.049583     62.099165
     -3.638639     36.386877     36.386877     72.773755
     -3.628629     41.264043     41.264043     82.528087
     -3.618619     44.787423     44.787423     89.574846
     -3.608609     46.389570     46.389570     92.779140
     -3.598599     45.938776     45.938776     91.877552
     -3.588589     43.698342     43.698342     87.396684
     -3.578579     40.185621     40.185621     80.371242
     -3.568569     36.004698     36.004698     72.009395
     -3.558559     31.705452     31.705452     63.410905
     -3.548549     27.687291     27.687291     55.374582
     -3.538539     24.149092     24.149092     48.298183
     -3.528529     21.090074     21.090074     42.180148
     -3.518519     18.367463     18.367463     36.734926
     -3.508509     15.799595     15.799595     31.599190
     -3.498498     13.276733     13.276733     26.553466
     -3.488488     10.831240     10.831240     21.662481
     -3.478478      8.637290      8.637290     17.274579
     -3.468468      6.945978      6.945978     13.891956
     -3.458458      5.989328      5.989328     11.978656
     -3.448448      5.891511      5.891511     11.783022
     -3.438438      6.613695      6.613695     13.227390
     -3.428428      7.945596      7.945596     15.891192
     -3.418418      9.549055      9.549055     19.098110
     -3.408408     11.050606     11.050606     22.101213
     -3.398398     12.163144     12.163144     24.326288
     -3.388388     12.796144     12.796144     25.592289
     -3.378378     13.106339     13.106339     26.212677
     -3.368368     13.459569     13.459569     26.919138
     -3.358358     14.313921     14.313921     28.627842
     -3.348348     16.069646     16.069646     32.139292
     -3.338338     18.939429     18.939429     37.878858
     -3.328328     22.871137     22.871137     45.742275
     -3.318318     27.526297     27.526297     55.052594
     -3.308308     32.306716     32.306716     64.613432
     -3.298298     36.432705     36.432705     72.865410
     -3.288288     39.085708     39.085708     78.171416
     -3.278278     39.608761     39.608761     79.217522
     -3.268268     37.711876     37.711876     75.423753
     -3.258258     33.593631     33.593631     67.187262
     -3.248248     27.906365     27.906365     55.812731
     -3.238238     21.563683     21.563683     43.127367
     -3.228228     15.470911     15.470911     30.941821
     -3.218218     10.295184     10.295184     20.590367
     -3.208208      6.360270      6.360270     12.720539
     -3.198198      3.679904      3.679904      7.359808
     -3.188188      2.081776      2.081776      4.163552
     -3.178178      1.353540      1.353540      2.707080
     -3.168168      1.358676      1.358676      2.717351
     -3.158158      2.098557      2.098557      4.197114
     -3.148148      3.716024      3.716024      7.432049
     -3.138138      6.441300      6.441300     12.882601
     -3.128128     10.484603     10.484603     20.969205
     -3.118118     15.894055     15.894055     31.788109
     -3.108108     22.422925     22.422925     44.845849
     -3.098098     29.470728     29.470728     58.941457
     -3.088088     36.154838     36.154838     72.309677
     -3.078078     41.521364     41.521364     83.042727
     -3.068068     44.831867     44.831867     89.663734
     -3.058058     45.806350     45.806350     91.612700
     -3.048048     44.703876     44.703876     89.407751
     -3.038038     42.191583     42.191583     84.383166
     -3.028028     39.058482     39.058482     78.116964
     -3.018018     35.912457     35.912457     71.824914
     -3.008008     33.007181     33.007181     66.014362
     -2.997998     30.273223     30.273223     60.546445
     -2.987988     27.516914     27.516914     55.033828
     -2.977978     24.666188     24.666188     49.332376
     -2.967968     21.929573     21.929573     43.859147
     -2.957958     19.791703     19.791703     39.583406
     -2.947948     18.855216     18.855216     37.710432
     -2.937938     19.606190     19.606190     39.212380
     -2.927928     22.202349     22.202349     44.404699
     -2.917918     26.364104     26.364104     52.728208
     -2.907908     31.407158     31.407158     62.814315
     -2.897898     36.408638     36.408638     72.817276
     -2.887888     40.455833     40.455833     80.911666
     -2.877878     42.896167     42.896167     85.792333
     -2.867868     43.500798     43.500798     87.001595
     -2.857858     42.481499     42.481499     84.962999
     -2.847848     40.356737     40.356737     80.713473
     -2.837838     37.725941     37.725941     75.451882
     -2.827828     35.050268     35.050268     70.100537
     -2.817818     32.531970     32.531970     65.063939
     -2.807808     30.134011     30.134011     60.268021
     -2.797798     27.711679     27.711679     55.423359
     -2.787788     25.174620     25.174620     50.349240
     -2.777778     22.588862     22.588862     45.177724
     -2.767768     20.168141     20.168141     40.336281
     -2.757758     18.169825     18.169825     36.339650
     -2.747748     16.765780     16.765780     33.531561
     -2.737738     15.970558     15.970558     31.941117
     -2.727728     15.670673     15.670673     31.341346
     -2.717718     15.732127     15.732127     31.464253
     -2.707708     16.110460     16.110460     32.220920
     -2.697698     16.883842     16.883842     33.767684
     -2.687688     18.180360     18.180360     36.360720
     -2.677678     20.044431     20.044431     40.088863
     -2.667668     22.334635     22.334635     44.669269
     -2.657658     24.731279     24.731279     49.462558
     -2.647648     26.862146     26.862146     53.724291
     -2.637638     28.474510     28.474510     56.949021
     -2.627628     29.547018     29.547018     59.094036
     -2.617618     30.272523     30.272523     60.545045
     -2.607608     30.927367     30.927367     61.854735
     -2.597598     31.713021     31.713021     63.426041
     -2.587588     32.662449     32.662449     65.324898
     -2.577578     33.646528     33.646528     67.293057
     -2.567568     34.445062     34.445062     68.890124
     -2.557558     34.819140     34.819140     69.638280
     -2.547548     34.551425     34.551425     69.102849
     -2.537538     33.471529     33.471529     66.943058
     -2.527528     31.503010     31.503010     63.006021
     -2.517518     28.738473     28.738473     57.476946
     -2.507508     25.500393     25.500393     51.000786
     -2.497497     22.326160     22.326160     44.652320
     -2.487487     19.848321     19.848321     39.696641
     -2.477477     18.603413     18.603413     37.206826
     -2.467467     18.851100     18.851100     37.702201
     -2.457457     20.488642     20.488642     40.977284
     -2.447447     23.103609     23.103609     46.207219
     -2.437437     26.143951     26.143951     52.287902
     -2.427427     29.130030     29.130030     58.260059
     -2.417417     31.812697     31.812697     63.625394
     -2.407407     34.205055     34.205055     68.410109
     -2.397397     36.474367     36.474367     72.948734
     -2.387387     38.748545     38.748545     77.497090
     -2.377377     40.936256     40.936256     81.872512
     -2.367367     42.658196     42.658196     85.316391
     -2.357357     43.337595     43.337595     86.675191
     -2.347347     42.421677     42.421677     84.843354
     -2.337337     39.638441     39.638441     79.276883
     -2.327327     35.170235     35.170235     70.340470
     -2.317317     29.662064     29.662064     59.324127
     -2.307307     24.060719     24.060719     48.121438
     -2.297297     19.356802     19.356802     38.713605
     -2.287287     16.334330     16.334330     32.668661
     -2.277277     15.410753     15.410753     30.821507
     -2.267267     16.597251     16.597251     33.194502
     -2.257257     19.560466     19.560466     39.120932
     -2.247247     23.742798     23.742798     47.485596
     -2.237237     28.496991     28.496991     56.993982
     -2.227227     33.199924     33.199924     66.399849
     -2.217217     37.323618     37.323618     74.647237
     -2.207207     40.459166     40.459166     80.918331
     -2.197197     42.310492     42.310492     84.620984
     -2.187187     42.689464     42.689464     85.378929
     -2.177177     41.538196     41.538196     83.076392
     -2.167167     38.975484     38.975484     77.950967
     -2.157157     35.329364     35.329364     70.658728
     -2.147147     31.105818     31.105818     62.211635
     -2.137137     26.872393     26.872393     53.744786
     -2.127127     23.091589     23.091589     46.183177
     -2.117117     19.982700     19.982700     39.965399
     -2.107107     17.486336     17.486336     34.972672
     -2.097097     15.350940     15.350940     30.701880
     -2.087087     13.291440     13.291440     26.582880
     -2.077077     11.133671     11.133671     22.267341
     -2.067067      8.876196      8.876196     17.752393
     -2.057057      6.656325      6.656325     13.312650
     -2.047047      4.659571      4.659571      9.319141
     -2.037037      3.030689      3.030689      6.061378
     -2.027027      1.826889      1.826889      3.653777
     -2.017017      1.020362      1.020362      2.040724
     -2.007007      0.531900      0.531900      1.063800
     -1.996997      0.270970      0.270970      0.541941
     -1.986987      0.166133      0.166133      0.332266
     -1.976977      0.181919      0.181919      0.363839
     -1.966967      0.325804      0.325804      0.651607
     -1.956957      0.649229      0.649229      1.298459
     -1.946947      1.242432      1.242432      2.484865
     -1.936937      2.218623      2.218623      4.437246
     -1.926927      3.683244      3.683244      7.366487
     -1.916917      5.690358      5.690358     11.380717
     -1.906907      8.198360      8.198360     16.396719
     -1.896897     11.044519     11.044519     22.089038
     -1.886887     13.955581     13.955581     27.911162
     -1.876877     16.598378     16.598378     33.196755
     -1.866867     18.657155     18.657155     37.314309
     -1.856857     19.913161     19.913161     39.826323
     -1.846847     20.301847     20.301847     40.603693
     -1.836837     19.930360     19.930360     39.860721
     -1.826827     19.047429     19.047429     38.094859
     -1.816817     17.968833     17.968833     35.937666
     -1.806807     16.977861     16.977861     33.955722
     -1.796797     16.237748     16.237748     32.475496
     -1.786787     15.757874     15.757874     31.515748
     -1.776777     15.434142     15.434142     30.868284
     -1.766767     15.141659     15.141659     30.283319
     -1.756757     14.822124     14.822124     29.644248
     -1.746747     14.508946     14.508946     29.017892
     -1.736737     14.275408     14.275408     28.550816
     -1.726727     14.147006     14.147006     28.294012
     -1.716717     14.047095     14.047095     28.094190
     -1.706707     13.822749     13.822749     27.645498
     -1.696697     13.340510     13.340510     26.681019
     -1.686687     12.590212     12.590212     25.180424
     -1.676677     11.725411     11.725411     23.450823
     -1.666667     11.006655     11.006655     22.013310
     -1.656657     10.673066     10.673066     21.346131
     -1.646647     10.811051     10.811051     21.622102
     -1.636637     11.292303     11.292303     22.584606
     -1.626627     11.817274     11.817274     23.634548
