# EIG2DOS: Utility for SIESTA to obtain the electronic density of states
#  E. Artacho, Apr 1999, A. Garcia, Apr 2012
#  Nick R. Papior, Feb 2017
# ------------------------------------------
# Eigenvalues calculated from a non-polarized calculation
# Eigenvalues read from siesta.EIG
# Kpoint weights read from siesta.KP
# Using smearing parameter:   0.0500
# Using 1000 points in the energy range
# Selected bands: 1 to: 2981
# Emin, Emax in file for selected band(s):    -27.4352091    218.4127930
# Nbands, Nspin, Nk   =   2981     1     1
# E_F                 =    -4.1910 eV --> (shifted to ZERO)
# Broadening          =     0.0500 eV
#
#        E            N(up)  (=)   N(down)         Ntot
     -5.000000     34.296489     34.296489     68.592978
     -4.989990     39.377733     39.377733     78.755467
     -4.979980     43.728531     43.728531     87.457062
     -4.969970     46.550462     46.550462     93.100925
     -4.959960     47.315654     47.315654     94.631309
     -4.949950     45.946785     45.946785     91.893569
     -4.939940     42.847450     42.847450     85.694900
     -4.929930     38.795424     38.795424     77.590848
     -4.919920     34.766354     34.766354     69.532708
     -4.909910     31.755051     31.755051     63.510102
     -4.899900     30.619393     30.619393     61.238786
     -4.889890     31.933646     31.933646     63.867292
     -4.879880     35.841530     35.841530     71.683060
     -4.869870     41.941673     41.941673     83.883346
     -4.859860     49.277155     49.277155     98.554310
     -4.849850     56.491406     56.491406    112.982811
     -4.839840     62.145548     62.145548    124.291097
     -4.829830     65.104457     65.104457    130.208914
     -4.819820     64.847221     64.847221    129.694443
     -4.809810     61.578766     61.578766    123.157532
     -4.799800     56.104278     56.104278    112.208556
     -4.789790     49.530342     49.530342     99.060683
     -4.779780     42.922307     42.922307     85.844614
     -4.769770     37.046966     37.046966     74.093932
     -4.759760     32.272104     32.272104     64.544208
     -4.749750     28.616788     28.616788     57.233575
     -4.739740     25.888424     25.888424     51.776849
     -4.729730     23.826148     23.826148     47.652295
     -4.719720     22.192694     22.192694     44.385388
     -4.709710     20.800284     20.800284     41.600569
     -4.699700     19.497007     19.497007     38.994013
     -4.689690     18.159061     18.159061     36.318122
     -4.679680     16.721917     16.721917     33.443834
     -4.669670     15.247838     15.247838     30.495676
     -4.659660     13.990840     13.990840     27.981679
     -4.649650     13.406326     13.406326     26.812653
     -4.639640     14.069609     14.069609     28.139217
     -4.629630     16.505543     16.505543     33.011085
     -4.619620     20.973434     20.973434     41.946868
     -4.609610     27.282874     27.282874     54.565747
     -4.599600     34.725825     34.725825     69.451650
     -4.589590     42.186177     42.186177     84.372355
     -4.579580     48.425403     48.425403     96.850805
     -4.569570     52.459841     52.459841    104.919682
     -4.559560     53.884188     53.884188    107.768376
     -4.549550     53.000092     53.000092    106.000185
     -4.539540     50.687093     50.687093    101.374187
     -4.529530     48.067083     48.067083     96.134166
     -4.519520     46.102114     46.102114     92.204227
     -4.509510     45.285124     45.285124     90.570248
     -4.499499     45.531753     45.531753     91.063505
     -4.489489     46.290932     46.290932     92.581865
     -4.479479     46.805776     46.805776     93.611552
     -4.469469     46.408060     46.408060     92.816120
     -4.459459     44.733442     44.733442     89.466884
     -4.449449     41.793157     41.793157     83.586313
     -4.439439     37.906849     37.906849     75.813698
     -4.429429     33.558156     33.558156     67.116311
     -4.419419     29.253368     29.253368     58.506736
     -4.409409     25.437570     25.437570     50.875140
     -4.399399     22.471327     22.471327     44.942655
     -4.389389     20.629538     20.629538     41.259076
     -4.379379     20.080639     20.080639     40.161279
     -4.369369     20.838581     20.838581     41.677163
     -4.359359     22.722106     22.722106     45.444213
     -4.349349     25.369846     25.369846     50.739693
     -4.339339     28.332211     28.332211     56.664422
     -4.329329     31.211551     31.211551     62.423102
     -4.319319     33.786531     33.786531     67.573061
     -4.309309     36.059094     36.059094     72.118188
     -4.299299     38.199229     38.199229     76.398458
     -4.289289     40.409860     40.409860     80.819721
     -4.279279     42.767831     42.767831     85.535663
     -4.269269     45.107365     45.107365     90.214730
     -4.259259     47.001199     47.001199     94.002398
     -4.249249     47.864719     47.864719     95.729438
     -4.239239     47.162206     47.162206     94.324412
     -4.229229     44.643026     44.643026     89.286051
     -4.219219     40.504692     40.504692     81.009383
     -4.209209     35.396050     35.396050     70.792100
     -4.199199     30.240896     30.240896     60.481793
     -4.189189     25.948719     25.948719     51.897438
     -4.179179     23.135879     23.135879     46.271759
     -4.169169     21.974555     21.974555     43.949110
     -4.159159     22.223416     22.223416     44.446832
     -4.149149     23.409557     23.409557     46.819114
     -4.139139     25.067107     25.067107     50.134214
     -4.129129     26.919320     26.919320     53.838640
     -4.119119     28.921485     28.921485     57.842971
     -4.109109     31.149336     31.149336     62.298672
     -4.099099     33.596912     33.596912     67.193823
     -4.089089     36.003859     36.003859     72.007718
     -4.079079     37.829658     37.829658     75.659316
     -4.069069     38.419423     38.419423     76.838847
     -4.059059     37.294651     37.294651     74.589302
     -4.049049     34.419147     34.419147     68.838294
     -4.039039     30.293398     30.293398     60.586796
     -4.029029     25.822835     25.822835     51.645670
     -4.019019     22.027823     22.027823     44.055647
     -4.009009     19.738044     19.738044     39.476088
     -3.998999     19.401147     19.401147     38.802295
     -3.988989     21.056319     21.056319     42.112637
     -3.978979     24.435997     24.435997     48.871994
     -3.968969     29.114326     29.114326     58.228652
     -3.958959     34.632351     34.632351     69.264701
     -3.948949     40.573543     40.573543     81.147085
     -3.938939     46.600659     46.600659     93.201318
     -3.928929     52.471984     52.471984    104.943969
     -3.918919     58.037085     58.037085    116.074170
     -3.908909     63.196865     63.196865    126.393729
     -3.898899     67.823382     67.823382    135.646763
     -3.888889     71.668205     71.668205    143.336410
     -3.878879     74.315496     74.315496    148.630992
     -3.868869     75.229185     75.229185    150.458369
     -3.858859     73.899846     73.899846    147.799693
     -3.848849     70.041931     70.041931    140.083862
     -3.838839     63.759677     63.759677    127.519354
     -3.828829     55.608164     55.608164    111.216327
     -3.818819     46.517566     46.517566     93.035132
     -3.808809     37.600877     37.600877     75.201753
     -3.798799     29.905033     29.905033     59.810066
     -3.788789     24.179981     24.179981     48.359962
     -3.778779     20.729516     20.729516     41.459032
     -3.768769     19.379897     19.379897     38.759794
     -3.758759     19.568224     19.568224     39.136447
     -3.748749     20.522089     20.522089     41.044177
     -3.738739     21.481637     21.481637     42.963274
     -3.728729     21.907625     21.907625     43.815250
     -3.718719     21.623820     21.623820     43.247640
     -3.708709     20.856860     20.856860     41.713720
     -3.698699     20.158973     20.158973     40.317945
     -3.688689     20.227026     20.227026     40.454053
     -3.678679     21.662080     21.662080     43.324161
     -3.668669     24.739665     24.739665     49.479329
     -3.658659     29.269931     29.269931     58.539862
     -3.648649     34.606559     34.606559     69.213117
     -3.638639     39.812552     39.812552     79.625103
     -3.628629     43.927551     43.927551     87.855101
     -3.618619     46.237138     46.237138     92.474275
     -3.608609     46.447032     46.447032     92.894063
     -3.598599     44.714272     44.714272     89.428544
     -3.588589     41.552530     41.552530     83.105060
     -3.578579     37.669593     37.669593     75.339187
     -3.568569     33.794137     33.794137     67.588273
     -3.558559     30.522950     30.522950     61.045900
     -3.548549     28.200976     28.200976     56.401951
     -3.538539     26.850245     26.850245     53.700490
     -3.528529     26.175589     26.175589     52.351178
     -3.518519     25.667546     25.667546     51.335092
     -3.508509     24.786344     24.786344     49.572687
     -3.498498     23.165211     23.165211     46.330422
     -3.488488     20.750577     20.750577     41.501154
     -3.478478     17.819718     17.819718     35.639436
     -3.468468     14.871321     14.871321     29.742643
     -3.458458     12.439002     12.439002     24.878004
     -3.448448     10.904288     10.904288     21.808576
     -3.438438     10.377233     10.377233     20.754466
     -3.428428     10.681778     10.681778     21.363556
     -3.418418     11.445508     11.445508     22.891016
     -3.408408     12.259930     12.259930     24.519861
     -3.398398     12.853854     12.853854     25.707709
     -3.388388     13.216044     13.216044     26.432087
     -3.378378     13.620542     13.620542     27.241084
     -3.368368     14.545540     14.545540     29.091080
     -3.358358     16.516903     16.516903     33.033807
     -3.348348     19.929004     19.929004     39.858008
     -3.338338     24.890519     24.890519     49.781038
     -3.328328     31.124714     31.124714     62.249428
     -3.318318     37.943645     37.943645     75.887290
     -3.308308     44.318989     44.318989     88.637978
     -3.298298     49.069225     49.069225     98.138450
     -3.288288     51.148652     51.148652    102.297304
     -3.278278     49.961322     49.961322     99.922644
     -3.268268     45.574663     45.574663     91.149325
     -3.258258     38.723717     38.723717     77.447433
     -3.248248     30.586673     30.586673     61.173346
     -3.238238     22.425218     22.425218     44.850436
     -3.228228     15.245261     15.245261     30.490522
     -3.218218      9.606923      9.606923     19.213846
     -3.208208      5.623031      5.623031     11.246062
     -3.198198      3.095864      3.095864      6.191727
     -3.188188      1.701627      1.701627      3.403255
     -3.178178      1.146706      1.146706      2.293412
     -3.168168      1.260412      1.260412      2.520823
     -3.158158      2.022965      2.022965      4.045931
     -3.148148      3.540421      3.540421      7.080843
     -3.138138      5.976711      5.976711     11.953422
     -3.128128      9.452442      9.452442     18.904883
     -3.118118     13.930657     13.930657     27.861314
     -3.108108     19.127841     19.127841     38.255683
     -3.098098     24.498110     24.498110     48.996220
     -3.088088     29.322625     29.322625     58.645250
     -3.078078     32.891855     32.891855     65.783711
     -3.068068     34.715162     34.715162     69.430323
     -3.058058     34.664688     34.664688     69.329375
     -3.048048     32.984065     32.984065     65.968131
     -3.038038     30.160515     30.160515     60.321029
     -3.028028     26.731850     26.731850     53.463700
     -3.018018     23.130370     23.130370     46.260739
     -3.008008     19.633833     19.633833     39.267666
     -2.997998     16.423263     16.423263     32.846526
     -2.987988     13.686496     13.686496     27.372992
     -2.977978     11.691363     11.691363     23.382725
     -2.967968     10.782839     10.782839     21.565677
     -2.957958     11.305260     11.305260     22.610521
     -2.947948     13.484003     13.484003     26.968005
     -2.937938     17.311183     17.311183     34.622366
     -2.927928     22.475363     22.475363     44.950725
     -2.917918     28.365499     28.365499     56.730999
     -2.907908     34.164570     34.164570     68.329140
     -2.897898     39.023227     39.023227     78.046454
     -2.887888     42.270390     42.270390     84.540781
     -2.877878     43.590183     43.590183     87.180366
     -2.867868     43.092878     43.092878     86.185756
     -2.857858     41.242114     41.242114     82.484228
     -2.847848     38.661599     38.661599     77.323198
     -2.837838     35.902638     35.902638     71.805277
     -2.827828     33.275587     33.275587     66.551174
     -2.817818     30.817100     30.817100     61.634199
     -2.807808     28.394601     28.394601     56.789203
     -2.797798     25.878298     25.878298     51.756597
     -2.787788     23.280130     23.280130     46.560261
     -2.777778     20.785745     20.785745     41.571490
     -2.767768     18.672960     18.672960     37.345919
     -2.757758     17.177330     17.177330     34.354661
     -2.747748     16.392209     16.392209     32.784417
     -2.737738     16.261711     16.261711     32.523421
     -2.727728     16.659574     16.659574     33.319149
     -2.717718     17.488064     17.488064     34.976128
     -2.707708     18.719399     18.719399     37.438799
     -2.697698     20.347621     20.347621     40.695242
     -2.687688     22.290757     22.290757     44.581514
     -2.677678     24.328814     24.328814     48.657628
     -2.667668     26.144859     26.144859     52.289718
     -2.657658     27.462943     27.462943     54.925886
     -2.647648     28.200044     28.200044     56.400088
     -2.637638     28.528289     28.528289     57.056577
     -2.627628     28.797428     28.797428     57.594856
     -2.617618     29.358345     29.358345     58.716689
     -2.607608     30.390069     30.390069     60.780139
     -2.597598     31.822402     31.822402     63.644805
     -2.587588     33.377022     33.377022     66.754043
     -2.577578     34.678295     34.678295     69.356589
     -2.567568     35.362545     35.362545     70.725091
     -2.557558     35.147421     35.147421     70.294841
     -2.547548     33.871920     33.871920     67.743839
     -2.537538     31.536487     31.536487     63.072975
     -2.527528     28.349134     28.349134     56.698268
     -2.517518     24.746242     24.746242     49.492483
     -2.507508     21.344858     21.344858     42.689716
     -2.497497     18.811377     18.811377     37.622754
     -2.487487     17.679858     17.679858     35.359716
     -2.477477     18.188383     18.188383     36.376767
     -2.467467     20.202586     20.202586     40.405173
     -2.457457     23.263149     23.263149     46.526299
     -2.447447     26.744858     26.744858     53.489716
     -2.437437     30.068731     30.068731     60.137462
     -2.427427     32.883486     32.883486     65.766973
     -2.417417     35.139910     35.139910     70.279820
     -2.407407     37.022812     37.022812     74.045623
     -2.397397     38.767324     38.767324     77.534649
     -2.387387     40.444280     40.444280     80.888560
     -2.377377     41.824560     41.824560     83.649121
     -2.367367     42.405216     42.405216     84.810432
     -2.357357     41.604436     41.604436     83.208872
     -2.347347     39.041961     39.041961     78.083923
     -2.337337     34.768144     34.768144     69.536288
     -2.327327     29.325941     29.325941     58.651882
     -2.317317     23.617088     23.617088     47.234176
     -2.307307     18.642511     18.642511     37.285022
     -2.297297     15.236902     15.236902     30.473804
     -2.287287     13.895823     13.895823     27.791645
     -2.277277     14.728479     14.728479     29.456958
     -2.267267     17.509307     17.509307     35.018613
     -2.257257     21.777496     21.777496     43.554992
     -2.247247     26.943150     26.943150     53.886301
     -2.237237     32.380194     32.380194     64.760389
     -2.227227     37.501341     37.501341     75.002682
     -2.217217     41.815224     41.815224     83.630448
     -2.207207     44.965645     44.965645     89.931290
     -2.197197     46.753099     46.753099     93.506197
     -2.187187     47.139651     47.139651     94.279303
     -2.177177     46.237199     46.237199     92.474397
     -2.167167     44.276177     44.276177     88.552354
     -2.157157     41.552005     41.552005     83.104009
     -2.147147     38.354946     38.354946     76.709891
     -2.137137     34.903294     34.903294     69.806587
     -2.127127     31.308015     31.308015     62.616029
     -2.117117     27.588036     27.588036     55.176073
     -2.107107     23.730141     23.730141     47.460282
     -2.097097     19.761367     19.761367     39.522734
     -2.087087     15.793571     15.793571     31.587142
     -2.077077     12.016114     12.016114     24.032228
     -2.067067      8.642915      8.642915     17.285830
     -2.057057      5.844455      5.844455     11.688909
     -2.047047      3.699407      3.699407      7.398813
     -2.037037      2.184896      2.184896      4.369791
     -2.027027      1.201937      1.201937      2.403873
     -2.017017      0.617674      0.617674      1.235348
     -2.007007      0.304809      0.304809      0.609617
     -1.996997      0.167325      0.167325      0.334650
     -1.986987      0.152070      0.152070      0.304140
     -1.976977      0.251594      0.251594      0.503187
     -1.966967      0.503254      0.503254      1.006508
     -1.956957      0.985057      0.985057      1.970115
     -1.946947      1.803870      1.803870      3.607741
     -1.936937      3.070354      3.070354      6.140708
     -1.926927      4.859692      4.859692      9.719383
     -1.916917      7.166800      7.166800     14.333601
     -1.906907      9.873791      9.873791     19.747582
     -1.896897     12.748518     12.748518     25.497035
     -1.886887     15.482560     15.482560     30.965119
     -1.876877     17.759749     17.759749     35.519497
     -1.866867     19.332953     19.332953     38.665906
     -1.856857     20.084734     20.084734     40.169468
     -1.846847     20.054700     20.054700     40.109399
     -1.836837     19.425349     19.425349     38.850698
     -1.826827     18.465734     18.465734     36.931468
     -1.816817     17.442807     17.442807     34.885615
     -1.806807     16.526817     16.526817     33.053634
     -1.796797     15.730853     15.730853     31.461707
     -1.786787     14.919151     14.919151     29.838302
     -1.776777     13.887512     13.887512     27.775023
     -1.766767     12.478123     12.478123     24.956246
     -1.756757     10.669210     10.669210     21.338420
     -1.746747      8.595167      8.595167     17.190334
     -1.736737      6.495091      6.495091     12.990183
     -1.726727      4.627118      4.627118      9.254235
     -1.716717      3.197128      3.197128      6.394256
     -1.706707      2.330579      2.330579      4.661158
     -1.696697      2.083422      2.083422      4.166843
     -1.686687      2.465101      2.465101      4.930202
     -1.676677      3.445472      3.445472      6.890945
     -1.666667      4.935625      4.935625      9.871250
     -1.656657      6.757531      6.757531     13.515062
     -1.646647      8.633809      8.633809     17.267618
     -1.636637     10.225478     10.225478     20.450955
     -1.626627     11.221545     11.221545     22.443090
