# EIG2DOS: Utility for SIESTA to obtain the electronic density of states
#  E. Artacho, Apr 1999, A. Garcia, Apr 2012
#  Nick R. Papior, Feb 2017
# ------------------------------------------
# Eigenvalues calculated from a non-polarized calculation
# Eigenvalues read from siesta.EIG
# Kpoint weights read from siesta.KP
# Using smearing parameter:   0.0500
# Using 1000 points in the energy range
# Selected bands: 1 to: 2981
# Emin, Emax in file for selected band(s):    -27.1185048    218.3411720
# Nbands, Nspin, Nk   =   2981     1     1
# E_F                 =    -4.2654 eV --> (shifted to ZERO)
# Broadening          =     0.0500 eV
#
#        E            N(up)  (=)   N(down)         Ntot
     -5.000000     36.018386     36.018386     72.036771
     -4.989990     39.011446     39.011446     78.022892
     -4.979980     41.306876     41.306876     82.613752
     -4.969970     42.554334     42.554334     85.108668
     -4.959960     42.561620     42.561620     85.123240
     -4.949950     41.337006     41.337006     82.674012
     -4.939940     39.095174     39.095174     78.190348
     -4.929930     36.235347     36.235347     72.470694
     -4.919920     33.305384     33.305384     66.610768
     -4.909910     30.955761     30.955761     61.911521
     -4.899900     29.868401     29.868401     59.736803
     -4.889890     30.634864     30.634864     61.269727
     -4.879880     33.576597     33.576597     67.153193
     -4.869870     38.550150     38.550150     77.100300
     -4.859860     44.833774     44.833774     89.667547
     -4.849850     51.200153     51.200153    102.400307
     -4.839840     56.212587     56.212587    112.425174
     -4.829830     58.662112     58.662112    117.324224
     -4.819820     57.964679     57.964679    115.929357
     -4.809810     54.334433     54.334433    108.668866
     -4.799800     48.655894     48.655894     97.311788
     -4.789790     42.130619     42.130619     84.261237
     -4.779780     35.875785     35.875785     71.751569
     -4.769770     30.644949     30.644949     61.289898
     -4.759760     26.745898     26.745898     53.491796
     -4.749750     24.121551     24.121551     48.243101
     -4.739740     22.502745     22.502745     45.005491
     -4.729730     21.549665     21.549665     43.099330
     -4.719720     20.940902     20.940902     41.881804
     -4.709710     20.409350     20.409350     40.818699
     -4.699700     19.746748     19.746748     39.493495
     -4.689690     18.805369     18.805369     37.610738
     -4.679680     17.519234     17.519234     35.038468
     -4.669670     15.949206     15.949206     31.898411
     -4.659660     14.332473     14.332473     28.664947
     -4.649650     13.100790     13.100790     26.201580
     -4.639640     12.834467     12.834467     25.668934
     -4.629630     14.139786     14.139786     28.279572
     -4.619620     17.466656     17.466656     34.933312
     -4.609610     22.912389     22.912389     45.824777
     -4.599600     30.080553     30.080553     60.161105
     -4.589590     38.070637     38.070637     76.141274
     -4.579580     45.648260     45.648260     91.296520
     -4.569570     51.579604     51.579604    103.159209
     -4.559560     55.028400     55.028400    110.056799
     -4.549550     55.856664     55.856664    111.713329
     -4.539540     54.686053     54.686053    109.372107
     -4.529530     52.670786     52.670786    105.341572
     -4.519520     51.062353     51.062353    102.124706
     -4.509510     50.743178     50.743178    101.486356
     -4.499499     51.920450     51.920450    103.840899
     -4.489489     54.096258     54.096258    108.192516
     -4.479479     56.305183     56.305183    112.610367
     -4.469469     57.498057     57.498057    114.996113
     -4.459459     56.903885     56.903885    113.807769
     -4.449449     54.237460     54.237460    108.474921
     -4.439439     49.710405     49.710405     99.420810
     -4.429429     43.894750     43.894750     87.789499
     -4.419419     37.533893     37.533893     75.067785
     -4.409409     31.382101     31.382101     62.764202
     -4.399399     26.103181     26.103181     52.206362
     -4.389389     22.211365     22.211365     44.422731
     -4.379379     20.022867     20.022867     40.045734
     -4.369369     19.607441     19.607441     39.214882
     -4.359359     20.762107     20.762107     41.524214
     -4.349349     23.043459     23.043459     46.086919
     -4.339339     25.875667     25.875667     51.751334
     -4.329329     28.709942     28.709942     57.419883
     -4.319319     31.176842     31.176842     62.353684
     -4.309309     33.169897     33.169897     66.339795
     -4.299299     34.829492     34.829492     69.658983
     -4.289289     36.438869     36.438869     72.877737
     -4.279279     38.274177     38.274177     76.548354
     -4.269269     40.458021     40.458021     80.916043
     -4.259259     42.860256     42.860256     85.720512
     -4.249249     45.082187     45.082187     90.164374
     -4.239239     46.547773     46.547773     93.095545
     -4.229229     46.693968     46.693968     93.387936
     -4.219219     45.201264     45.201264     90.402528
     -4.209209     42.162875     42.162875     84.325749
     -4.199199     38.097676     38.097676     76.195351
     -4.189189     33.782034     33.782034     67.564067
     -4.179179     29.973435     29.973435     59.946870
     -4.169169     27.160347     27.160347     54.320695
     -4.159159     25.455887     25.455887     50.911773
     -4.149149     24.670423     24.670423     49.340847
     -4.139139     24.504441     24.504441     49.008882
     -4.129129     24.750245     24.750245     49.500490
     -4.119119     25.398210     25.398210     50.796420
     -4.109109     26.596447     26.596447     53.192893
     -4.099099     28.485617     28.485617     56.971234
     -4.089089     30.996290     30.996290     61.992580
     -4.079079     33.727326     33.727326     67.454652
     -4.069069     35.996824     35.996824     71.993648
     -4.059059     37.071705     37.071705     74.143411
     -4.049049     36.477158     36.477158     72.954315
     -4.039039     34.227987     34.227987     68.455974
     -4.029029     30.856633     30.856633     61.713267
     -4.019019     27.223516     27.223516     54.447031
     -4.009009     24.214255     24.214255     48.428510
     -3.998999     22.478236     22.478236     44.956472
     -3.988989     22.317057     22.317057     44.634113
     -3.978979     23.729636     23.729636     47.459272
     -3.968969     26.536067     26.536067     53.072133
     -3.958959     30.485984     30.485984     60.971969
     -3.948949     35.305590     35.305590     70.611180
     -3.938939     40.701903     40.701903     81.403807
     -3.928929     46.371358     46.371358     92.742716
     -3.918919     52.036603     52.036603    104.073207
     -3.908909     57.488788     57.488788    114.977575
     -3.898899     62.587892     62.587892    125.175784
     -3.888889     67.195172     67.195172    134.390344
     -3.878879     71.064794     71.064794    142.129588
     -3.868869     73.766395     73.766395    147.532791
     -3.858859     74.711778     74.711778    149.423556
     -3.848849     73.310846     73.310846    146.621692
     -3.838839     69.209461     69.209461    138.418922
     -3.828829     62.506365     62.506365    125.012730
     -3.818819     53.841411     53.841411    107.682821
     -3.808809     44.299009     44.299009     88.598018
     -3.798799     35.152407     35.152407     70.304813
     -3.788789     27.542425     27.542425     55.084850
     -3.778779     22.204986     22.204986     44.409973
     -3.768769     19.331297     19.331297     38.662595
     -3.758759     18.587057     18.587057     37.174113
     -3.748749     19.264101     19.264101     38.528201
     -3.738739     20.508162     20.508162     41.016324
     -3.728729     21.560004     21.560004     43.120009
     -3.718719     21.954222     21.954222     43.908443
     -3.708709     21.632179     21.632179     43.264358
     -3.698699     20.941217     20.941217     41.882434
     -3.688689     20.514063     20.514063     41.028125
     -3.678679     21.052097     21.052097     42.104194
     -3.668669     23.069526     23.069526     46.139051
     -3.658659     26.680432     26.680432     53.360865
     -3.648649     31.510196     31.510196     63.020391
     -3.638639     36.775548     36.775548     73.551096
     -3.628629     41.511081     41.511081     83.022162
     -3.618619     44.854602     44.854602     89.709204
     -3.608609     46.277970     46.277970     92.555940
     -3.598599     45.682556     45.682556     91.365111
     -3.588589     43.349403     43.349403     86.698806
     -3.578579     39.797264     39.797264     79.594529
     -3.568569     35.620412     35.620412     71.240824
     -3.558559     31.354375     31.354375     62.708750
     -3.548549     27.384346     27.384346     54.768691
     -3.538539     23.897261     23.897261     47.794522
     -3.528529     20.883688     20.883688     41.767375
     -3.518519     18.196511     18.196511     36.393022
     -3.508509     15.654790     15.654790     31.309580
     -3.498498     13.154022     13.154022     26.308043
     -3.488488     10.734063     10.734063     21.468126
     -3.478478      8.575633      8.575633     17.151266
     -3.468468      6.932509      6.932509     13.865017
     -3.458458      6.033771      6.033771     12.067542
     -3.448448      5.994789      5.994789     11.989578
     -3.438438      6.763551      6.763551     13.527103
     -3.428428      8.115637      8.115637     16.231275
     -3.418418      9.702841      9.702841     19.405683
     -3.408408     11.150893     11.150893     22.301786
     -3.398398     12.183983     12.183983     24.367966
     -3.388388     12.733673     12.733673     25.467346
     -3.378378     12.984171     12.984171     25.968341
     -3.368368     13.326798     13.326798     26.653596
     -3.358358     14.236207     14.236207     28.472415
     -3.348348     16.115077     16.115077     32.230153
     -3.338338     19.160852     19.160852     38.321704
     -3.328328     23.287274     23.287274     46.574548
     -3.318318     28.106340     28.106340     56.212679
     -3.308308     32.965927     32.965927     65.931854
     -3.298298     37.046000     37.046000     74.091999
     -3.288288     39.519806     39.519806     79.039611
     -3.278278     39.763332     39.763332     79.526664
     -3.268268     37.552788     37.552788     75.105577
     -3.258258     33.163138     33.163138     66.326277
     -3.248248     27.306309     27.306309     54.612619
     -3.238238     20.921956     20.921956     41.843912
     -3.228228     14.909801     14.909801     29.819602
     -3.218218      9.918160      9.918160     19.836320
     -3.208208      6.263363      6.263363     12.526727
     -3.198198      3.980881      3.980881      7.961761
     -3.188188      2.949666      2.949666      5.899332
     -3.178178      3.015424      3.015424      6.030848
     -3.168168      4.062292      4.062292      8.124585
     -3.158158      6.022209      6.022209     12.044417
     -3.148148      8.843476      8.843476     17.686953
     -3.138138     12.452144     12.452144     24.904289
     -3.128128     16.730826     16.730826     33.461652
     -3.118118     21.518253     21.518253     43.036506
     -3.108108     26.614384     26.614384     53.228768
     -3.098098     31.774299     31.774299     63.548598
     -3.088088     36.691396     36.691396     73.382792
     -3.078078     40.991758     40.991758     81.983515
     -3.068068     44.265857     44.265857     88.531714
     -3.058058     46.142762     46.142762     92.285524
     -3.048048     46.380329     46.380329     92.760658
     -3.038038     44.928968     44.928968     89.857935
     -3.028028     41.940760     41.940760     83.881520
     -3.018018     37.728950     37.728950     75.457901
     -3.008008     32.708626     32.708626     65.417252
     -2.997998     27.349512     27.349512     54.699025
     -2.987988     22.150679     22.150679     44.301358
     -2.977978     17.624612     17.624612     35.249224
     -2.967968     14.270715     14.270715     28.541429
     -2.957958     12.526375     12.526375     25.052749
     -2.947948     12.696978     12.696978     25.393956
     -2.937938     14.876883     14.876883     29.753767
     -2.927928     18.881492     18.881492     37.762984
     -2.917918     24.218163     24.218163     48.436327
     -2.907908     30.126019     30.126019     60.252038
     -2.897898     35.701570     35.701570     71.403140
     -2.887888     40.094693     40.094693     80.189386
     -2.877878     42.719489     42.719489     85.438978
     -2.867868     43.401035     43.401035     86.802069
     -2.857858     42.392304     42.392304     84.784608
     -2.847848     40.246216     40.246216     80.492432
     -2.837838     37.592985     37.592985     75.185971
     -2.827828     34.918277     34.918277     69.836555
     -2.817818     32.437118     32.437118     64.874236
     -2.807808     30.110197     30.110197     60.220393
     -2.797798     27.777545     27.777545     55.555089
     -2.787788     25.327518     25.327518     50.655036
     -2.777778     22.807189     22.807189     45.614377
     -2.767768     20.419598     20.419598     40.839196
     -2.757758     18.421325     18.421325     36.842650
     -2.747748     16.991349     16.991349     33.982698
     -2.737738     16.155634     16.155634     32.311267
     -2.727728     15.812948     15.812948     31.625896
     -2.717718     15.839729     15.839729     31.679458
     -2.707708     16.198126     16.198126     32.396253
     -2.697698     16.967776     16.967776     33.935552
     -2.687688     18.273068     18.273068     36.546135
     -2.677678     20.151564     20.151564     40.303128
     -2.667668     22.455662     22.455662     44.911324
     -2.657658     24.864114     24.864114     49.728228
     -2.647648     27.009303     27.009303     54.018606
     -2.637638     28.646712     28.646712     57.293425
     -2.627628     29.760968     29.760968     59.521937
     -2.617618     30.542880     30.542880     61.085760
     -2.607608     31.256813     31.256813     62.513626
     -2.597598     32.085923     32.085923     64.171847
     -2.587588     33.045636     33.045636     66.091271
     -2.577578     33.996373     33.996373     67.992745
     -2.567568     34.716879     34.716879     69.433759
     -2.557558     34.975093     34.975093     69.950185
     -2.547548     34.566089     34.566089     69.132178
     -2.537538     33.336713     33.336713     66.673426
     -2.527528     31.232714     31.232714     62.465429
     -2.517518     28.371819     28.371819     56.743639
     -2.507508     25.098334     25.098334     50.196668
     -2.497497     21.959534     21.959534     43.919068
     -2.487487     19.579693     19.579693     39.159386
     -2.477477     18.469530     18.469530     36.939061
     -2.467467     18.853466     18.853466     37.706932
     -2.457457     20.596052     20.596052     41.192105
     -2.447447     23.264846     23.264846     46.529691
     -2.437437     26.304550     26.304550     52.609100
     -2.427427     29.246452     29.246452     58.492905
     -2.417417     31.860141     31.860141     63.720281
     -2.407407     34.179107     34.179107     68.358214
     -2.397397     36.388684     36.388684     72.777368
     -2.387387     38.629768     38.629768     77.259535
     -2.377377     40.815635     40.815635     81.631269
     -2.367367     42.560010     42.560010     85.120019
     -2.357357     43.267897     43.267897     86.535793
     -2.347347     42.363694     42.363694     84.727389
     -2.337337     39.559060     39.559060     79.118120
     -2.327327     35.035350     35.035350     70.070700
     -2.317317     29.452331     29.452331     58.904663
     -2.307307     23.778774     23.778774     47.557547
     -2.297297     19.023024     19.023024     38.046048
     -2.287287     15.975846     15.975846     31.951693
     -2.277277     15.051710     15.051710     30.103420
     -2.267267     16.255723     16.255723     32.511446
     -2.257257     19.251614     19.251614     38.503228
     -2.247247     23.483631     23.483631     46.967262
     -2.237237     28.307796     28.307796     56.615592
     -2.227227     33.100447     33.100447     66.200895
     -2.217217     37.325879     37.325879     74.651757
     -2.207207     40.561006     40.561006     81.122011
     -2.197197     42.493595     42.493595     84.987190
     -2.187187     42.923189     42.923189     85.846377
     -2.177177     41.787639     41.787639     83.575279
     -2.167167     39.210311     39.210311     78.420621
     -2.157157     35.529844     35.529844     71.059688
     -2.147147     31.264146     31.264146     62.528292
     -2.137137     26.989685     26.989685     53.979371
     -2.127127     23.172832     23.172832     46.345665
     -2.117117     20.032485     20.032485     40.064971
     -2.107107     17.507256     17.507256     35.014513
     -2.097097     15.344697     15.344697     30.689393
     -2.087087     13.261133     13.261133     26.522265
     -2.077077     11.085305     11.085305     22.170611
     -2.067067      8.818314      8.818314     17.636628
     -2.057057      6.598036      6.598036     13.196071
     -2.047047      4.608228      4.608228      9.216456
     -2.037037      2.990435      2.990435      5.980870
     -2.027027      1.798577      1.798577      3.597155
     -2.017017      1.002583      1.002583      2.005166
     -2.007007      0.522453      0.522453      1.044906
     -1.996997      0.268265      0.268265      0.536530
     -1.986987      0.170332      0.170332      0.340664
     -1.976977      0.195871      0.195871      0.391741
     -1.966967      0.355729      0.355729      0.711458
     -1.956957      0.704772      0.704772      1.409545
     -1.946947      1.335302      1.335302      2.670604
     -1.936937      2.359096      2.359096      4.718192
     -1.926927      3.874632      3.874632      7.749264
     -1.916917      5.923113      5.923113     11.846226
     -1.906907      8.447009      8.447009     16.894018
     -1.896897     11.270795     11.270795     22.541590
     -1.886887     14.119023     14.119023     28.238046
     -1.876877     16.672118     16.672118     33.344236
     -1.866867     18.643739     18.643739     37.287479
     -1.856857     19.855433     19.855433     39.710866
     -1.846847     20.287416     20.287416     40.574831
     -1.836837     20.092428     20.092428     40.184855
     -1.826827     19.565735     19.565735     39.131471
     -1.816817     19.069905     19.069905     38.139811
     -1.806807     18.924984     18.924984     37.849968
     -1.796797     19.294052     19.294052     38.588104
     -1.786787     20.108753     20.108753     40.217506
     -1.776777     21.073367     21.073367     42.146734
     -1.766767     21.755680     21.755680     43.511360
     -1.756757     21.733391     21.733391     43.466783
     -1.746747     20.739041     20.739041     41.478082
     -1.736737     18.748553     18.748553     37.497106
     -1.726727     15.985353     15.985353     31.970707
     -1.716717     12.848258     12.848258     25.696516
     -1.706707      9.799212      9.799212     19.598423
     -1.696697      7.255106      7.255106     14.510213
     -1.686687      5.514969      5.514969     11.029938
     -1.676677      4.729255      4.729255      9.458509
     -1.666667      4.897320      4.897320      9.794639
     -1.656657      5.875086      5.875086     11.750172
     -1.646647      7.388065      7.388065     14.776130
     -1.636637      9.062296      9.062296     18.124592
     -1.626627     10.489988     10.489988     20.979976
