# EIG2DOS: Utility for SIESTA to obtain the electronic density of states
#  E. Artacho, Apr 1999, A. Garcia, Apr 2012
#  Nick R. Papior, Feb 2017
# ------------------------------------------
# Eigenvalues calculated from a non-polarized calculation
# Eigenvalues read from siesta.EIG
# Kpoint weights read from siesta.KP
# Using smearing parameter:   0.0500
# Using 1000 points in the energy range
# Selected bands: 1 to: 2981
# Emin, Emax in file for selected band(s):    -27.2902660    218.3713170
# Nbands, Nspin, Nk   =   2981     1     1
# E_F                 =    -4.2323 eV --> (shifted to ZERO)
# Broadening          =     0.0500 eV
#
#        E            N(up)  (=)   N(down)         Ntot
     -5.000000     35.988353     35.988353     71.976707
     -4.989990     39.680136     39.680136     79.360271
     -4.979980     42.474979     42.474979     84.949958
     -4.969970     43.952994     43.952994     87.905989
     -4.959960     43.896115     43.896115     87.792229
     -4.949950     42.357824     42.357824     84.715647
     -4.939940     39.660909     39.660909     79.321818
     -4.929930     36.340938     36.340938     72.681876
     -4.919920     33.068256     33.068256     66.136511
     -4.909910     30.568131     30.568131     61.136262
     -4.899900     29.530589     29.530589     59.061178
     -4.889890     30.485908     30.485908     60.971815
     -4.879880     33.641074     33.641074     67.282149
     -4.869870     38.722465     38.722465     77.444930
     -4.859860     44.914636     44.914636     89.829272
     -4.849850     50.979140     50.979140    101.958280
     -4.839840     55.564044     55.564044    111.128088
     -4.829830     57.608401     57.608401    115.216802
     -4.819820     56.674497     56.674497    113.348993
     -4.809810     53.058655     53.058655    106.117309
     -4.799800     47.636065     47.636065     95.272131
     -4.789790     41.524509     41.524509     83.049018
     -4.779780     35.727449     35.727449     71.454898
     -4.769770     30.899814     30.899814     61.799628
     -4.759760     27.294042     27.294042     54.588085
     -4.749750     24.851666     24.851666     49.703332
     -4.739740     23.357113     23.357113     46.714227
     -4.729730     22.574556     22.574556     45.149112
     -4.719720     22.322396     22.322396     44.644791
     -4.709710     22.477739     22.477739     44.955478
     -4.699700     22.933198     22.933198     45.866396
     -4.689690     23.547523     23.547523     47.095047
     -4.679680     24.134567     24.134567     48.269135
     -4.669670     24.515789     24.515789     49.031577
     -4.659660     24.623621     24.623621     49.247242
     -4.649650     24.604134     24.604134     49.208268
     -4.639640     24.850376     24.850376     49.700752
     -4.629630     25.916899     25.916899     51.833797
     -4.619620     28.318135     28.318135     56.636269
     -4.609610     32.277545     32.277545     64.555091
     -4.599600     37.538655     37.538655     75.077310
     -4.589590     43.343825     43.343825     86.687651
     -4.579580     48.623456     48.623456     97.246911
     -4.569570     52.341321     52.341321    104.682642
     -4.559560     53.860124     53.860124    107.720249
     -4.549550     53.171555     53.171555    106.343111
     -4.539540     50.891131     50.891131    101.782261
     -4.529530     48.021356     48.021356     96.042711
     -4.519520     45.584636     45.584636     91.169272
     -4.509510     44.274450     44.274450     88.548900
     -4.499499     44.253761     44.253761     88.507522
     -4.489489     45.159526     45.159526     90.319051
     -4.479479     46.286611     46.286611     92.573222
     -4.469469     46.860321     46.860321     93.720641
     -4.459459     46.287758     46.287758     92.575516
     -4.449449     44.306456     44.306456     88.612911
     -4.439439     41.005299     41.005299     82.010598
     -4.429429     36.747926     36.747926     73.495853
     -4.419419     32.056647     32.056647     64.113295
     -4.409409     27.506458     27.506458     55.012916
     -4.399399     23.646358     23.646358     47.292715
     -4.389389     20.935152     20.935152     41.870305
     -4.379379     19.673844     19.673844     39.347688
     -4.369369     19.938401     19.938401     39.876802
     -4.359359     21.544329     21.544329     43.088658
     -4.349349     24.080401     24.080401     48.160803
     -4.339339     27.022113     27.022113     54.044226
     -4.329329     29.891252     29.891252     59.782504
     -4.319319     32.397139     32.397139     64.794278
     -4.309309     34.499325     34.499325     68.998650
     -4.299299     36.367705     36.367705     72.735409
     -4.289289     38.260286     38.260286     76.520572
     -4.279279     40.367535     40.367535     80.735070
     -4.269269     42.678620     42.678620     85.357240
     -4.259259     44.917387     44.917387     89.834774
     -4.249249     46.581282     46.581282     93.162563
     -4.239239     47.090112     47.090112     94.180223
     -4.229229     46.007878     46.007878     92.015756
     -4.219219     43.252993     43.252993     86.505986
     -4.209209     39.193645     39.193645     78.387289
     -4.199199     34.563847     34.563847     69.127694
     -4.189189     30.222493     30.222493     60.444986
     -4.179179     26.862803     26.862803     53.725606
     -4.169169     24.807680     24.807680     49.615360
     -4.159159     23.979185     23.979185     47.958370
     -4.149149     24.038615     24.038615     48.077230
     -4.139139     24.611833     24.611833     49.223666
     -4.129129     25.482297     25.482297     50.964593
     -4.119119     26.658719     26.658719     53.317437
     -4.109109     28.288031     28.288031     56.576063
     -4.099099     30.460686     30.460686     60.921372
     -4.089089     33.015194     33.015194     66.030387
     -4.079079     35.462437     35.462437     70.924874
     -4.069069     37.099396     37.099396     74.198793
     -4.059059     37.280875     37.280875     74.561750
     -4.049049     35.720040     35.720040     71.440080
     -4.039039     32.658669     32.658669     65.317339
     -4.029029     28.813253     28.813253     57.626507
     -4.019019     25.126154     25.126154     50.252308
     -4.009009     22.453144     22.453144     44.906288
     -3.998999     21.336611     21.336611     42.673223
     -3.988989     21.944653     21.944653     43.889307
     -3.978979     24.154409     24.154409     48.308818
     -3.968969     27.691227     27.691227     55.382453
     -3.958959     32.237796     32.237796     64.475592
     -3.948949     37.481343     37.481343     74.962686
     -3.938939     43.122600     43.122600     86.245199
     -3.928929     48.885994     48.885994     97.771988
     -3.918919     54.543229     54.543229    109.086458
     -3.908909     59.925343     59.925343    119.850687
     -3.898899     64.889968     64.889968    129.779935
     -3.888889     69.241280     69.241280    138.482561
     -3.878879     72.645626     72.645626    145.291251
     -3.868869     74.608443     74.608443    149.216886
     -3.858859     74.557689     74.557689    149.115379
     -3.848849     72.024976     72.024976    144.049953
     -3.838839     66.858844     66.858844    133.717687
     -3.828829     59.376513     59.376513    118.753027
     -3.818819     50.377133     50.377133    100.754266
     -3.808809     40.994062     40.994062     81.988124
     -3.798799     32.430175     32.430175     64.860350
     -3.788789     25.666517     25.666517     51.333034
     -3.778779     21.240596     21.240596     42.481192
     -3.768769     19.158095     19.158095     38.316191
     -3.758759     18.951319     18.951319     37.902639
     -3.748749     19.853228     19.853228     39.706456
     -3.738739     21.030879     21.030879     42.061758
     -3.728729     21.816583     21.816583     43.633167
     -3.718719     21.882208     21.882208     43.764417
     -3.708709     21.316049     21.316049     42.632098
     -3.698699     20.581036     20.581036     41.162071
     -3.688689     20.358705     20.358705     40.717410
     -3.678679     21.314570     21.314570     42.629140
     -3.668669     23.850844     23.850844     47.701688
     -3.658659     27.928968     27.928968     55.857936
     -3.648649     33.032352     33.032352     66.064704
     -3.638639     38.293611     38.293611     76.587223
     -3.628629     42.744297     42.744297     85.488594
     -3.618619     45.591115     45.591115     91.182231
     -3.608609     46.413636     46.413636     92.827273
     -3.598599     45.222037     45.222037     90.444074
     -3.588589     42.382179     42.382179     84.764359
     -3.578579     38.465748     38.465748     76.931496
     -3.568569     34.090025     34.090025     68.180049
     -3.558559     29.786272     29.786272     59.572545
     -3.548549     25.909623     25.909623     51.819245
     -3.538539     22.596728     22.596728     45.193457
     -3.528529     19.781638     19.781638     39.563276
     -3.518519     17.273472     17.273472     34.546945
     -3.508509     14.874438     14.874438     29.748875
     -3.498498     12.491191     12.491191     24.982382
     -3.488488     10.190730     10.190730     20.381460
     -3.478478      8.179365      8.179365     16.358731
     -3.468468      6.721049      6.721049     13.442097
     -3.458458      6.034472      6.034472     12.068944
     -3.448448      6.207806      6.207806     12.415612
     -3.438438      7.155921      7.155921     14.311841
     -3.428428      8.631847      8.631847     17.263694
     -3.418418     10.295101     10.295101     20.590202
     -3.408408     11.826539     11.826539     23.653079
     -3.398398     13.058248     13.058248     26.116496
     -3.388388     14.067468     14.067468     28.134937
     -3.378378     15.184234     15.184234     30.368468
     -3.368368     16.892635     16.892635     33.785271
     -3.358358     19.653370     19.653370     39.306740
     -3.348348     23.712983     23.712983     47.425965
     -3.338338     28.970493     28.970493     57.940986
     -3.328328     34.944682     34.944682     69.889365
     -3.318318     40.845972     40.845972     81.691944
     -3.308308     45.729030     45.729030     91.458060
     -3.298298     48.692786     48.692786     97.385573
     -3.288288     49.091687     49.091687     98.183374
     -3.278278     46.713053     46.713053     93.426107
     -3.268268     41.865462     41.865462     83.730924
     -3.258258     35.332724     35.332724     70.665449
     -3.248248     28.189641     28.189641     56.379282
     -3.238238     21.533206     21.533206     43.066412
     -3.228228     16.220425     16.220425     32.440849
     -3.218218     12.696684     12.696684     25.393368
     -3.208208     10.954759     10.954759     21.909517
     -3.198198     10.615174     10.615174     21.230348
     -3.188188     11.088832     11.088832     22.177665
     -3.178178     11.774311     11.774311     23.548621
     -3.168168     12.242312     12.242312     24.484623
     -3.158158     12.361143     12.361143     24.722286
     -3.148148     12.325383     12.325383     24.650766
     -3.138138     12.573066     12.573066     25.146132
     -3.128128     13.612066     13.612066     27.224131
     -3.118118     15.809982     15.809982     31.619964
     -3.108108     19.218947     19.218947     38.437895
     -3.098098     23.500229     23.500229     47.000458
     -3.088088     27.983999     27.983999     55.967998
     -3.078078     31.853108     31.853108     63.706217
     -3.068068     34.389027     34.389027     68.778054
     -3.058058     35.185002     35.185002     70.370004
     -3.048048     34.238861     34.238861     68.477723
     -3.038038     31.891673     31.891673     63.783346
     -3.028028     28.654675     28.654675     57.309350
     -3.018018     25.020842     25.020842     50.041683
     -3.008008     21.354397     21.354397     42.708793
     -2.997998     17.894572     17.894572     35.789144
     -2.987988     14.838934     14.838934     29.677868
     -2.977978     12.432521     12.432521     24.865043
     -2.967968     10.999641     10.999641     21.999281
     -2.957958     10.897305     10.897305     21.794611
     -2.947948     12.410551     12.410551     24.821102
     -2.937938     15.630936     15.630936     31.261873
     -2.927928     20.362105     20.362105     40.724210
     -2.917918     26.090056     26.090056     52.180111
     -2.907908     32.043478     32.043478     64.086956
     -2.897898     37.346187     37.346187     74.692375
     -2.887888     41.228625     41.228625     82.457251
     -2.877878     43.231158     43.231158     86.462316
     -2.867868     43.320029     43.320029     86.640057
     -2.857858     41.862203     41.862203     83.724407
     -2.847848     39.462764     39.462764     78.925527
     -2.837838     36.731597     36.731597     73.463194
     -2.827828     34.080942     34.080942     68.161885
     -2.817818     31.640306     31.640306     63.280613
     -2.807808     29.315577     29.315577     58.631154
     -2.797798     26.945853     26.945853     53.891706
     -2.787788     24.464630     24.464630     48.929260
     -2.777778     21.977457     21.977457     43.954914
     -2.767768     19.722105     19.722105     39.444209
     -2.757758     17.947829     17.947829     35.895659
     -2.747748     16.795812     16.795812     33.591625
     -2.737738     16.256188     16.256188     32.512376
     -2.727728     16.222664     16.222664     32.445328
     -2.717718     16.598307     16.598307     33.196614
     -2.707708     17.370567     17.370567     34.741134
     -2.697698     18.595856     18.595856     37.191712
     -2.687688     20.301157     20.301157     40.602314
     -2.677678     22.376158     22.376158     44.752315
     -2.667668     24.545253     24.545253     49.090506
     -2.657658     26.458495     26.458495     52.916990
     -2.647648     27.856296     27.856296     55.712592
     -2.637638     28.704668     28.704668     57.409336
     -2.627628     29.210472     29.210472     58.420944
     -2.617618     29.703149     29.703149     59.406298
     -2.607608     30.455555     30.455555     60.911110
     -2.597598     31.549578     31.549578     63.099157
     -2.587588     32.851479     32.851479     65.702958
     -2.577578     34.083952     34.083952     68.167903
     -2.567568     34.928981     34.928981     69.857962
     -2.557558     35.103138     35.103138     70.206275
     -2.547548     34.396559     34.396559     68.793117
     -2.537538     32.706675     32.706675     65.413349
     -2.527528     30.091476     30.091476     60.182952
     -2.517518     26.825135     26.825135     53.650270
     -2.507508     23.404867     23.404867     46.809733
     -2.497497     20.467170     20.467170     40.934341
     -2.487487     18.620657     18.620657     37.241315
     -2.477477     18.256250     18.256250     36.512500
     -2.467467     19.417562     19.417562     38.835124
     -2.457457     21.792434     21.792434     43.584868
     -2.447447     24.834395     24.834395     49.668791
     -2.437437     27.965993     27.965993     55.931986
     -2.427427     30.779210     30.779210     61.558420
     -2.417417     33.147184     33.147184     66.294369
     -2.407407     35.197945     35.197945     70.395890
     -2.397397     37.161285     37.161285     74.322570
     -2.387387     39.159156     39.159156     78.318312
     -2.377377     41.041854     41.041854     82.083708
     -2.367367     42.359488     42.359488     84.718976
     -2.357357     42.500589     42.500589     85.001178
     -2.347347     40.948564     40.948564     81.897128
     -2.337337     37.541413     37.541413     75.082826
     -2.327327     32.610179     32.610179     65.220358
     -2.317317     26.928664     26.928664     53.857327
     -2.307307     21.500156     21.500156     43.000313
     -2.297297     17.280255     17.280255     34.560509
     -2.287287     14.947524     14.947524     29.895048
     -2.277277     14.789067     14.789067     29.578134
     -2.267267     16.704784     16.704784     33.409568
     -2.257257     20.291694     20.291694     40.583387
     -2.247247     24.961024     24.961024     49.922049
     -2.237237     30.053119     30.053119     60.106238
     -2.227227     34.930559     34.930559     69.861118
     -2.217217     39.041051     39.041051     78.082102
     -2.207207     41.951487     41.951487     83.902974
     -2.197197     43.365301     43.365301     86.730603
     -2.187187     43.140895     43.140895     86.281790
     -2.177177     41.320466     41.320466     82.640933
     -2.167167     38.155998     38.155998     76.311997
     -2.157157     34.098111     34.098111     68.196223
     -2.147147     29.716541     29.716541     59.433082
     -2.137137     25.556393     25.556393     51.112786
     -2.127127     21.982381     21.982381     43.964762
     -2.117117     19.086894     19.086894     38.173788
     -2.107107     16.712535     16.712535     33.425069
     -2.097097     14.577727     14.577727     29.155453
     -2.087087     12.436662     12.436662     24.873324
     -2.077077     10.191371     10.191371     20.382742
     -2.067067      7.910258      7.910258     15.820517
     -2.057057      5.765224      5.765224     11.530449
     -2.047047      3.939411      3.939411      7.878821
     -2.037037      2.559445      2.559445      5.118890
     -2.027027      1.678025      1.678025      3.356050
     -2.017017      1.298698      1.298698      2.597395
     -2.007007      1.414597      1.414597      2.829194
     -1.996997      2.032316      2.032316      4.064632
     -1.986987      3.165494      3.165494      6.330988
     -1.976977      4.801642      4.801642      9.603284
     -1.966967      6.862607      6.862607     13.725214
     -1.956957      9.186674      9.186674     18.373348
     -1.946947     11.552404     11.552404     23.104808
     -1.936937     13.741106     13.741106     27.482212
     -1.926927     15.608110     15.608110     31.216219
     -1.916917     17.121721     17.121721     34.243442
     -1.906907     18.344726     18.344726     36.689451
     -1.896897     19.368437     19.368437     38.736874
     -1.886887     20.239154     20.239154     40.478308
     -1.876877     20.920219     20.920219     41.840438
     -1.866867     21.309190     21.309190     42.618381
     -1.856857     21.297532     21.297532     42.595065
     -1.846847     20.839589     20.839589     41.679177
     -1.836837     19.995357     19.995357     39.990714
     -1.826827     18.923584     18.923584     37.847168
     -1.816817     17.822564     17.822564     35.645127
     -1.806807     16.841405     16.841405     33.682811
     -1.796797     16.005102     16.005102     32.010205
     -1.786787     15.197457     15.197457     30.394914
     -1.776777     14.218656     14.218656     28.437312
     -1.766767     12.891175     12.891175     25.782349
     -1.756757     11.157240     11.157240     22.314481
     -1.746747      9.116175      9.116175     18.232351
     -1.736737      6.987569      6.987569     13.975138
     -1.726727      5.029356      5.029356     10.058713
     -1.716717      3.459561      3.459561      6.919122
     -1.706707      2.417543      2.417543      4.835085
     -1.696697      1.969072      1.969072      3.938144
     -1.686687      2.132277      2.132277      4.264554
     -1.676677      2.893841      2.893841      5.787682
     -1.666667      4.197902      4.197902      8.395803
     -1.656657      5.914095      5.914095     11.828190
     -1.646647      7.812079      7.812079     15.624158
     -1.636637      9.574872      9.574872     19.149745
     -1.626627     10.867060     10.867060     21.734119
