# EIG2DOS: Utility for SIESTA to obtain the electronic density of states
#  E. Artacho, Apr 1999, A. Garcia, Apr 2012
#  Nick R. Papior, Feb 2017
# ------------------------------------------
# Eigenvalues calculated from a non-polarized calculation
# Eigenvalues read from siesta.EIG
# Kpoint weights read from siesta.KP
# Using smearing parameter:   0.0500
# Using 1000 points in the energy range
# Selected bands: 1 to: 2981
# Emin, Emax in file for selected band(s):    -27.4039258    218.4026980
# Nbands, Nspin, Nk   =   2981     1     1
# E_F                 =    -4.1953 eV --> (shifted to ZERO)
# Broadening          =     0.0500 eV
#
#        E            N(up)  (=)   N(down)         Ntot
     -5.000000     30.263540     30.263540     60.527080
     -4.989990     35.358451     35.358451     70.716901
     -4.979980     40.414950     40.414950     80.829899
     -4.969970     44.589539     44.589539     89.179078
     -4.959960     47.091132     47.091132     94.182264
     -4.949950     47.441008     47.441008     94.882016
     -4.939940     45.640373     45.640373     91.280746
     -4.929930     42.187434     42.187434     84.374867
     -4.919920     37.956259     37.956259     75.912518
     -4.909910     33.998241     33.998241     67.996481
     -4.899900     31.329400     31.329400     62.658800
     -4.889890     30.737527     30.737527     61.475053
     -4.879880     32.619959     32.619959     65.239918
     -4.869870     36.869640     36.869640     73.739280
     -4.859860     42.850267     42.850267     85.700534
     -4.849850     49.503756     49.503756     99.007511
     -4.839840     55.592204     55.592204    111.184407
     -4.829830     60.009674     60.009674    120.019347
     -4.819820     62.052801     62.052801    124.105603
     -4.809810     61.550532     61.550532    123.101063
     -4.799800     58.819222     58.819222    117.638445
     -4.789790     54.488644     54.488644    108.977288
     -4.779780     49.289268     49.289268     98.578535
     -4.769770     43.881867     43.881867     87.763735
     -4.759760     38.765036     38.765036     77.530072
     -4.749750     34.251059     34.251059     68.502118
     -4.739740     30.480653     30.480653     60.961306
     -4.729730     27.451791     27.451791     54.903582
     -4.719720     25.051546     25.051546     50.103092
     -4.709710     23.090254     23.090254     46.180507
     -4.699700     21.342417     21.342417     42.684834
     -4.689690     19.600125     19.600125     39.200250
     -4.679680     17.740225     17.740225     35.480451
     -4.669670     15.794325     15.794325     31.588649
     -4.659660     13.996655     13.996655     27.993311
     -4.649650     12.780092     12.780092     25.560183
     -4.639640     12.701509     12.701509     25.403018
     -4.629630     14.299988     14.299988     28.599977
     -4.619620     17.916036     17.916036     35.832072
     -4.609610     23.521047     23.521047     47.042095
     -4.599600     30.619416     30.619416     61.238833
     -4.589590     38.281975     38.281975     76.563950
     -4.579580     45.336969     45.336969     90.673939
     -4.569570     50.683545     50.683545    101.367090
     -4.559560     53.626567     53.626567    107.253134
     -4.549550     54.099910     54.099910    108.199821
     -4.539540     52.675916     52.675916    105.351833
     -4.529530     50.344441     50.344441    100.688883
     -4.519520     48.144970     48.144970     96.289941
     -4.509510     46.799352     46.799352     93.598704
     -4.499499     46.489946     46.489946     92.979892
     -4.489489     46.861286     46.861286     93.722571
     -4.479479     47.225652     47.225652     94.451304
     -4.469469     46.869857     46.869857     93.739713
     -4.459459     45.328904     45.328904     90.657809
     -4.449449     42.523166     42.523166     85.046332
     -4.439439     38.729870     38.729870     77.459740
     -4.429429     34.437672     34.437672     68.875344
     -4.419419     30.175496     30.175496     60.350992
     -4.409409     26.395119     26.395119     52.790237
     -4.399399     23.433841     23.433841     46.867683
     -4.389389     21.526261     21.526261     43.052523
     -4.379379     20.811265     20.811265     41.622530
     -4.369369     21.304637     21.304637     42.609274
     -4.359359     22.856227     22.856227     45.712454
     -4.349349     25.142319     25.142319     50.284639
     -4.339339     27.732095     27.732095     55.464189
     -4.329329     30.220069     30.220069     60.440139
     -4.319319     32.368781     32.368781     64.737563
     -4.309309     34.190396     34.190396     68.380793
     -4.299299     35.920222     35.920222     71.840444
     -4.289289     37.882657     37.882657     75.765313
     -4.279279     40.296990     40.296990     80.593980
     -4.269269     43.100381     43.100381     86.200762
     -4.259259     45.870042     45.870042     91.740084
     -4.249249     47.900144     47.900144     95.800287
     -4.239239     48.430357     48.430357     96.860714
     -4.229229     46.948543     46.948543     93.897085
     -4.219219     43.437361     43.437361     86.874721
     -4.209209     38.442612     38.442612     76.885224
     -4.199199     32.918270     32.918270     65.836540
     -4.189189     27.911637     27.911637     55.823275
     -4.179179     24.229319     24.229319     48.458638
     -4.169169     22.226634     22.226634     44.453269
     -4.159159     21.793751     21.793751     43.587501
     -4.149149     22.515613     22.515613     45.031227
     -4.139139     23.910926     23.910926     47.821852
     -4.129129     25.635489     25.635489     51.270978
     -4.119119     27.564742     27.564742     55.129485
     -4.109109     29.730072     29.730072     59.460144
     -4.099099     32.150975     32.150975     64.301950
     -4.089089     34.657857     34.657857     69.315714
     -4.079079     36.814157     36.814157     73.628314
     -4.069069     38.005032     38.005032     76.010063
     -4.059059     37.672631     37.672631     75.345263
     -4.049049     35.589033     35.589033     71.178067
     -4.039039     32.024011     32.024011     64.048023
     -4.029029     27.714052     27.714052     55.428104
     -4.019019     23.643900     23.643900     47.287800
     -4.009009     20.746546     20.746546     41.493093
     -3.998999     19.655644     19.655644     39.311288
     -3.988989     20.597831     20.597831     41.195662
     -3.978979     23.430750     23.430750     46.861501
     -3.968969     27.768776     27.768776     55.537551
     -3.958959     33.123081     33.123081     66.246163
     -3.948949     39.009675     39.009675     78.019350
     -3.938939     45.017348     45.017348     90.034697
     -3.928929     50.846769     50.846769    101.693539
     -3.918919     56.324304     56.324304    112.648608
     -3.908909     61.377704     61.377704    122.755408
     -3.898899     65.961719     65.961719    131.923438
     -3.888889     69.949050     69.949050    139.898100
     -3.878879     73.037507     73.037507    146.075015
     -3.868869     74.736815     74.736815    149.473630
     -3.858859     74.470781     74.470781    148.941562
     -3.848849     71.773819     71.773819    143.547637
     -3.838839     66.507097     66.507097    133.014193
     -3.828829     59.000119     59.000119    118.000237
     -3.818819     50.049485     50.049485    100.098971
     -3.808809     40.764324     40.764324     81.528647
     -3.798799     32.308555     32.308555     64.617111
     -3.788789     25.626277     25.626277     51.252554
     -3.778779     21.235759     21.235759     42.471518
     -3.768769     19.146570     19.146570     38.293141
     -3.758759     18.911307     18.911307     37.822614
     -3.748749     19.786050     19.786050     39.572100
     -3.738739     20.951129     20.951129     41.902257
     -3.728729     21.736117     21.736117     43.472235
     -3.718719     21.796366     21.796366     43.592733
     -3.708709     21.199195     21.199195     42.398390
     -3.698699     20.395041     20.395041     40.790082
     -3.688689     20.072775     20.072775     40.145551
     -3.678679     20.928713     20.928713     41.857427
     -3.668669     23.410856     23.410856     46.821713
     -3.658659     27.521751     27.521751     55.043502
     -3.648649     32.758648     32.758648     65.517295
     -3.638639     38.227996     38.227996     76.455993
     -3.628629     42.901923     42.901923     85.803846
     -3.618619     45.919631     45.919631     91.839262
     -3.608609     46.815796     46.815796     93.631591
     -3.598599     45.597423     45.597423     91.194846
     -3.588589     42.666801     42.666801     85.333601
     -3.578579     38.652707     38.652707     77.305413
     -3.568569     34.229309     34.229309     68.458618
     -3.558559     29.975916     29.975916     59.951832
     -3.548549     26.293927     26.293927     52.587855
     -3.538539     23.378008     23.378008     46.756015
     -3.528529     21.236348     21.236348     42.472697
     -3.518519     19.751452     19.751452     39.502904
     -3.508509     18.759008     18.759008     37.518016
     -3.498498     18.111060     18.111060     36.222120
     -3.488488     17.699088     17.699088     35.398177
     -3.478478     17.441644     17.441644     34.883288
     -3.468468     17.265500     17.265500     34.531000
     -3.458458     17.105735     17.105735     34.211470
     -3.448448     16.922458     16.922458     33.844916
     -3.438438     16.708944     16.708944     33.417888
     -3.428428     16.472838     16.472838     32.945676
     -3.418418     16.203285     16.203285     32.406570
     -3.408408     15.860377     15.860377     31.720755
     -3.398398     15.412491     15.412491     30.824983
     -3.388388     14.907512     14.907512     29.815025
     -3.378378     14.529624     14.529624     29.059249
     -3.368368     14.594865     14.594865     29.189729
     -3.358358     15.475528     15.475528     30.951055
     -3.348348     17.485377     17.485377     34.970753
     -3.338338     20.772810     20.772810     41.545621
     -3.328328     25.252322     25.252322     50.504644
     -3.318318     30.578860     30.578860     61.157721
     -3.308308     36.161380     36.161380     72.322759
     -3.298298     41.223392     41.223392     82.446783
     -3.288288     44.925987     44.925987     89.851974
     -3.278278     46.548970     46.548970     93.097941
     -3.268268     45.683767     45.683767     91.367535
     -3.258258     42.361801     42.361801     84.723603
     -3.248248     37.055937     37.055937     74.111874
     -3.238238     30.548184     30.548184     61.096368
     -3.228228     23.718406     23.718406     47.436811
     -3.218218     17.337639     17.337639     34.675278
     -3.208208     11.934111     11.934111     23.868222
     -3.198198      7.758200      7.758200     15.516400
     -3.188188      4.832029      4.832029      9.664058
     -3.178178      3.047005      3.047005      6.094010
     -3.168168      2.269220      2.269220      4.538440
     -3.158158      2.420168      2.420168      4.840336
     -3.148148      3.511014      3.511014      7.022029
     -3.138138      5.620004      5.620004     11.240009
     -3.128128      8.816555      8.816555     17.633110
     -3.118118     13.054135     13.054135     26.108271
     -3.108108     18.073745     18.073745     36.147491
     -3.098098     23.369369     23.369369     46.738738
     -3.088088     28.252969     28.252969     56.505938
     -3.078078     32.015877     32.015877     64.031754
     -3.068068     34.131431     34.131431     68.262861
     -3.058058     34.410890     34.410890     68.821779
     -3.048048     33.037460     33.037460     66.074920
     -3.038038     30.462138     30.462138     60.924276
     -3.028028     27.218067     27.218067     54.436133
     -3.018018     23.751400     23.751400     47.502800
     -3.008008     20.349084     20.349084     40.698167
     -2.997998     17.180172     17.180172     34.360343
     -2.987988     14.400718     14.400718     28.801436
     -2.977978     12.244324     12.244324     24.488648
     -2.967968     11.041099     11.041099     22.082199
     -2.957958     11.154148     11.154148     22.308295
     -2.947948     12.862632     12.862632     25.725263
     -2.937938     16.237561     16.237561     32.475122
     -2.927928     21.054721     21.054721     42.109441
     -2.917918     26.779010     26.779010     53.558019
     -2.907908     32.639073     32.639073     65.278145
     -2.897898     37.786733     37.786733     75.573467
     -2.887888     41.503021     41.503021     83.006042
     -2.877878     43.383896     43.383896     86.767793
     -2.867868     43.433180     43.433180     86.866361
     -2.857858     42.019234     42.019234     84.038468
     -2.847848     39.708218     39.708218     79.416436
     -2.837838     37.044100     37.044100     74.088200
     -2.827828     34.372483     34.372483     68.744966
     -2.817818     31.783903     31.783903     63.567805
     -2.807808     29.190864     29.190864     58.381729
     -2.797798     26.484021     26.484021     52.968041
     -2.787788     23.674703     23.674703     47.349407
     -2.777778     20.944976     20.944976     41.889952
     -2.767768     18.583821     18.583821     37.167642
     -2.757758     16.855324     16.855324     33.710647
     -2.747748     15.882501     15.882501     31.765001
     -2.737738     15.616685     15.616685     31.233371
     -2.727728     15.905446     15.905446     31.810892
     -2.717718     16.607057     16.607057     33.214115
     -2.707708     17.668793     17.668793     35.337586
     -2.697698     19.112257     19.112257     38.224514
     -2.687688     20.936968     20.936968     41.873936
     -2.677678     23.017385     23.017385     46.034770
     -2.667668     25.080982     25.080982     50.161964
     -2.657658     26.802105     26.802105     53.604211
     -2.647648     27.962579     27.962579     55.925159
     -2.637638     28.575959     28.575959     57.151917
     -2.627628     28.889850     28.889850     57.779700
     -2.617618     29.259225     29.259225     58.518450
     -2.607608     29.966280     29.966280     59.932561
     -2.597598     31.089773     31.089773     62.179547
     -2.587588     32.483439     32.483439     64.966877
     -2.577578     33.848089     33.848089     67.696178
     -2.567568     34.834264     34.834264     69.668528
     -2.557558     35.121753     35.121753     70.243506
     -2.547548     34.468261     34.468261     68.936523
     -2.537538     32.753713     32.753713     65.507426
     -2.527528     30.038616     30.038616     60.077232
     -2.517518     26.616872     26.616872     53.233743
     -2.507508     23.015508     23.015508     46.031015
     -2.497497     19.905547     19.905547     39.811094
     -2.487487     17.933900     17.933900     35.867799
     -2.477477     17.533704     17.533704     35.067409
     -2.467467     18.789650     18.789650     37.579300
     -2.457457     21.416429     21.416429     42.832857
     -2.447447     24.863758     24.863758     49.727517
     -2.437437     28.509838     28.509838     57.019677
     -2.427427     31.866395     31.866395     63.732790
     -2.417417     34.709123     34.709123     69.418246
     -2.407407     37.075649     37.075649     74.151298
     -2.397397     39.131977     39.131977     78.263954
     -2.387387     40.973312     40.973312     81.946624
     -2.377377     42.463852     42.463852     84.927704
     -2.367367     43.208672     43.208672     86.417344
     -2.357357     42.688539     42.688539     85.377077
     -2.347347     40.503158     40.503158     81.006316
     -2.337337     36.605774     36.605774     73.211548
     -2.327327     31.410768     31.410768     62.821537
     -2.317317     25.719925     25.719925     51.439849
     -2.307307     20.504382     20.504382     41.008763
     -2.297297     16.642917     16.642917     33.285833
     -2.287287     14.719889     14.719889     29.439778
     -2.277277     14.937986     14.937986     29.875972
     -2.267267     17.140883     17.140883     34.281767
     -2.257257     20.903931     20.903931     41.807861
     -2.247247     25.646245     25.646245     51.292490
     -2.237237     30.732368     30.732368     61.464737
     -2.227227     35.549548     35.549548     71.099095
     -2.217217     39.559875     39.559875     79.119751
     -2.207207     42.335371     42.335371     84.670742
     -2.197197     43.589386     43.589386     87.178772
     -2.187187     43.215899     43.215899     86.431799
     -2.177177     41.334607     41.334607     82.669215
     -2.167167     38.317126     38.317126     76.634253
     -2.157157     34.753624     34.753624     69.507249
     -2.147147     31.330150     31.330150     62.660300
     -2.137137     28.631051     28.631051     57.262102
     -2.127127     26.936749     26.936749     53.873498
     -2.117117     26.114842     26.114842     52.229685
     -2.107107     25.673049     25.673049     51.346098
     -2.097097     24.964558     24.964558     49.929115
     -2.087087     23.455079     23.455079     46.910159
     -2.077077     20.927836     20.927836     41.855673
     -2.067067     17.538902     17.538902     35.077804
     -2.057057     13.716533     13.716533     27.433067
     -2.047047      9.973421      9.973421     19.946842
     -2.037037      6.728346      6.728346     13.456692
     -2.027027      4.207046      4.207046      8.414092
     -2.017017      2.438056      2.438056      4.876111
     -2.007007      1.313911      1.313911      2.627821
     -1.996997      0.672203      0.672203      1.344405
     -1.986987      0.361956      0.361956      0.723912
     -1.976977      0.282340      0.282340      0.564681
     -1.966967      0.397245      0.397245      0.794490
     -1.956957      0.734326      0.734326      1.468653
     -1.946947      1.373375      1.373375      2.746750
     -1.936937      2.423059      2.423059      4.846118
     -1.926927      3.983688      3.983688      7.967377
     -1.916917      6.099209      6.099209     12.198419
     -1.906907      8.711365      8.711365     17.422730
     -1.896897     11.635750     11.635750     23.271499
     -1.886887     14.576395     14.576395     29.152790
     -1.876877     17.181828     17.181828     34.363657
     -1.866867     19.128202     19.128202     38.256404
     -1.856857     20.203748     20.203748     40.407496
     -1.846847     20.367781     20.367781     40.735563
     -1.836837     19.764150     19.764150     39.528300
     -1.826827     18.679562     18.679562     37.359124
     -1.816817     17.451980     17.451980     34.903961
     -1.806807     16.354442     16.354442     32.708884
     -1.796797     15.498399     15.498399     30.996798
     -1.786787     14.802774     14.802774     29.605547
     -1.776777     14.049497     14.049497     28.098994
     -1.766767     13.002158     13.002158     26.004316
     -1.756757     11.528644     11.528644     23.057289
     -1.746747      9.667092      9.667092     19.334183
     -1.736737      7.609272      7.609272     15.218544
     -1.726727      5.622790      5.622790     11.245580
     -1.716717      3.961699      3.961699      7.923397
     -1.706707      2.809395      2.809395      5.618789
     -1.696697      2.267467      2.267467      4.534933
     -1.686687      2.372939      2.372939      4.745877
     -1.676677      3.113467      3.113467      6.226934
     -1.666667      4.420237      4.420237      8.840473
     -1.656657      6.142482      6.142482     12.284963
     -1.646647      8.029645      8.029645     16.059291
     -1.636637      9.752510      9.752510     19.505021
     -1.626627     10.977482     10.977482     21.954965
