# EIG2DOS: Utility for SIESTA to obtain the electronic density of states
#  E. Artacho, Apr 1999, A. Garcia, Apr 2012
#  Nick R. Papior, Feb 2017
# ------------------------------------------
# Eigenvalues calculated from a non-polarized calculation
# Eigenvalues read from siesta.EIG
# Kpoint weights read from siesta.KP
# Using smearing parameter:   0.0500
# Using 1000 points in the energy range
# Selected bands: 1 to: 2981
# Emin, Emax in file for selected band(s):    -27.1700316    218.3421770
# Nbands, Nspin, Nk   =   2981     1     1
# E_F                 =    -4.2678 eV --> (shifted to ZERO)
# Broadening          =     0.0500 eV
#
#        E            N(up)  (=)   N(down)         Ntot
     -5.000000     36.678795     36.678795     73.357590
     -4.989990     39.443447     39.443447     78.886894
     -4.979980     42.024165     42.024165     84.048329
     -4.969970     43.851866     43.851866     87.703733
     -4.959960     44.459315     44.459315     88.918629
     -4.949950     43.631454     43.631454     87.262907
     -4.939940     41.471832     41.471832     82.943664
     -4.929930     38.382211     38.382211     76.764422
     -4.919920     34.986017     34.986017     69.972034
     -4.909910     32.030505     32.030505     64.061011
     -4.899900     30.279790     30.279790     60.559579
     -4.889890     30.384913     30.384913     60.769826
     -4.879880     32.717917     32.717917     65.435834
     -4.869870     37.195574     37.195574     74.391149
     -4.859860     43.170779     43.170779     86.341558
     -4.849850     49.487183     49.487183     98.974366
     -4.839840     54.741120     54.741120    109.482240
     -4.829830     57.688825     57.688825    115.377649
     -4.819820     57.640227     57.640227    115.280454
     -4.809810     54.663504     54.663504    109.327007
     -4.799800     49.509449     49.509449     99.018898
     -4.789790     43.303579     43.303579     86.607157
     -4.779780     37.160438     37.160438     74.320876
     -4.769770     31.886959     31.886959     63.773918
     -4.759760     27.865423     27.865423     55.730846
     -4.749750     25.102875     25.102875     50.205749
     -4.739740     23.367870     23.367870     46.735740
     -4.729730     22.330874     22.330874     44.661747
     -4.719720     21.660513     21.660513     43.321026
     -4.709710     21.069175     21.069175     42.138351
     -4.699700     20.327239     20.327239     40.654477
     -4.689690     19.272815     19.272815     38.545631
     -4.679680     17.836926     17.836926     35.673852
     -4.669670     16.086540     16.086540     32.173080
     -4.659660     14.267299     14.267299     28.534598
     -4.649650     12.815365     12.815365     25.630729
     -4.639640     12.311488     12.311488     24.622976
     -4.629630     13.367716     13.367716     26.735432
     -4.619620     16.460144     16.460144     32.920289
     -4.609610     21.744770     21.744770     43.489541
     -4.599600     28.915582     28.915582     57.831164
     -4.589590     37.175499     37.175499     74.350998
     -4.579580     45.372960     45.372960     90.745920
     -4.569570     52.297815     52.297815    104.595631
     -4.559560     57.046944     57.046944    114.093888
     -4.549550     59.310983     59.310983    118.621966
     -4.539540     59.447005     59.447005    118.894010
     -4.529530     58.294808     58.294808    116.589615
     -4.519520     56.818417     56.818417    113.636833
     -4.509510     55.736305     55.736305    111.472610
     -4.499499     55.297096     55.297096    110.594193
     -4.489489     55.272693     55.272693    110.545386
     -4.479479     55.133500     55.133500    110.266999
     -4.469469     54.300167     54.300167    108.600334
     -4.459459     52.359828     52.359828    104.719655
     -4.449449     49.178833     49.178833     98.357665
     -4.439439     44.903961     44.903961     89.807923
     -4.429429     39.889058     39.889058     79.778116
     -4.419419     34.599376     34.599376     69.198752
     -4.409409     29.532804     29.532804     59.065609
     -4.399399     25.167882     25.167882     50.335763
     -4.389389     21.922067     21.922067     43.844134
     -4.379379     20.097942     20.097942     40.195885
     -4.369369     19.814730     19.814730     39.629461
     -4.359359     20.952894     20.952894     41.905788
     -4.349349     23.154667     23.154667     46.309334
     -4.339339     25.906248     25.906248     51.812495
     -4.329329     28.685459     28.685459     57.370917
     -4.319319     31.119290     31.119290     62.238581
     -4.309309     33.085415     33.085415     66.170830
     -4.299299     34.716141     34.716141     69.432282
     -4.289289     36.305128     36.305128     72.610256
     -4.279279     38.152489     38.152489     76.304979
     -4.269269     40.400885     40.400885     80.801770
     -4.259259     42.917567     42.917567     85.835135
     -4.249249     45.271131     45.271131     90.542263
     -4.239239     46.832382     46.832382     93.664765
     -4.229229     46.986887     46.986887     93.973773
     -4.219219     45.388580     45.388580     90.777160
     -4.209209     42.141663     42.141663     84.283326
     -4.199199     37.811160     37.811160     75.622320
     -4.189189     33.239997     33.239997     66.479993
     -4.179179     29.252406     29.252406     58.504812
     -4.169169     26.385156     26.385156     52.770312
     -4.159159     24.769102     24.769102     49.538203
     -4.149149     24.198371     24.198371     48.396741
     -4.139139     24.328273     24.328273     48.656545
     -4.129129     24.888590     24.888590     49.777179
     -4.119119     25.805207     25.805207     51.610413
     -4.109109     27.175845     27.175845     54.351690
     -4.099099     29.117793     29.117793     58.235587
     -4.089089     31.570481     31.570481     63.140963
     -4.079079     34.167915     34.167915     68.335830
     -4.069069     36.273400     36.273400     72.546799
     -4.059059     37.189653     37.189653     74.379306
     -4.049049     36.455997     36.455997     72.911993
     -4.039039     34.082030     34.082030     68.164060
     -4.029029     30.590918     30.590918     61.181836
     -4.019019     26.847271     26.847271     53.694543
     -4.009009     23.761201     23.761201     47.522401
     -3.998999     22.016962     22.016962     44.033924
     -3.988989     21.940414     21.940414     43.880827
     -3.978979     23.525816     23.525816     47.051632
     -3.968969     26.556253     26.556253     53.112507
     -3.958959     30.725545     30.725545     61.451089
     -3.948949     35.706936     35.706936     71.413873
     -3.938939     41.174535     41.174535     82.349070
     -3.928929     46.817213     46.817213     93.634427
     -3.918919     52.370476     52.370476    104.740951
     -3.908909     57.650530     57.650530    115.301060
     -3.898899     62.548881     62.548881    125.097763
     -3.888889     66.962269     66.962269    133.924538
     -3.878879     70.682029     70.682029    141.364058
     -3.868869     73.311635     73.311635    146.623269
     -3.858859     74.285329     74.285329    148.570657
     -3.848849     73.015625     73.015625    146.031250
     -3.838839     69.126402     69.126402    138.252804
     -3.828829     62.672241     62.672241    125.344482
     -3.818819     54.237284     54.237284    108.474569
     -3.808809     44.854885     44.854885     89.709770
     -3.798799     35.767727     35.767727     71.535455
     -3.788789     28.115413     28.115413     56.230826
     -3.778779     22.660054     22.660054     45.320109
     -3.768769     19.634995     19.634995     39.269990
     -3.758759     18.748425     18.748425     37.496850
     -3.748749     19.321648     19.321648     38.643297
     -3.738739     20.509865     20.509865     41.019730
     -3.728729     21.543566     21.543566     43.087131
     -3.718719     21.933282     21.933282     43.866565
     -3.708709     21.591828     21.591828     43.183657
     -3.698699     20.843954     20.843954     41.687907
     -3.688689     20.315168     20.315168     40.630336
     -3.678679     20.720597     20.720597     41.441193
     -3.668669     22.607841     22.607841     45.215683
     -3.658659     26.134142     26.134142     52.268283
     -3.648649     30.961377     30.961377     61.922753
     -3.638639     36.319799     36.319799     72.639597
     -3.628629     41.226859     41.226859     82.453717
     -3.618619     44.778736     44.778736     89.557473
     -3.608609     46.398733     46.398733     92.797466
     -3.598599     45.952142     45.952142     91.904285
     -3.588589     43.707181     43.707181     87.414362
     -3.578579     40.190736     40.190736     80.381471
     -3.568569     36.015002     36.015002     72.030005
     -3.558559     31.731848     31.731848     63.463696
     -3.548549     27.736055     27.736055     55.472111
     -3.538539     24.218699     24.218699     48.437397
     -3.528529     21.172537     21.172537     42.345073
     -3.518519     18.452357     18.452357     36.904715
     -3.508509     15.877893     15.877893     31.755786
     -3.498498     13.342624     13.342624     26.685249
     -3.488488     10.881910     10.881910     21.763819
     -3.478478      8.671748      8.671748     17.343497
     -3.468468      6.964105      6.964105     13.928210
     -3.458458      5.991654      5.991654     11.983308
     -3.448448      5.879656      5.879656     11.759311
     -3.438438      6.590984      6.590984     13.181967
     -3.428428      7.917290      7.917290     15.834580
     -3.418418      9.521772      9.521772     19.043545
     -3.408408     11.030863     11.030863     22.061725
     -3.398398     12.155440     12.155440     24.310879
     -3.388388     12.801403     12.801403     25.602806
     -3.378378     13.121457     13.121457     26.242914
     -3.368368     13.478380     13.478380     26.956761
     -3.358358     14.329215     14.329215     28.658430
     -3.348348     16.075481     16.075481     32.150961
     -3.338338     18.932966     18.932966     37.865932
     -3.328328     22.853541     22.853541     45.707082
     -3.318318     27.502534     27.502534     55.005068
     -3.308308     32.284341     32.284341     64.568682
     -3.298298     36.419966     36.419966     72.839932
     -3.288288     39.089784     39.089784     78.179569
     -3.278278     39.635550     39.635550     79.271099
     -3.268268     37.769231     37.769231     75.538463
     -3.258258     33.700030     33.700030     67.400059
     -3.248248     28.106382     28.106382     56.212764
     -3.238238     21.949999     21.949999     43.899997
     -3.228228     16.209107     16.209107     32.418213
     -3.218218     11.641903     11.641903     23.283805
     -3.208208      8.659069      8.659069     17.318139
     -3.198198      7.316965      7.316965     14.633930
     -3.188188      7.391710      7.391710     14.783420
     -3.178178      8.486585      8.486585     16.973169
     -3.168168     10.148414     10.148414     20.296827
     -3.158158     11.988719     11.988719     23.977438
     -3.148148     13.799728     13.799728     27.599457
     -3.138138     15.631020     15.631020     31.262041
     -3.128128     17.778400     17.778400     35.556799
     -3.118118     20.656859     20.656859     41.313718
     -3.108108     24.582920     24.582920     49.165840
     -3.098098     29.549798     29.549798     59.099597
     -3.088088     35.104226     35.104226     70.208451
     -3.078078     40.403433     40.403433     80.806867
     -3.068068     44.451980     44.451980     88.903960
     -3.058058     46.427601     46.427601     92.855201
     -3.048048     45.953146     45.953146     91.906293
     -3.038038     43.193095     43.193095     86.386189
     -3.028028     38.742292     38.742292     77.484585
     -3.018018     33.381421     33.381421     66.762842
     -3.008008     27.832851     27.832851     55.665701
     -2.997998     22.627791     22.627791     45.255582
     -2.987988     18.113006     18.113006     36.226012
     -2.977978     14.542502     14.542502     29.085003
     -2.967968     12.166781     12.166781     24.333561
     -2.957958     11.256314     11.256314     22.512628
     -2.947948     12.046521     12.046521     24.093043
     -2.937938     14.633712     14.633712     29.267423
     -2.927928     18.870461     18.870461     37.740922
     -2.917918     24.309006     24.309006     48.618012
     -2.907908     30.229153     30.229153     60.458306
     -2.897898     35.763117     35.763117     71.526234
     -2.887888     40.093639     40.093639     80.187278
     -2.877878     42.664184     42.664184     85.328367
     -2.867868     43.321240     43.321240     86.642480
     -2.857858     42.325886     42.325886     84.651773
     -2.847848     40.223549     40.223549     80.447099
     -2.837838     37.624441     37.624441     75.248882
     -2.827828     34.989523     34.989523     69.979046
     -2.817818     32.513797     32.513797     65.027594
     -2.807808     30.149744     30.149744     60.299489
     -2.797798     27.743294     27.743294     55.486589
     -2.787788     25.199954     25.199954     50.399908
     -2.777778     22.588962     22.588962     45.177924
     -2.767768     20.133631     20.133631     40.267262
     -2.757758     18.103572     18.103572     36.207143
     -2.747748     16.680840     16.680840     33.361680
     -2.737738     15.884426     15.884426     31.768852
     -2.727728     15.598282     15.598282     31.196563
     -2.717718     15.680462     15.680462     31.360924
     -2.707708     16.077024     16.077024     32.154049
     -2.697698     16.859672     16.859672     33.719344
     -2.687688     18.156324     18.156324     36.312649
     -2.677678     20.017900     20.017900     40.035801
     -2.667668     22.313241     22.313241     44.626482
     -2.657658     24.731757     24.731757     49.463514
     -2.647648     26.904608     26.904608     53.809216
     -2.637638     28.574761     28.574761     57.149522
     -2.627628     29.710328     29.710328     59.420657
     -2.617618     30.491402     30.491402     60.982803
     -2.607608     31.183764     31.183764     62.367528
     -2.597598     31.983350     31.983350     63.966700
     -2.587588     32.922855     32.922855     65.845711
     -2.577578     33.876234     33.876234     67.752468
     -2.567568     34.627187     34.627187     69.254373
     -2.557558     34.940057     34.940057     69.880115
     -2.547548     34.600549     34.600549     69.201097
     -2.537538     33.442760     33.442760     66.885519
     -2.527528     31.397367     31.397367     62.794734
     -2.517518     28.565976     28.565976     57.131952
     -2.507508     25.279367     25.279367     50.558735
     -2.497497     22.079847     22.079847     44.159695
     -2.487487     19.600713     19.600713     39.201425
     -2.477477     18.376748     18.376748     36.753496
     -2.467467     18.666011     18.666011     37.332022
     -2.457457     20.365567     20.365567     40.731134
     -2.447447     23.062750     23.062750     46.125501
     -2.437437     26.201955     26.201955     52.403911
     -2.427427     29.294168     29.294168     58.588335
     -2.417417     32.075696     32.075696     64.151393
     -2.407407     34.543972     34.543972     69.087944
     -2.397397     36.854541     36.854541     73.709083
     -2.387387     39.130422     39.130422     78.260844
     -2.377377     41.281377     41.281377     82.562753
     -2.367367     42.932238     42.932238     85.864476
     -2.357357     43.511702     43.511702     87.023403
     -2.347347     42.475146     42.475146     84.950292
     -2.337337     39.564200     39.564200     79.128401
     -2.327327     34.980582     34.980582     69.961165
     -2.317317     29.389716     29.389716     58.779433
     -2.307307     23.751850     23.751850     47.503701
     -2.297297     19.057647     19.057647     38.115294
     -2.287287     16.077368     16.077368     32.154736
     -2.277277     15.207233     15.207233     30.414466
     -2.267267     16.439475     16.439475     32.878950
     -2.257257     19.432066     19.432066     38.864131
     -2.247247     23.631212     23.631212     47.262424
     -2.237237     28.401529     28.401529     56.803057
     -2.227227     33.131472     33.131472     66.262944
     -2.217217     37.296791     37.296791     74.593581
     -2.207207     40.481868     40.481868     80.963735
     -2.197197     42.377033     42.377033     84.754067
     -2.187187     42.780896     42.780896     85.561792
     -2.177177     41.629175     41.629175     83.258349
     -2.167167     39.043559     39.043559     78.087118
     -2.157157     35.361986     35.361986     70.723972
     -2.147147     31.102376     31.102376     62.204753
     -2.137137     26.841498     26.841498     53.682996
     -2.127127     23.045852     23.045852     46.091704
     -2.117117     19.933734     19.933734     39.867467
     -2.107107     17.441806     17.441806     34.883613
     -2.097097     15.314084     15.314084     30.628167
     -2.087087     13.262309     13.262309     26.524618
     -2.077077     11.110897     11.110897     22.221793
     -2.067067      8.858327      8.858327     17.716654
     -2.057057      6.642380      6.642380     13.284759
     -2.047047      4.648990      4.648990      9.297980
     -2.037037      3.023062      3.023062      6.046123
     -2.027027      1.821741      1.821741      3.643483
     -2.017017      1.017113      1.017113      2.034227
     -2.007007      0.529908      0.529908      1.059817
     -1.996997      0.269577      0.269577      0.539153
     -1.986987      0.164622      0.164622      0.329244
     -1.976977      0.179394      0.179394      0.358787
     -1.966967      0.321018      0.321018      0.642036
     -1.956957      0.640493      0.640493      1.280987
     -1.946947      1.227734      1.227734      2.455469
     -1.936937      2.196106      2.196106      4.392211
     -1.926927      3.652045      3.652045      7.304091
     -1.916917      5.651604      5.651604     11.303209
     -1.906907      8.155882      8.155882     16.311763
     -1.896897     11.004932     11.004932     22.009863
     -1.886887     13.927836     13.927836     27.855672
     -1.876877     16.593823     16.593823     33.187646
     -1.866867     18.692163     18.692163     37.384327
     -1.856857     20.016947     20.016947     40.033894
     -1.846847     20.531485     20.531485     41.062970
     -1.836837     20.392472     20.392472     40.784944
     -1.826827     19.920825     19.920825     39.841651
     -1.816817     19.515236     19.515236     39.030472
     -1.806807     19.521708     19.521708     39.043416
     -1.796797     20.097128     20.097128     40.194257
     -1.786787     21.123285     21.123285     42.246569
     -1.776777     22.220404     22.220404     44.440807
     -1.766767     22.870160     22.870160     45.740320
     -1.756757     22.604613     22.604613     45.209227
     -1.746747     21.181506     21.181506     42.363011
     -1.736737     18.671336     18.671336     37.342673
     -1.726727     15.425759     15.425759     30.851518
     -1.716717     11.953831     11.953831     23.907661
     -1.706707      8.769825      8.769825     17.539649
     -1.696697      6.275618      6.275618     12.551237
     -1.686687      4.708252      4.708252      9.416505
     -1.676677      4.142980      4.142980      8.285960
     -1.666667      4.518897      4.518897      9.037794
     -1.656657      5.658964      5.658964     11.317927
     -1.646647      7.280710      7.280710     14.561421
     -1.636637      9.017669      9.017669     18.035337
     -1.626627     10.475579     10.475579     20.951158
