# EIG2DOS: Utility for SIESTA to obtain the electronic density of states
#  E. Artacho, Apr 1999, A. Garcia, Apr 2012
#  Nick R. Papior, Feb 2017
# ------------------------------------------
# Eigenvalues calculated from a non-polarized calculation
# Eigenvalues read from siesta.EIG
# Kpoint weights read from siesta.KP
# Using smearing parameter:   0.0500
# Using 1000 points in the energy range
# Selected bands: 1 to: 2981
# Emin, Emax in file for selected band(s):    -27.0698085    218.3297350
# Nbands, Nspin, Nk   =   2981     1     1
# E_F                 =    -4.2757 eV --> (shifted to ZERO)
# Broadening          =     0.0500 eV
#
#        E            N(up)  (=)   N(down)         Ntot
     -5.000000     45.685076     45.685076     91.370152
     -4.989990     47.179854     47.179854     94.359707
     -4.979980     47.577731     47.577731     95.155462
     -4.969970     46.927570     46.927570     93.855140
     -4.959960     45.320753     45.320753     90.641507
     -4.949950     42.899266     42.899266     85.798532
     -4.939940     39.880417     39.880417     79.760835
     -4.929930     36.584228     36.584228     73.168455
     -4.919920     33.450296     33.450296     66.900593
     -4.909910     31.029774     31.029774     62.059547
     -4.899900     29.932113     29.932113     59.864225
     -4.889890     30.705349     30.705349     61.410697
     -4.879880     33.650157     33.650157     67.300314
     -4.869870     38.616713     38.616713     77.233426
     -4.859860     44.884118     44.884118     89.768235
     -4.849850     51.228281     51.228281    102.456562
     -4.839840     56.215647     56.215647    112.431294
     -4.829830     58.639802     58.639802    117.279603
     -4.819820     57.919188     57.919188    115.838376
     -4.809810     54.270944     54.270944    108.541889
     -4.799800     48.582858     48.582858     97.165715
     -4.789790     42.058980     42.058980     84.117961
     -4.779780     35.817040     35.817040     71.634080
     -4.769770     30.608808     30.608808     61.217616
     -4.759760     26.738695     26.738695     53.477391
     -4.749750     24.145984     24.145984     48.291967
     -4.739740     22.558474     22.558474     45.116948
     -4.729730     21.633756     21.633756     43.267512
     -4.719720     21.047528     21.047528     42.095057
     -4.709710     20.529246     20.529246     41.058493
     -4.699700     19.867576     19.867576     39.735153
     -4.689690     18.913720     18.913720     37.827441
     -4.679680     17.603691     17.603691     35.207383
     -4.669670     16.002759     16.002759     32.005518
     -4.659660     14.352487     14.352487     28.704974
     -4.649650     13.085888     13.085888     26.171776
     -4.639640     12.779529     12.779529     25.559057
     -4.629630     14.031848     14.031848     28.063696
     -4.619620     17.284911     17.284911     34.569822
     -4.609610     22.633854     22.633854     45.267708
     -4.599600     29.689192     29.689192     59.378383
     -4.589590     37.562950     37.562950     75.125900
     -4.579580     45.025633     45.025633     90.051265
     -4.569570     50.820534     50.820534    101.641068
     -4.559560     54.043630     54.043630    108.087260
     -4.549550     54.444382     54.444382    108.888764
     -4.539540     52.515569     52.515569    105.031138
     -4.529530     49.323254     49.323254     98.646509
     -4.519520     46.141246     46.141246     92.282492
     -4.509510     44.037703     44.037703     88.075406
     -4.499499     43.572654     43.572654     87.145308
     -4.489489     44.703433     44.703433     89.406867
     -4.479479     46.897525     46.897525     93.795050
     -4.469469     49.370032     49.370032     98.740065
     -4.459459     51.332934     51.332934    102.665869
     -4.449449     52.171320     52.171320    104.342640
     -4.439439     51.522531     51.522531    103.045061
     -4.429429     49.287766     49.287766     98.575532
     -4.419419     45.621754     45.621754     91.243507
     -4.409409     40.921736     40.921736     81.843472
     -4.399399     35.797926     35.797926     71.595851
     -4.389389     30.989477     30.989477     61.978955
     -4.379379     27.212069     27.212069     54.424139
     -4.369369     24.972263     24.972263     49.944526
     -4.359359     24.423280     24.423280     48.846559
     -4.349349     25.334051     25.334051     50.668102
     -4.339339     27.194732     27.194732     54.389464
     -4.329329     29.415669     29.415669     58.831338
     -4.319319     31.533072     31.533072     63.066144
     -4.309309     33.337668     33.337668     66.675337
     -4.299299     34.885889     34.885889     69.771779
     -4.289289     36.406886     36.406886     72.813772
     -4.279279     38.153242     38.153242     76.306484
     -4.269269     40.249699     40.249699     80.499398
     -4.259259     42.585405     42.585405     85.170811
     -4.249249     44.786176     44.786176     89.572352
     -4.239239     46.292161     46.292161     92.584322
     -4.229229     46.537660     46.537660     93.075319
     -4.219219     45.179501     45.179501     90.359002
     -4.209209     42.274516     42.274516     84.549032
     -4.199199     38.307433     38.307433     76.614866
     -4.189189     34.036328     34.036328     68.072657
     -4.179179     30.221309     30.221309     60.442619
     -4.169169     27.369030     27.369030     54.738059
     -4.159159     25.614889     25.614889     51.229778
     -4.149149     24.785007     24.785007     49.570014
     -4.139139     24.584413     24.584413     49.168827
     -4.129129     24.800914     24.800914     49.601828
     -4.119119     25.417649     25.417649     50.835298
     -4.109109     26.579313     26.579313     53.158626
     -4.099099     28.430651     28.430651     56.861301
     -4.089089     30.913169     30.913169     61.826338
     -4.079079     33.638948     33.638948     67.277896
     -4.069069     35.935104     35.935104     71.870209
     -4.059059     37.068073     37.068073     74.136145
     -4.049049     36.551651     36.551651     73.103303
     -4.039039     34.381707     34.381707     68.763413
     -4.029029     31.070595     31.070595     62.141191
     -4.019019     27.463822     27.463822     54.927644
     -4.009009     24.440843     24.440843     48.881686
     -3.998999     22.653803     22.653803     45.307606
     -3.988989     22.413830     22.413830     44.827661
     -3.978979     23.733167     23.733167     47.466335
     -3.968969     26.446046     26.446046     52.892091
     -3.958959     30.314170     30.314170     60.628339
     -3.948949     35.070986     35.070986     70.141971
     -3.938939     40.423946     40.423946     80.847892
     -3.928929     46.063077     46.063077     92.126154
     -3.918919     51.700858     51.700858    103.401717
     -3.908909     57.120688     57.120688    114.241376
     -3.898899     62.184418     62.184418    124.368835
     -3.888889     66.768929     66.768929    133.537858
     -3.878879     70.654606     70.654606    141.309211
     -3.868869     73.436385     73.436385    146.872770
     -3.858859     74.535102     74.535102    149.070204
     -3.848849     73.342971     73.342971    146.685941
     -3.838839     69.463477     69.463477    138.926953
     -3.828829     62.943501     62.943501    125.887002
     -3.818819     54.382261     54.382261    108.764521
     -3.808809     44.849830     44.849830     89.699660
     -3.798799     35.633584     35.633584     71.267168
     -3.788789     27.907019     27.907019     55.814038
     -3.778779     22.442400     22.442400     44.884800
     -3.768769     19.458934     19.458934     38.917867
     -3.758759     18.636811     18.636811     37.273622
     -3.748749     19.269805     19.269805     38.539610
     -3.738739     20.496982     20.496982     40.993964
     -3.728729     21.547991     21.547991     43.095982
     -3.718719     21.945026     21.945026     43.890053
     -3.708709     21.618076     21.618076     43.236151
     -3.698699     20.906144     20.906144     41.812288
     -3.688689     20.438665     20.438665     40.877329
     -3.678679     20.920369     20.920369     41.840737
     -3.668669     22.875795     22.875795     45.751590
     -3.658659     26.434491     26.434491     52.868982
     -3.648649     31.238209     31.238209     62.476418
     -3.638639     36.515490     36.515490     73.030980
     -3.628629     41.303670     41.303670     82.607341
     -3.618619     44.732907     44.732907     89.465813
     -3.608609     46.259598     46.259598     92.519196
     -3.598599     45.767019     45.767019     91.534037
     -3.588589     43.520702     43.520702     87.041405
     -3.578579     40.029611     40.029611     80.059222
     -3.568569     35.884459     35.884459     71.768919
     -3.558559     31.622243     31.622243     63.244485
     -3.548549     27.632997     27.632997     55.265994
     -3.538539     24.110482     24.110482     48.220964
     -3.528529     21.052889     21.052889     42.105777
     -3.518519     18.320362     18.320362     36.640723
     -3.508509     15.737716     15.737716     31.475432
     -3.498498     13.203918     13.203918     26.407836
     -3.488488     10.759850     10.759850     21.519700
     -3.478478      8.585322      8.585322     17.170644
     -3.468468      6.932157      6.932157     13.864315
     -3.458458      6.027372      6.027372     12.054744
     -3.448448      5.984817      5.984817     11.969633
     -3.438438      6.751762      6.751762     13.503524
     -3.428428      8.103709      8.103709     16.207418
     -3.418418      9.692571      9.692571     19.385142
     -3.408408     11.143874     11.143874     22.287749
     -3.398398     12.180894     12.180894     24.361788
     -3.388388     12.733437     12.733437     25.466873
     -3.378378     12.983237     12.983237     25.966474
     -3.368368     13.318733     13.318733     26.637465
     -3.358358     14.211779     14.211779     28.423558
     -3.348348     16.063219     16.063219     32.126439
     -3.338338     19.071017     19.071017     38.142033
     -3.328328     23.153414     23.153414     46.306829
     -3.318318     27.931807     27.931807     55.863613
     -3.308308     32.767200     32.767200     65.534400
     -3.298298     36.852485     36.852485     73.704970
     -3.288288     39.367911     39.367911     78.735822
     -3.278278     39.685788     39.685788     79.371576
     -3.268268     37.567231     37.567231     75.134462
     -3.258258     33.265050     33.265050     66.530101
     -3.248248     27.469212     27.469212     54.938424
     -3.238238     21.103223     21.103223     42.206446
     -3.228228     15.056264     15.056264     30.112529
     -3.218218      9.964426      9.964426     19.928852
     -3.208208      6.118437      6.118437     12.236874
     -3.198198      3.504784      3.504784      7.009569
     -3.188188      1.929816      1.929816      3.859633
     -3.178178      1.160391      1.160391      2.320781
     -3.168168      1.034141      1.034141      2.068282
     -3.158158      1.521918      1.521918      3.043836
     -3.148148      2.742621      2.742621      5.485241
     -3.138138      4.931733      4.931733      9.863467
     -3.128128      8.360364      8.360364     16.720728
     -3.118118     13.206995     13.206995     26.413991
     -3.108108     19.407068     19.407068     38.814135
     -3.098098     26.536962     26.536962     53.073924
     -3.088088     33.804783     33.804783     67.609566
     -3.078078     40.195733     40.195733     80.391465
     -3.068068     44.751331     44.751331     89.502662
     -3.058058     46.880214     46.880214     93.760428
     -3.048048     46.556871     46.556871     93.113742
     -3.038038     44.302396     44.302396     88.604792
     -3.028028     40.948264     40.948264     81.896529
     -3.018018     37.299692     37.299692     74.599384
     -3.008008     33.866917     33.866917     67.733833
     -2.997998     30.788011     30.788011     61.576022
     -2.987988     27.955771     27.955771     55.911541
     -2.977978     25.253457     25.253457     50.506914
     -2.967968     22.759797     22.759797     45.519594
     -2.957958     20.816849     20.816849     41.633698
     -2.947948     19.934151     19.934151     39.868302
     -2.937938     20.581206     20.581206     41.162413
     -2.927928     22.963741     22.963741     45.927481
     -2.917918     26.878753     26.878753     53.757506
     -2.907908     31.709123     31.709123     63.418246
     -2.897898     36.566422     36.566422     73.132844
     -2.887888     40.536353     40.536353     81.072706
     -2.877878     42.940880     42.940880     85.881760
     -2.867868     43.520275     43.520275     87.040549
     -2.857858     42.465967     42.465967     84.931935
     -2.847848     40.294497     40.294497     80.588993
     -2.837838     37.620004     37.620004     75.240008
     -2.827828     34.925755     34.925755     69.851511
     -2.817818     32.431596     32.431596     64.863193
     -2.807808     30.104376     30.104376     60.208752
     -2.797798     27.786858     27.786858     55.573716
     -2.787788     25.364197     25.364197     50.728395
     -2.777778     22.874953     22.874953     45.749906
     -2.767768     20.511608     20.511608     41.023216
     -2.757758     18.522088     18.522088     37.044176
     -2.747748     17.081039     17.081039     34.162079
     -2.737738     16.214309     16.214309     32.428619
     -2.727728     15.823037     15.823037     31.646074
     -2.717718     15.787090     15.787090     31.574180
     -2.707708     16.073416     16.073416     32.146831
     -2.697698     16.769554     16.769554     33.539108
     -2.687688     18.012103     18.012103     36.024207
     -2.677678     19.853525     19.853525     39.707050
     -2.667668     22.158712     22.158712     44.317423
     -2.657658     24.610003     24.610003     49.220006
     -2.647648     26.830507     26.830507     53.661014
     -2.637638     28.555444     28.555444     57.110888
     -2.627628     29.745784     29.745784     59.491569
     -2.617618     30.574687     30.574687     61.149374
     -2.607608     31.300882     31.300882     62.601765
     -2.597598     32.113794     32.113794     64.227587
     -2.587588     33.042247     33.042247     66.084495
     -2.577578     33.961738     33.961738     67.923477
     -2.567568     34.664461     34.664461     69.328923
     -2.557558     34.928817     34.928817     69.857633
     -2.547548     34.555819     34.555819     69.111638
     -2.537538     33.391043     33.391043     66.782087
     -2.527528     31.369652     31.369652     62.739303
     -2.517518     28.590720     28.590720     57.181440
     -2.507508     25.377385     25.377385     50.754769
     -2.497497     22.260648     22.260648     44.521296
     -2.487487     19.858630     19.858630     39.717260
     -2.477477     18.686419     18.686419     37.372838
     -2.467467     18.979522     18.979522     37.959043
     -2.457457     20.615303     20.615303     41.230606
     -2.447447     23.172658     23.172658     46.345315
     -2.437437     26.105721     26.105721     52.211443
     -2.427427     28.954486     28.954486     57.908972
     -2.417417     31.497376     31.497376     62.994752
     -2.407407     33.776300     33.776300     67.552600
     -2.397397     35.983057     35.983057     71.966114
     -2.387387     38.261772     38.261772     76.523545
     -2.377377     40.525342     40.525342     81.050684
     -2.367367     42.383390     42.383390     84.766780
     -2.357357     43.232196     43.232196     86.464392
     -2.347347     42.481270     42.481270     84.962540
     -2.337337     39.821046     39.821046     79.642092
     -2.327327     35.408771     35.408771     70.817541
     -2.317317     29.884259     29.884259     59.768518
     -2.307307     24.207937     24.207937     48.415874
     -2.297297     19.394900     19.394900     38.789801
     -2.287287     16.254924     16.254924     32.509847
     -2.277277     15.225992     15.225992     30.451984
     -2.267267     16.332645     16.332645     32.665290
     -2.257257     19.248704     19.248704     38.497409
     -2.247247     23.419282     23.419282     46.838564
     -2.237237     28.196627     28.196627     56.393253
     -2.227227     32.954649     32.954649     65.909298
     -2.217217     37.160254     37.160254     74.320509
     -2.207207     40.397137     40.397137     80.794274
     -2.197197     42.359126     42.359126     84.718252
     -2.187187     42.845370     42.845370     85.690739
     -2.177177     41.784098     41.784098     83.568196
     -2.167167     39.282032     39.282032     78.564064
     -2.157157     35.660348     35.660348     71.320696
     -2.147147     31.425552     31.425552     62.851104
     -2.137137     27.152826     27.152826     54.305653
     -2.127127     23.316743     23.316743     46.633486
     -2.117117     20.149251     20.149251     40.298501
     -2.107107     17.600799     17.600799     35.201598
     -2.097097     15.425090     15.425090     30.850181
     -2.087087     13.337874     13.337874     26.675747
     -2.077077     11.162828     11.162828     22.325655
     -2.067067      8.895227      8.895227     17.790454
     -2.057057      6.669380      6.669380     13.338760
     -2.047047      4.668769      4.668769      9.337539
     -2.037037      3.037108      3.037108      6.074216
     -2.027027      1.831245      1.831245      3.662489
     -2.017017      1.023380      1.023380      2.046759
     -2.007007      0.534543      0.534543      1.069086
     -1.996997      0.274758      0.274758      0.549516
     -1.986987      0.173702      0.173702      0.347405
     -1.976977      0.197858      0.197858      0.395715
     -1.966967      0.357495      0.357495      0.714990
     -1.956957      0.707103      0.707103      1.414206
     -1.946947      1.338689      1.338689      2.677378
     -1.936937      2.363645      2.363645      4.727290
     -1.926927      3.879824      3.879824      7.759648
     -1.916917      5.927572      5.927572     11.855144
     -1.906907      8.448477      8.448477     16.896953
     -1.896897     11.266446     11.266446     22.532891
     -1.886887     14.105946     14.105946     28.211893
     -1.876877     16.647237     16.647237     33.294474
     -1.866867     18.601723     18.601723     37.203447
     -1.856857     19.782595     19.782595     39.565191
     -1.846847     20.149508     20.149508     40.299016
     -1.836837     19.815318     19.815318     39.630636
     -1.826827     19.010966     19.010966     38.021931
     -1.816817     18.012559     18.012559     36.025118
     -1.806807     17.048101     17.048101     34.096201
     -1.796797     16.218221     16.218221     32.436441
     -1.786787     15.471540     15.471540     30.943080
     -1.776777     14.656451     14.656451     29.312901
     -1.766767     13.630717     13.630717     27.261434
     -1.756757     12.373024     12.373024     24.746048
     -1.746747     11.033981     11.033981     22.067962
     -1.736737      9.895304      9.895304     19.790609
     -1.726727      9.255654      9.255654     18.511309
     -1.716717      9.299932      9.299932     18.599863
     -1.706707     10.015917     10.015917     20.031834
     -1.696697     11.197455     11.197455     22.394910
     -1.686687     12.530792     12.530792     25.061584
     -1.676677     13.719837     13.719837     27.439673
     -1.666667     14.586443     14.586443     29.172887
     -1.656657     15.095839     15.095839     30.191678
     -1.646647     15.301227     15.301227     30.602454
     -1.636637     15.251420     15.251420     30.502840
     -1.626627     14.928339     14.928339     29.856678
