# EIG2DOS: Utility for SIESTA to obtain the electronic density of states
#  E. Artacho, Apr 1999, A. Garcia, Apr 2012
#  Nick R. Papior, Feb 2017
# ------------------------------------------
# Eigenvalues calculated from a non-polarized calculation
# Eigenvalues read from siesta.EIG
# Kpoint weights read from siesta.KP
# Using smearing parameter:   0.0500
# Using 1000 points in the energy range
# Selected bands: 1 to: 2981
# Emin, Emax in file for selected band(s):    -27.2096794    218.3500380
# Nbands, Nspin, Nk   =   2981     1     1
# E_F                 =    -4.2546 eV --> (shifted to ZERO)
# Broadening          =     0.0500 eV
#
#        E            N(up)  (=)   N(down)         Ntot
     -5.000000     35.442601     35.442601     70.885203
     -4.989990     38.994238     38.994238     77.988477
     -4.979980     41.776985     41.776985     83.553970
     -4.969970     43.373959     43.373959     86.747918
     -4.959960     43.544055     43.544055     87.088110
     -4.949950     42.290276     42.290276     84.580551
     -4.939940     39.869810     39.869810     79.739620
     -4.929930     36.755038     36.755038     73.510075
     -4.919920     33.570468     33.570468     67.140936
     -4.909910     31.022377     31.022377     62.044754
     -4.899900     29.813907     29.813907     59.627815
     -4.889890     30.522223     30.522223     61.044446
     -4.879880     33.429554     33.429554     66.859108
     -4.869870     38.348340     38.348340     76.696679
     -4.859860     44.530790     44.530790     89.061579
     -4.849850     50.757550     50.757550    101.515100
     -4.839840     55.633126     55.633126    111.266253
     -4.829830     58.003864     58.003864    116.007729
     -4.819820     57.327363     57.327363    114.654726
     -4.809810     53.825358     53.825358    107.650715
     -4.799800     48.353995     48.353995     96.707989
     -4.789790     42.065807     42.065807     84.131614
     -4.779780     36.029366     36.029366     72.058731
     -4.769770     30.964716     30.964716     61.929432
     -4.759760     27.164859     27.164859     54.329719
     -4.749750     24.572682     24.572682     49.145364
     -4.739740     22.928160     22.928160     45.856320
     -4.729730     21.905785     21.905785     43.811571
     -4.719720     21.200834     21.200834     42.401667
     -4.709710     20.562659     20.562659     41.125318
     -4.699700     19.797635     19.797635     39.595269
     -4.689690     18.772204     18.772204     37.544407
     -4.679680     17.439039     17.439039     34.878079
     -4.669670     15.888572     15.888572     31.777143
     -4.659660     14.402736     14.402736     28.805473
     -4.649650     13.472268     13.472268     26.944536
     -4.639640     13.743019     13.743019     27.486037
     -4.629630     15.878558     15.878558     31.757117
     -4.619620     20.356403     20.356403     40.712805
     -4.609610     27.246694     27.246694     54.493389
     -4.599600     36.049489     36.049489     72.098979
     -4.589590     45.677140     45.677140     91.354280
     -4.579580     54.641245     54.641245    109.282490
     -4.569570     61.429899     61.429899    122.859798
     -4.559560     64.964033     64.964033    129.928065
     -4.549550     64.955783     64.955783    129.911565
     -4.539540     62.007830     62.007830    124.015660
     -4.529530     57.396388     57.396388    114.792776
     -4.519520     52.621375     52.621375    105.242750
     -4.509510     48.908879     48.908879     97.817758
     -4.499499     46.860735     46.860735     93.721470
     -4.489489     46.365733     46.365733     92.731466
     -4.479479     46.766084     46.766084     93.532168
     -4.469469     47.173847     47.173847     94.347693
     -4.459459     46.795904     46.795904     93.591809
     -4.449449     45.155696     45.155696     90.311392
     -4.439439     42.167546     42.167546     84.335092
     -4.429429     38.086558     38.086558     76.173116
     -4.419419     33.394122     33.394122     66.788244
     -4.409409     28.676714     28.676714     57.353429
     -4.399399     24.525946     24.525946     49.051892
     -4.389389     21.456073     21.456073     42.912147
     -4.379379     19.824708     19.824708     39.649416
     -4.369369     19.758414     19.758414     39.516828
     -4.359359     21.110416     21.110416     42.220832
     -4.349349     23.486357     23.486357     46.972714
     -4.339339     26.351899     26.351899     52.703798
     -4.329329     29.193834     29.193834     58.387669
     -4.319319     31.672844     31.672844     63.345688
     -4.309309     33.704979     33.704979     67.409957
     -4.299299     35.441181     35.441181     70.882361
     -4.289289     37.158163     37.158163     74.316325
     -4.279279     39.104713     39.104713     78.209425
     -4.269269     41.356077     41.356077     82.712153
     -4.259259     43.723886     43.723886     87.447772
     -4.249249     45.759331     45.759331     91.518662
     -4.239239     46.868680     46.868680     93.737360
     -4.229229     46.522045     46.522045     93.044091
     -4.219219     44.483895     44.483895     88.967790
     -4.209209     40.959086     40.959086     81.918172
     -4.199199     36.568229     36.568229     73.136458
     -4.189189     32.145596     32.145596     64.291192
     -4.179179     28.448600     28.448600     56.897201
     -4.169169     25.917633     25.917633     51.835266
     -4.159159     24.595233     24.595233     49.190465
     -4.149149     24.225299     24.225299     48.450599
     -4.139139     24.462083     24.462083     48.924165
     -4.129129     25.073347     25.073347     50.146694
     -4.119119     26.036380     26.036380     52.072760
     -4.109109     27.483343     27.483343     54.966686
     -4.099099     29.526959     29.526959     59.053919
     -4.089089     32.061077     32.061077     64.122154
     -4.079079     34.655376     34.655376     69.310751
     -4.069069     36.627995     36.627995     73.255990
     -4.059059     37.288924     37.288924     74.577849
     -4.049049     36.244692     36.244692     72.489384
     -4.039039     33.606146     33.606146     67.212291
     -4.029029     29.985444     29.985444     59.970888
     -4.019019     26.283586     26.283586     52.567172
     -4.009009     23.382598     23.382598     46.765195
     -3.998999     21.895009     21.895009     43.790019
     -3.988989     22.069350     22.069350     44.138700
     -3.978979     23.848949     23.848949     47.697899
     -3.968969     27.003076     27.003076     54.006152
     -3.958959     31.239157     31.239157     62.478315
     -3.948949     36.254180     36.254180     72.508361
     -3.938939     41.744165     41.744165     83.488330
     -3.928929     47.414961     47.414961     94.829922
     -3.918919     53.013939     53.013939    106.027877
     -3.908909     58.359678     58.359678    116.719356
     -3.898899     63.327936     63.327936    126.655873
     -3.888889     67.776626     67.776626    135.553251
     -3.878879     71.442621     71.442621    142.885243
     -3.868869     73.880381     73.880381    147.760761
     -3.858859     74.506545     74.506545    149.013090
     -3.848849     72.764781     72.764781    145.529562
     -3.838839     68.357627     68.357627    136.715254
     -3.828829     61.445106     61.445106    122.890213
     -3.818819     52.711424     52.711424    105.422847
     -3.808809     43.253439     43.253439     86.506878
     -3.798799     34.321804     34.321804     68.643608
     -3.788789     27.007525     27.007525     54.015050
     -3.778779     21.983487     21.983487     43.966973
     -3.768769     19.379640     19.379640     38.759280
     -3.758759     18.814897     18.814897     37.629794
     -3.748749     19.557654     19.557654     39.115308
     -3.738739     20.757807     20.757807     41.515614
     -3.728729     21.686638     21.686638     43.373275
     -3.718719     21.928256     21.928256     43.856512
     -3.708709     21.479764     21.479764     42.959527
     -3.698699     20.734895     20.734895     41.469791
     -3.688689     20.349412     20.349412     40.698825
     -3.678679     21.016679     21.016679     42.033359
     -3.668669     23.213913     23.213913     46.427826
     -3.658659     27.001273     27.001273     54.002546
     -3.648649     31.951360     31.951360     63.902719
     -3.638639     37.246423     37.246423     74.492847
     -3.628629     41.914181     41.914181     83.828362
     -3.618619     45.111520     45.111520     90.223040
     -3.608609     46.345145     46.345145     92.690290
     -3.598599     45.554440     45.554440     91.108881
     -3.588589     43.052284     43.052284     86.104568
     -3.578579     39.378783     39.378783     78.757566
     -3.568569     35.138060     35.138060     70.276119
     -3.558559     30.863924     30.863924     61.727847
     -3.548549     26.929045     26.929045     53.858090
     -3.538539     23.500262     23.500262     47.000525
     -3.528529     20.546904     20.546904     41.093809
     -3.518519     17.907066     17.907066     35.814132
     -3.508509     15.396280     15.396280     30.792560
     -3.498498     12.917093     12.917093     25.834185
     -3.488488     10.521416     10.521416     21.042832
     -3.478478      8.400024      8.400024     16.800048
     -3.468468      6.809951      6.809951     13.619902
     -3.458458      5.975759      5.975759     11.951519
     -3.448448      6.002678      6.002678     12.005357
     -3.438438      6.826633      6.826633     13.653266
     -3.428428      8.213291      8.213291     16.426582
     -3.418418      9.810478      9.810478     19.620957
     -3.408408     11.248577     11.248577     22.497154
     -3.398398     12.265298     12.265298     24.530596
     -3.388388     12.811418     12.811418     25.622836
     -3.378378     13.089962     13.089962     26.179924
     -3.368368     13.503887     13.503887     27.007773
     -3.358358     14.527543     14.527543     29.055086
     -3.348348     16.550171     16.550171     33.100343
     -3.338338     19.744684     19.744684     39.489367
     -3.328328     23.993651     23.993651     47.987301
     -3.318318     28.878681     28.878681     57.757362
     -3.308308     33.730375     33.730375     67.460749
     -3.298298     37.742247     37.742247     75.484494
     -3.288288     40.150105     40.150105     80.300209
     -3.278278     40.448895     40.448895     80.897789
     -3.268268     38.574074     38.574074     77.148148
     -3.258258     34.954926     34.954926     69.909852
     -3.248248     30.387110     30.387110     60.774221
     -3.238238     25.760661     25.760661     51.521322
     -3.228228     21.762695     21.762695     43.525390
     -3.218218     18.692836     18.692836     37.385672
     -3.208208     16.468578     16.468578     32.937156
     -3.198198     14.796291     14.796291     29.592581
     -3.188188     13.404001     13.404001     26.808003
     -3.178178     12.216665     12.216665     24.433330
     -3.168168     11.402019     11.402019     22.804038
     -3.158158     11.288758     11.288758     22.577515
     -3.148148     12.215593     12.215593     24.431185
     -3.138138     14.385592     14.385592     28.771184
     -3.128128     17.778365     17.778365     35.556729
     -3.118118     22.134724     22.134724     44.269448
     -3.108108     26.998293     26.998293     53.996585
     -3.098098     31.789257     31.789257     63.578514
     -3.088088     35.894104     35.894104     71.788209
     -3.078078     38.766416     38.766416     77.532832
     -3.068068     40.031791     40.031791     80.063583
     -3.058058     39.573136     39.573136     79.146272
     -3.048048     37.558239     37.558239     75.116479
     -3.038038     34.382410     34.382410     68.764821
     -3.028028     30.539123     30.539123     61.078247
     -3.018018     26.476406     26.476406     52.952812
     -3.008008     22.510015     22.510015     45.020029
     -2.997998     18.831121     18.831121     37.662243
     -2.987988     15.588029     15.588029     31.176058
     -2.977978     12.979408     12.979408     25.958815
     -2.967968     11.296707     11.296707     22.593413
     -2.957958     10.888320     10.888320     21.776639
     -2.947948     12.059358     12.059358     24.118717
     -2.937938     14.946044     14.946044     29.892088
     -2.927928     19.409822     19.409822     38.819644
     -2.917918     24.991622     24.991622     49.983244
     -2.907908     30.955252     30.955252     61.910505
     -2.897898     36.426697     36.426697     72.853393
     -2.887888     40.601355     40.601355     81.202709
     -2.877878     42.955126     42.955126     85.910253
     -2.867868     43.379052     43.379052     86.758104
     -2.857858     42.177703     42.177703     84.355406
     -2.847848     39.925902     39.925902     79.851803
     -2.837838     37.242172     37.242172     74.484344
     -2.827828     34.576971     34.576971     69.153942
     -2.817818     32.106111     32.106111     64.212222
     -2.807808     29.766530     29.766530     59.533060
     -2.797798     27.399841     27.399841     54.799681
     -2.787788     24.917075     24.917075     49.834150
     -2.777778     22.393865     22.393865     44.787730
     -2.767768     20.050673     20.050673     40.101346
     -2.757758     18.141552     18.141552     36.283103
     -2.747748     16.827339     16.827339     33.654679
     -2.737738     16.114360     16.114360     32.228721
     -2.727728     15.894209     15.894209     31.788418
     -2.717718     16.051982     16.051982     32.103963
     -2.707708     16.563265     16.563265     33.126531
     -2.697698     17.506753     17.506753     35.013506
     -2.687688     18.977821     18.977821     37.955643
     -2.677678     20.960971     20.960971     41.921943
     -2.667668     23.255014     23.255014     46.510028
     -2.657658     25.515755     25.515755     51.031510
     -2.647648     27.402775     27.402775     54.805551
     -2.637638     28.742742     28.742742     57.485484
     -2.627628     29.605263     29.605263     59.210527
     -2.617618     30.242928     30.242928     60.485857
     -2.607608     30.935938     30.935938     61.871875
     -2.597598     31.839314     31.839314     63.678629
     -2.587588     32.916849     32.916849     65.833697
     -2.577578     33.976903     33.976903     67.953806
     -2.567568     34.759165     34.759165     69.518329
     -2.557558     35.008642     35.008642     70.017283
     -2.547548     34.513928     34.513928     69.027856
     -2.537538     33.134937     33.134937     66.269875
     -2.527528     30.853350     30.853350     61.706700
     -2.517518     27.841501     27.841501     55.683001
     -2.507508     24.501233     24.501233     49.002466
     -2.497497     21.417939     21.417939     42.835878
     -2.487487     19.217031     19.217031     38.434061
     -2.477477     18.370499     18.370499     36.740997
     -2.467467     19.037960     19.037960     38.075920
     -2.457457     21.017118     21.017118     42.034237
     -2.447447     23.830100     23.830100     47.660199
     -2.437437     26.910776     26.910776     53.821552
     -2.427427     29.812323     29.812323     59.624647
     -2.417417     32.343792     32.343792     64.687584
     -2.407407     34.574698     34.574698     69.149396
     -2.397397     36.705847     36.705847     73.411694
     -2.387387     38.867676     38.867676     77.735352
     -2.377377     40.945780     40.945780     81.891560
     -2.367367     42.527601     42.527601     85.055203
     -2.357357     43.012769     43.012769     86.025539
     -2.347347     41.851603     41.851603     83.703205
     -2.337337     38.808151     38.808151     77.616301
     -2.327327     34.124057     34.124057     68.248115
     -2.317317     28.503854     28.503854     57.007707
     -2.307307     22.928836     22.928836     45.857673
     -2.297297     18.385100     18.385100     36.770200
     -2.287287     15.617420     15.617420     31.234840
     -2.277277     14.988049     14.988049     29.976097
     -2.267267     16.459045     16.459045     32.918090
     -2.257257     19.668094     19.668094     39.336188
     -2.247247     24.049758     24.049758     48.099516
     -2.237237     28.960112     28.960112     57.920225
     -2.227227     33.777007     33.777007     67.554013
     -2.217217     37.962398     37.962398     75.924797
     -2.207207     41.087995     41.087995     82.175990
     -2.197197     42.840845     42.840845     85.681690
     -2.187187     43.033940     43.033940     86.067880
     -2.177177     41.638036     41.638036     83.276072
     -2.167167     38.824140     38.824140     77.648280
     -2.157157     34.978223     34.978223     69.956447
     -2.147147     30.646189     30.646189     61.292378
     -2.137137     26.400431     26.400431     52.800862
     -2.127127     22.672701     22.672701     45.345402
     -2.117117     19.632811     19.632811     39.265621
     -2.107107     17.178104     17.178104     34.356208
     -2.097097     15.039224     15.039224     30.078448
     -2.087087     12.942592     12.942592     25.885184
     -2.077077     10.743264     10.743264     21.486528
     -2.067067      8.468541      8.468541     16.937081
     -2.057057      6.270035      6.270035     12.540070
     -2.047047      4.329654      4.329654      8.659307
     -2.037037      2.776553      2.776553      5.553107
     -2.027027      1.649921      1.649921      3.299842
     -2.017017      0.908982      0.908982      1.817963
     -2.007007      0.469443      0.469443      0.938886
     -1.996997      0.242570      0.242570      0.485140
     -1.986987      0.163076      0.163076      0.326151
     -1.976977      0.203809      0.203809      0.407619
     -1.966967      0.381337      0.381337      0.762674
     -1.956957      0.755682      0.755682      1.511364
     -1.946947      1.423015      1.423015      2.846030
     -1.936937      2.496732      2.496732      4.993464
     -1.926927      4.074136      4.074136      8.148271
     -1.916917      6.193802      6.193802     12.387605
     -1.906907      8.798851      8.798851     17.597702
     -1.896897     11.726175     11.726175     23.452350
     -1.886887     14.734766     14.734766     29.469533
     -1.876877     17.568473     17.568473     35.136945
     -1.866867     20.029522     20.029522     40.059045
     -1.856857     22.030986     22.030986     44.061973
     -1.846847     23.604095     23.604095     47.208189
     -1.836837     24.855184     24.855184     49.710369
     -1.826827     25.887794     25.887794     51.775588
     -1.816817     26.721032     26.721032     53.442065
     -1.806807     27.241577     27.241577     54.483153
     -1.796797     27.218765     27.218765     54.437530
     -1.786787     26.387543     26.387543     52.775086
     -1.776777     24.569358     24.569358     49.138715
     -1.766767     21.775513     21.775513     43.551026
     -1.756757     18.240417     18.240417     36.480834
     -1.746747     14.366357     14.366357     28.732715
     -1.736737     10.607219     10.607219     21.214439
     -1.726727      7.347377      7.347377     14.694753
     -1.716717      4.827535      4.827535      9.655071
     -1.706707      3.138086      3.138086      6.276171
     -1.696697      2.264022      2.264022      4.528044
     -1.686687      2.143969      2.143969      4.287937
     -1.676677      2.706854      2.706854      5.413709
     -1.666667      3.868651      3.868651      7.737302
     -1.656657      5.497429      5.497429     10.994858
     -1.646647      7.376215      7.376215     14.752430
     -1.636637      9.199557      9.199557     18.399113
     -1.626627     10.625859     10.625859     21.251717
