# EIG2DOS: Utility for SIESTA to obtain the electronic density of states
#  E. Artacho, Apr 1999, A. Garcia, Apr 2012
#  Nick R. Papior, Feb 2017
# ------------------------------------------
# Eigenvalues calculated from a non-polarized calculation
# Eigenvalues read from siesta.EIG
# Kpoint weights read from siesta.KP
# Using smearing parameter:   0.0500
# Using 1000 points in the energy range
# Selected bands: 1 to: 2981
# Emin, Emax in file for selected band(s):    -27.1393159    218.3762210
# Nbands, Nspin, Nk   =   2981     1     1
# E_F                 =    -4.2228 eV --> (shifted to ZERO)
# Broadening          =     0.0500 eV
#
#        E            N(up)  (=)   N(down)         Ntot
     -5.000000     32.922922     32.922922     65.845844
     -4.989990     37.369412     37.369412     74.738824
     -4.979980     41.357050     41.357050     82.714099
     -4.969970     44.239208     44.239208     88.478417
     -4.959960     45.501432     45.501432     91.002864
     -4.949950     44.930612     44.930612     89.861225
     -4.939940     42.693858     42.693858     85.387715
     -4.929930     39.309119     39.309119     78.618237
     -4.919920     35.538133     35.538133     71.076266
     -4.909910     32.249358     32.249358     64.498716
     -4.899900     30.278954     30.278954     60.557908
     -4.889890     30.287000     30.287000     60.574000
     -4.879880     32.599861     32.599861     65.199722
     -4.869870     37.061774     37.061774     74.123548
     -4.859860     42.964140     42.964140     85.928280
     -4.849850     49.132419     49.132419     98.264837
     -4.839840     54.198570     54.198570    108.397140
     -4.829830     56.990498     56.990498    113.980996
     -4.819820     56.889082     56.889082    113.778165
     -4.809810     53.997779     53.997779    107.995558
     -4.799800     49.052692     49.052692     98.105384
     -4.789790     43.125726     43.125726     86.251452
     -4.779780     37.264568     37.264568     74.529137
     -4.769770     32.219966     32.219966     64.439932
     -4.759760     28.340623     28.340623     56.681246
     -4.749750     25.622902     25.622902     51.245803
     -4.739740     23.842555     23.842555     47.685111
     -4.729730     22.689837     22.689837     45.379674
     -4.719720     21.860939     21.860939     43.721879
     -4.709710     21.098244     21.098244     42.196487
     -4.699700     20.199578     20.199578     40.399156
     -4.689690     19.026289     19.026289     38.052577
     -4.679680     17.531754     17.531754     35.063509
     -4.669670     15.810629     15.810629     31.621258
     -4.659660     14.145611     14.145611     28.291223
     -4.649650     13.016845     13.016845     26.033689
     -4.639640     13.046132     13.046132     26.092265
     -4.629630     14.869052     14.869052     29.738103
     -4.619620     18.952830     18.952830     37.905659
     -4.609610     25.401150     25.401150     50.802300
     -4.599600     33.807189     33.807189     67.614377
     -4.589590     43.225515     43.225515     86.451031
     -4.579580     52.315910     52.315910    104.631820
     -4.569570     59.656905     59.656905    119.313810
     -4.559560     64.147494     64.147494    128.294988
     -4.549550     65.352165     65.352165    130.704331
     -4.539540     63.641258     63.641258    127.282515
     -4.529530     60.051312     60.051312    120.102624
     -4.519520     55.909596     55.909596    111.819193
     -4.509510     52.373145     52.373145    104.746290
     -4.499499     50.069132     50.069132    100.138264
     -4.489489     48.970928     48.970928     97.941857
     -4.479479     48.532020     48.532020     97.064041
     -4.469469     47.987730     47.987730     95.975460
     -4.459459     46.677636     46.677636     93.355272
     -4.449449     44.260420     44.260420     88.520840
     -4.439439     40.766559     40.766559     81.533118
     -4.429429     36.517126     36.517126     73.034251
     -4.419419     31.985792     31.985792     63.971583
     -4.409409     27.677690     27.677690     55.355380
     -4.399399     24.056266     24.056266     48.112532
     -4.389389     21.502472     21.502472     43.004945
     -4.379379     20.272895     20.272895     40.545790
     -4.369369     20.443878     20.443878     40.887755
     -4.359359     21.866160     21.866160     43.732321
     -4.349349     24.174220     24.174220     48.348441
     -4.339339     26.876239     26.876239     53.752478
     -4.329329     29.504989     29.504989     59.009978
     -4.319319     31.769220     31.769220     63.538441
     -4.309309     33.637421     33.637421     67.274842
     -4.299299     35.314746     35.314746     70.629492
     -4.289289     37.119796     37.119796     74.239591
     -4.279279     39.306615     39.306615     78.613231
     -4.269269     41.896968     41.896968     83.793936
     -4.259259     44.589097     44.589097     89.178194
     -4.249249     46.792758     46.792758     93.585517
     -4.239239     47.802051     47.802051     95.604102
     -4.229229     47.059021     47.059021     94.118042
     -4.219219     44.404471     44.404471     88.808942
     -4.209209     40.195959     40.195959     80.391917
     -4.199199     35.221963     35.221963     70.443926
     -4.189189     30.439168     30.439168     60.878337
     -4.179179     26.651115     26.651115     53.302229
     -4.169169     24.274411     24.274411     48.548822
     -4.159159     23.287331     23.287331     46.574661
     -4.149149     23.359731     23.359731     46.719463
     -4.139139     24.079484     24.079484     48.158969
     -4.129129     25.158328     25.158328     50.316655
     -4.119119     26.523613     26.523613     53.047225
     -4.109109     28.261819     28.261819     56.523638
     -4.099099     30.449455     30.449455     60.898910
     -4.089089     32.963660     32.963660     65.927320
     -4.079079     35.384879     35.384879     70.769757
     -4.069069     37.068827     37.068827     74.137653
     -4.059059     37.379263     37.379263     74.758526
     -4.049049     35.977577     35.977577     71.955154
     -4.039039     33.019729     33.019729     66.039457
     -4.029029     29.152163     29.152163     58.304327
     -4.019019     25.305554     25.305554     50.611108
     -4.009009     22.391463     22.391463     44.782926
     -3.998999     21.046275     21.046275     42.092550
     -3.988989     21.521386     21.521386     43.042772
     -3.978979     23.727125     23.727125     47.454250
     -3.968969     27.362562     27.362562     54.725124
     -3.958959     32.045646     32.045646     64.091293
     -3.948949     37.394805     37.394805     74.789611
     -3.938939     43.065373     43.065373     86.130746
     -3.928929     48.770164     48.770164     97.540329
     -3.918919     54.299700     54.299700    108.599400
     -3.908909     59.526246     59.526246    119.052492
     -3.898899     64.363190     64.363190    128.726380
     -3.888889     68.674967     68.674967    137.349934
     -3.878879     72.176860     72.176860    144.353721
     -3.868869     74.392561     74.392561    148.785122
     -3.858859     74.723743     74.723743    149.447486
     -3.848849     72.632430     72.632430    145.264860
     -3.838839     67.872870     67.872870    135.745739
     -3.828829     60.672043     60.672043    121.344086
     -3.818819     51.769663     51.769663    103.539327
     -3.808809     42.285379     42.285379     84.570759
     -3.798799     33.454050     33.454050     66.908100
     -3.788789     26.322519     26.322519     52.645038
     -3.778779     21.509868     21.509868     43.019736
     -3.768769     19.099959     19.099959     38.199918
     -3.758759     18.682946     18.682946     37.365892
     -3.748749     19.516962     19.516962     39.033925
     -3.738739     20.756046     20.756046     41.512093
     -3.728729     21.684549     21.684549     43.369098
     -3.718719     21.904068     21.904068     43.808137
     -3.708709     21.430520     21.430520     42.861040
     -3.698699     20.675401     20.675401     41.350801
     -3.688689     20.308622     20.308622     40.617243
     -3.678679     21.030915     21.030915     42.061829
     -3.668669     23.316757     23.316757     46.633514
     -3.658659     27.211503     27.211503     54.423006
     -3.648649     32.262323     32.262323     64.524647
     -3.638639     37.621484     37.621484     75.242967
     -3.628629     42.291779     42.291779     84.583558
     -3.618619     45.419761     45.419761     90.839522
     -3.608609     46.521272     46.521272     93.042544
     -3.598599     45.561922     45.561922     91.123845
     -3.588589     42.889247     42.889247     85.778494
     -3.578579     39.075560     39.075560     78.151121
     -3.568569     34.746252     34.746252     69.492503
     -3.558559     30.442058     30.442058     60.884116
     -3.548549     26.529817     26.529817     53.059635
     -3.538539     23.162254     23.162254     46.324507
     -3.528529     20.291221     20.291221     40.582442
     -3.518519     17.737789     17.737789     35.475578
     -3.508509     15.303239     15.303239     30.606479
     -3.498498     12.879835     12.879835     25.759671
     -3.488488     10.513690     10.513690     21.027379
     -3.478478      8.394380      8.394380     16.788759
     -3.468468      6.782257      6.782257     13.564514
     -3.458458      5.909545      5.909545     11.819090
     -3.448448      5.893096      5.893096     11.786193
     -3.438438      6.683275      6.683275     13.366550
     -3.428428      8.060382      8.060382     16.120764
     -3.418418      9.682965      9.682965     19.365929
     -3.408408     11.183857     11.183857     22.367715
     -3.398398     12.292470     12.292470     24.584941
     -3.388388     12.941544     12.941544     25.883088
     -3.378378     13.310795     13.310795     26.621589
     -3.368368     13.780815     13.780815     27.561630
     -3.358358     14.810466     14.810466     29.620932
     -3.348348     16.784647     16.784647     33.569293
     -3.338338     19.884850     19.884850     39.769699
     -3.328328     24.013155     24.013155     48.026309
     -3.318318     28.774231     28.774231     57.548463
     -3.308308     33.512389     33.512389     67.024779
     -3.298298     37.410572     37.410572     74.821144
     -3.288288     39.660058     39.660058     79.320116
     -3.278278     39.681373     39.681373     79.362746
     -3.268268     37.328891     37.328891     74.657783
     -3.258258     32.985206     32.985206     65.970413
     -3.248248     27.481585     27.481585     54.963169
     -3.238238     21.859567     21.859567     43.719134
     -3.228228     17.066243     17.066243     34.132487
     -3.218218     13.702300     13.702300     27.404600
     -3.208208     11.907488     11.907488     23.814976
     -3.198198     11.403486     11.403486     22.806972
     -3.188188     11.658353     11.658353     23.316705
     -3.178178     12.108278     12.108278     24.216556
     -3.168168     12.367327     12.367327     24.734654
     -3.158158     12.365272     12.365272     24.730544
     -3.148148     12.374377     12.374377     24.748754
     -3.138138     12.916847     12.916847     25.833695
     -3.128128     14.578949     14.578949     29.157898
     -3.118118     17.785078     17.785078     35.570156
     -3.108108     22.598662     22.598662     45.197325
     -3.098098     28.615641     28.615641     57.231282
     -3.088088     34.999128     34.999128     69.998256
     -3.078078     40.666453     40.666453     81.332906
     -3.068068     44.583521     44.583521     89.167041
     -3.058058     46.065906     46.065906     92.131813
     -3.048048     44.966196     44.966196     89.932392
     -3.038038     41.668473     41.668473     83.336947
     -3.028028     36.901836     36.901836     73.803672
     -3.018018     31.473948     31.473948     62.947896
     -3.008008     26.055792     26.055792     52.111583
     -2.997998     21.101669     21.101669     42.203337
     -2.987988     16.899969     16.899969     33.799938
     -2.977978     13.680759     13.680759     27.361518
     -2.967968     11.694027     11.694027     23.388054
     -2.957958     11.210098     11.210098     22.420197
     -2.947948     12.445480     12.445480     24.890961
     -2.937938     15.452556     15.452556     30.905112
     -2.927928     20.022811     20.022811     40.045621
     -2.917918     25.648375     25.648375     51.296751
     -2.907908     31.571746     31.571746     63.143492
     -2.897898     36.927759     36.927759     73.855518
     -2.887888     40.946212     40.946212     81.892424
     -2.877878     43.149872     43.149872     86.299745
     -2.867868     43.470795     43.470795     86.941589
     -2.857858     42.231865     42.231865     84.463730
     -2.847848     39.995360     39.995360     79.990720
     -2.837838     37.341110     37.341110     74.682220
     -2.827828     34.671201     34.671201     69.342403
     -2.817818     32.125067     32.125067     64.250135
     -2.807808     29.632599     29.632599     59.265199
     -2.797798     27.062498     27.062498     54.124997
     -2.787788     24.376784     24.376784     48.753569
     -2.777778     21.705656     21.705656     43.411312
     -2.767768     19.307401     19.307401     38.614802
     -2.757758     17.446485     17.446485     34.892970
     -2.747748     16.269562     16.269562     32.539123
     -2.737738     15.756529     15.756529     31.513058
     -2.727728     15.773302     15.773302     31.546604
     -2.717718     16.185497     16.185497     32.370994
     -2.707708     16.951011     16.951011     33.902022
     -2.697698     18.123392     18.123392     36.246783
     -2.687688     19.760608     19.760608     39.521217
     -2.677678     21.804329     21.804329     43.608658
     -2.667668     24.023030     24.023030     48.046060
     -2.657658     26.074165     26.074165     52.148329
     -2.647648     27.658942     27.658942     55.317885
     -2.637638     28.674706     28.674706     57.349411
     -2.627628     29.265316     29.265316     58.530633
     -2.617618     29.735059     29.735059     59.470118
     -2.607608     30.380073     30.380073     60.760146
     -2.597598     31.339147     31.339147     62.678294
     -2.587588     32.540956     32.540956     65.081912
     -2.577578     33.752442     33.752442     67.504884
     -2.567568     34.672527     34.672527     69.345055
     -2.557558     35.010235     35.010235     70.020470
     -2.547548     34.529066     34.529066     69.058132
     -2.537538     33.082984     33.082984     66.165969
     -2.527528     30.671787     30.671787     61.343573
     -2.517518     27.506015     27.506015     55.012031
     -2.507508     24.033172     24.033172     48.066344
     -2.497497     20.877037     20.877037     41.754074
     -2.487487     18.685040     18.685040     37.370079
     -2.477477     17.934291     17.934291     35.868582
     -2.467467     18.777515     18.777515     37.555030
     -2.457457     20.998223     20.998223     41.996446
     -2.447447     24.098454     24.098454     48.196908
     -2.437437     27.485248     27.485248     54.970496
     -2.427427     30.678179     30.678179     61.356358
     -2.417417     33.448532     33.448532     66.897064
     -2.407407     35.828373     35.828373     71.656747
     -2.397397     37.986170     37.986170     75.972341
     -2.387387     40.030083     40.030083     80.060167
     -2.377377     41.839942     41.839942     83.679884
     -2.367367     43.021993     43.021993     86.043986
     -2.357357     43.025182     43.025182     86.050363
     -2.347347     41.376945     41.376945     82.753890
     -2.337337     37.930678     37.930678     75.861357
     -2.327327     33.004443     33.004443     66.008887
     -2.317317     27.342191     27.342191     54.684382
     -2.307307     21.916386     21.916386     43.832771
     -2.297297     17.662658     17.662658     35.325316
     -2.287287     15.253742     15.253742     30.507484
     -2.277277     14.981592     14.981592     29.963184
     -2.267267     16.756872     16.756872     33.513744
     -2.257257     20.191162     20.191162     40.382324
     -2.247247     24.714302     24.714302     49.428603
     -2.237237     29.688694     29.688694     59.377388
     -2.227227     34.498440     34.498440     68.996879
     -2.217217     38.605513     38.605513     77.211027
     -2.207207     41.577675     41.577675     83.155350
     -2.197197     43.103541     43.103541     86.207082
     -2.187187     43.013898     43.013898     86.027795
     -2.177177     41.317761     41.317761     82.635523
     -2.167167     38.237987     38.237987     76.475973
     -2.157157     34.209646     34.209646     68.419293
     -2.147147     29.806770     29.806770     59.613541
     -2.137137     25.598204     25.598204     51.196408
     -2.127127     21.983160     21.983160     43.966320
     -2.117117     19.084697     19.084697     38.169394
     -2.107107     16.758329     16.758329     33.516658
     -2.097097     14.711728     14.711728     29.423456
     -2.087087     12.670162     12.670162     25.340324
     -2.077077     10.502190     10.502190     21.004380
     -2.067067      8.251924      8.251924     16.503848
     -2.057057      6.082181      6.082181     12.164362
     -2.047047      4.177469      4.177469      8.354938
     -2.037037      2.663168      2.663168      5.326336
     -2.027027      1.572639      1.572639      3.145278
     -2.017017      0.860681      0.860681      1.721363
     -2.007007      0.441233      0.441233      0.882465
     -1.996997      0.225859      0.225859      0.451718
     -1.986987      0.150318      0.150318      0.300636
     -1.976977      0.188221      0.188221      0.376442
     -1.966967      0.356645      0.356645      0.713290
     -1.956957      0.717547      0.717547      1.435094
     -1.946947      1.374275      1.374275      2.748549
     -1.936937      2.458662      2.458662      4.917323
     -1.926927      4.104628      4.104628      8.209257
     -1.916917      6.409783      6.409783     12.819566
     -1.906907      9.394257      9.394257     18.788513
     -1.896897     12.970275     12.970275     25.940549
     -1.886887     16.932842     16.932842     33.865684
     -1.876877     20.973801     20.973801     41.947602
     -1.866867     24.715872     24.715872     49.431744
     -1.856857     27.764533     27.764533     55.529067
     -1.846847     29.777952     29.777952     59.555905
     -1.836837     30.547733     30.547733     61.095466
     -1.826827     30.064710     30.064710     60.129421
     -1.816817     28.531129     28.531129     57.062258
     -1.806807     26.294853     26.294853     52.589706
     -1.796797     23.724014     23.724014     47.448027
     -1.786787     21.083036     21.083036     42.166072
     -1.776777     18.476590     18.476590     36.953181
     -1.766767     15.886679     15.886679     31.773359
     -1.756757     13.268922     13.268922     26.537844
     -1.746747     10.641470     10.641470     21.282941
     -1.736737      8.115393      8.115393     16.230785
     -1.726727      5.861733      5.861733     11.723466
     -1.716717      4.050426      4.050426      8.100853
     -1.706707      2.803830      2.803830      5.607659
     -1.696697      2.185225      2.185225      4.370450
     -1.686687      2.212309      2.212309      4.424618
     -1.676677      2.869463      2.869463      5.738927
     -1.666667      4.098574      4.098574      8.197148
     -1.656657      5.769722      5.769722     11.539444
     -1.646647      7.655425      7.655425     15.310850
     -1.636637      9.440330      9.440330     18.880659
     -1.626627     10.784762     10.784762     21.569525
