# EIG2DOS: Utility for SIESTA to obtain the electronic density of states
#  E. Artacho, Apr 1999, A. Garcia, Apr 2012
#  Nick R. Papior, Feb 2017
# ------------------------------------------
# Eigenvalues calculated from a non-polarized calculation
# Eigenvalues read from siesta.EIG
# Kpoint weights read from siesta.KP
# Using smearing parameter:   0.0500
# Using 1000 points in the energy range
# Selected bands: 1 to: 2981
# Emin, Emax in file for selected band(s):    -27.3278489    218.3904840
# Nbands, Nspin, Nk   =   2981     1     1
# E_F                 =    -4.2060 eV --> (shifted to ZERO)
# Broadening          =     0.0500 eV
#
#        E            N(up)  (=)   N(down)         Ntot
     -5.000000     31.326765     31.326765     62.653530
     -4.989990     36.405943     36.405943     72.811887
     -4.979980     41.261864     41.261864     82.523728
     -4.969970     45.062454     45.062454     90.124909
     -4.959960     47.086128     47.086128     94.172257
     -4.949950     46.961927     46.961927     93.923855
     -4.939940     44.798799     44.798799     89.597599
     -4.929930     41.164877     41.164877     82.329753
     -4.919920     36.947034     36.947034     73.894068
     -4.909910     33.157074     33.157074     66.314149
     -4.899900     30.738646     30.738646     61.477293
     -4.889890     30.393295     30.393295     60.786589
     -4.879880     32.426032     32.426032     64.852065
     -4.869870     36.629402     36.629402     73.258804
     -4.859860     42.258049     42.258049     84.516097
     -4.849850     48.150163     48.150163     96.300326
     -4.839840     53.003943     53.003943    106.007887
     -4.829830     55.737235     55.737235    111.474470
     -4.819820     55.799130     55.799130    111.598260
     -4.809810     53.308368     53.308368    106.616735
     -4.799800     48.967633     48.967633     97.935266
     -4.789790     43.803163     43.803163     87.606325
     -4.779780     38.847252     38.847252     77.694505
     -4.769770     34.882802     34.882802     69.765603
     -4.759760     32.314141     32.314141     64.628283
     -4.749750     31.160240     31.160240     62.320479
     -4.739740     31.126491     31.126491     62.252982
     -4.729730     31.711210     31.711210     63.422420
     -4.719720     32.323484     32.323484     64.646968
     -4.709710     32.404012     32.404012     64.808024
     -4.699700     31.539804     31.539804     63.079609
     -4.689690     29.555565     29.555565     59.111130
     -4.679680     26.562427     26.562427     53.124854
     -4.669670     22.952819     22.952819     45.905638
     -4.659660     19.343134     19.343134     38.686269
     -4.649650     16.475346     16.475346     32.950692
     -4.639640     15.090707     15.090707     30.181415
     -4.629630     15.786241     15.786241     31.572482
     -4.619620     18.866261     18.866261     37.732521
     -4.609610     24.213854     24.213854     48.427707
     -4.599600     31.227444     31.227444     62.454887
     -4.589590     38.876736     38.876736     77.753472
     -4.579580     45.908391     45.908391     91.816783
     -4.569570     51.170572     51.170572    102.341145
     -4.559560     53.954374     53.954374    107.908747
     -4.549550     54.215023     54.215023    108.430047
     -4.539540     52.568482     52.568482    105.136963
     -4.529530     50.050939     50.050939    100.101878
     -4.519520     47.733469     47.733469     95.466937
     -4.509510     46.347179     46.347179     92.694358
     -4.499499     46.065215     46.065215     92.130430
     -4.489489     46.514516     46.514516     93.029032
     -4.479479     46.989998     46.989998     93.979997
     -4.469469     46.763672     46.763672     93.527344
     -4.459459     45.355190     45.355190     90.710380
     -4.449449     42.665399     42.665399     85.330798
     -4.439439     38.948660     38.948660     77.897320
     -4.429429     34.674034     34.674034     69.348068
     -4.419419     30.363263     30.363263     60.726526
     -4.409409     26.479302     26.479302     52.958604
     -4.399399     23.387276     23.387276     46.774553
     -4.389389     21.356834     21.356834     42.713668
     -4.379379     20.556574     20.556574     41.113149
     -4.369369     21.017398     21.017398     42.034795
     -4.359359     22.587905     22.587905     45.175811
     -4.349349     24.932037     24.932037     49.864073
     -4.339339     27.603401     27.603401     55.206802
     -4.329329     30.183042     30.183042     60.366083
     -4.319319     32.422366     32.422366     64.844733
     -4.309309     34.321398     34.321398     68.642797
     -4.299299     36.099673     36.099673     72.199346
     -4.289289     38.064467     38.064467     76.128934
     -4.279279     40.424507     40.424507     80.849013
     -4.269269     43.122441     43.122441     86.244883
     -4.259259     45.761209     45.761209     91.522418
     -4.249249     47.674863     47.674863     95.349726
     -4.239239     48.142041     48.142041     96.284082
     -4.229229     46.672287     46.672287     93.344574
     -4.219219     43.244228     43.244228     86.488455
     -4.209209     38.377797     38.377797     76.755593
     -4.199199     32.992106     32.992106     65.984211
     -4.189189     28.104276     28.104276     56.208552
     -4.179179     24.502974     24.502974     49.005948
     -4.169169     22.537726     22.537726     45.075452
     -4.159159     22.100717     22.100717     44.201433
     -4.149149     22.782873     22.782873     45.565747
     -4.139139     24.111873     24.111873     48.223746
     -4.129129     25.756279     25.756279     51.512558
     -4.119119     27.607668     27.607668     55.215337
     -4.109109     29.713261     29.713261     59.426522
     -4.099099     32.102107     32.102107     64.204213
     -4.089089     34.603364     34.603364     69.206727
     -4.079079     36.769254     36.769254     73.538508
     -4.069069     37.970702     37.970702     75.941404
     -4.059059     37.641944     37.641944     75.283888
     -4.049049     35.559018     35.559018     71.118036
     -4.039039     32.005075     32.005075     64.010150
     -4.029029     27.729867     27.729867     55.459733
     -4.019019     23.720513     23.720513     47.441026
     -4.009009     20.896413     20.896413     41.792826
     -3.998999     19.865868     19.865868     39.731735
     -3.988989     20.829868     20.829868     41.659737
     -3.978979     23.632539     23.632539     47.265077
     -3.968969     27.893475     27.893475     55.786950
     -3.958959     33.145381     33.145381     66.290762
     -3.948949     38.932530     38.932530     77.865060
     -3.938939     44.867481     44.867481     89.734962
     -3.928929     50.662713     50.662713    101.325425
     -3.918919     56.143156     56.143156    112.286313
     -3.908909     61.225574     61.225574    122.451149
     -3.898899     65.849824     65.849824    131.699647
     -3.888889     69.874735     69.874735    139.749470
     -3.878879     72.988258     72.988258    145.976515
     -3.868869     74.695371     74.695371    149.390741
     -3.858859     74.420128     74.420128    148.840257
     -3.848849     71.701410     71.701410    143.402820
     -3.838839     66.407944     66.407944    132.815889
     -3.828829     58.878415     58.878415    117.756830
     -3.818819     49.918282     49.918282     99.836563
     -3.808809     40.642944     40.642944     81.285889
     -3.798799     32.217922     32.217922     64.435844
     -3.788789     25.583101     25.583101     51.166202
     -3.778779     21.247231     21.247231     42.494462
     -3.768769     19.207338     19.207338     38.414675
     -3.758759     19.004035     19.004035     38.008070
     -3.748749     19.885843     19.885843     39.771687
     -3.738739     21.032847     21.032847     42.065694
     -3.728729     21.782556     21.782556     43.565112
     -3.718719     21.804644     21.804644     43.609288
     -3.708709     21.182795     21.182795     42.365591
     -3.698699     20.379972     20.379972     40.759944
     -3.688689     20.088228     20.088228     40.176456
     -3.678679     20.995017     20.995017     41.990034
     -3.668669     23.529420     23.529420     47.058840
     -3.658659     27.671782     27.671782     55.343564
     -3.648649     32.903050     32.903050     65.806100
     -3.638639     38.326615     38.326615     76.653231
     -3.628629     42.926405     42.926405     85.852811
     -3.618619     45.863052     45.863052     91.726104
     -3.608609     46.692864     46.692864     93.385727
     -3.598599     45.435838     45.435838     90.871675
     -3.588589     42.494027     42.494027     84.988054
     -3.578579     38.482567     38.482567     76.965134
     -3.568569     34.049712     34.049712     68.099424
     -3.558559     29.735515     29.735515     59.471031
     -3.548549     25.884894     25.884894     51.769789
     -3.538539     22.616013     22.616013     45.232027
     -3.528529     19.846253     19.846253     39.692507
     -3.518519     17.374394     17.374394     34.748787
     -3.508509     14.998180     14.998180     29.996359
     -3.498498     12.624407     12.624407     25.248814
     -3.488488     10.326626     10.326626     20.653252
     -3.478478      8.330425      8.330425     16.660851
     -3.468468      6.941042      6.941042     13.882083
     -3.458458      6.448341      6.448341     12.896681
     -3.448448      7.040736      7.040736     14.081471
     -3.438438      8.743926      8.743926     17.487853
     -3.428428     11.390467     11.390467     22.780935
     -3.418418     14.628128     14.628128     29.256257
     -3.408408     17.978493     17.978493     35.956985
     -3.398398     20.947869     20.947869     41.895738
     -3.388388     23.168070     23.168070     46.336139
     -3.378378     24.519312     24.519312     49.038624
     -3.368368     25.181764     25.181764     50.363527
     -3.358358     25.585102     25.585102     51.170204
     -3.348348     26.266154     26.266154     52.532309
     -3.338338     27.680378     27.680378     55.360757
     -3.328328     30.026777     30.026777     60.053554
     -3.318318     33.138640     33.138640     66.277279
     -3.308308     36.476314     36.476314     72.952628
     -3.298298     39.239261     39.239261     78.478523
     -3.288288     40.586182     40.586182     81.172364
     -3.278278     39.908813     39.908813     79.817626
     -3.268268     37.063188     37.063188     74.126375
     -3.258258     32.456018     32.456018     64.912037
     -3.248248     26.934689     26.934689     53.869378
     -3.238238     21.517636     21.517636     43.035272
     -3.228228     17.075722     17.075722     34.151445
     -3.218218     14.090801     14.090801     28.181603
     -3.208208     12.572504     12.572504     25.145009
     -3.198198     12.142263     12.142263     24.284526
     -3.188188     12.233470     12.233470     24.466940
     -3.178178     12.327361     12.327361     24.654721
     -3.168168     12.144633     12.144633     24.289266
     -3.158158     11.735048     11.735048     23.470096
     -3.148148     11.443181     11.443181     22.886361
     -3.138138     11.768170     11.768170     23.536341
     -3.128128     13.166705     13.166705     26.333409
     -3.118118     15.862956     15.862956     31.725912
     -3.108108     19.725951     19.725951     39.451903
     -3.098098     24.257302     24.257302     48.514603
     -3.088088     28.702366     28.702366     57.404731
     -3.078078     32.257429     32.257429     64.514859
     -3.068068     34.304151     34.304151     68.608302
     -3.058058     34.581251     34.581251     69.162502
     -3.048048     33.222714     33.222714     66.445427
     -3.038038     30.651660     30.651660     61.303320
     -3.028028     27.390352     27.390352     54.780703
     -3.018018     23.886124     23.886124     47.772247
     -3.008008     20.434317     20.434317     40.868634
     -2.997998     17.215116     17.215116     34.430231
     -2.987988     14.394679     14.394679     28.789359
     -2.977978     12.213145     12.213145     24.426291
     -2.967968     11.002632     11.002632     22.005264
     -2.957958     11.124280     11.124280     22.248559
     -2.947948     12.852747     12.852747     25.705493
     -2.937938     16.253435     16.253435     32.506871
     -2.927928     21.096296     21.096296     42.192591
     -2.917918     26.840528     26.840528     53.681055
     -2.907908     32.709554     32.709554     65.419109
     -2.897898     37.851241     37.851241     75.702482
     -2.887888     41.545134     41.545134     83.090268
     -2.877878     43.389285     43.389285     86.778571
     -2.867868     43.393447     43.393447     86.786895
     -2.857858     41.934766     41.934766     83.869531
     -2.847848     39.588959     39.588959     79.177919
     -2.837838     36.907854     36.907854     73.815707
     -2.827828     34.241208     34.241208     68.482416
     -2.817818     31.679118     31.679118     63.358236
     -2.807808     29.129423     29.129423     58.258846
     -2.797798     26.475188     26.475188     52.950376
     -2.787788     23.718885     23.718885     47.437770
     -2.777778     21.033880     21.033880     42.067760
     -2.767768     18.701614     18.701614     37.403228
     -2.757758     16.980488     16.980488     33.960977
     -2.747748     15.990437     15.990437     31.980874
     -2.737738     15.683239     15.683239     31.366479
     -2.727728     15.911247     15.911247     31.822495
     -2.717718     16.541950     16.541950     33.083901
     -2.707708     17.535184     17.535184     35.070368
     -2.697698     18.926215     18.926215     37.852429
     -2.687688     20.726386     20.726386     41.452773
     -2.677678     22.817229     22.817229     45.634458
     -2.667668     24.926417     24.926417     49.852835
     -2.657658     26.721069     26.721069     53.442139
     -2.647648     27.969843     27.969843     55.939686
     -2.637638     28.670471     28.670471     57.340942
     -2.627628     29.056005     29.056005     58.112010
     -2.617618     29.471193     29.471193     58.942387
     -2.607608     30.193626     30.193626     60.387253
     -2.597598     31.302787     31.302787     62.605574
     -2.587588     32.657480     32.657480     65.314961
     -2.577578     33.966868     33.966868     67.933737
     -2.567568     34.891926     34.891926     69.783852
     -2.557558     35.123351     35.123351     70.246703
     -2.547548     34.428329     34.428329     68.856658
     -2.537538     32.693294     32.693294     65.386588
     -2.527528     29.981678     29.981678     59.963357
     -2.517518     26.586864     26.586864     53.173727
     -2.507508     23.032087     23.032087     46.064175
     -2.497497     19.980935     19.980935     39.961870
     -2.487487     18.068675     18.068675     36.137351
     -2.477477     17.713172     17.713172     35.426344
     -2.467467     18.983192     18.983192     37.966383
     -2.457457     21.582213     21.582213     43.164425
     -2.447447     24.959145     24.959145     49.918291
     -2.437437     28.504638     28.504638     57.009277
     -2.427427     31.753745     31.753745     63.507490
     -2.417417     34.509011     34.509011     69.018022
     -2.407407     36.829158     36.829158     73.658316
     -2.397397     38.888468     38.888468     77.776937
     -2.387387     40.775653     40.775653     81.551306
     -2.377377     42.337099     42.337099     84.674198
     -2.367367     43.155676     43.155676     86.311351
     -2.357357     42.693021     42.693021     85.386042
     -2.347347     40.538192     40.538192     81.076384
     -2.337337     36.644008     36.644008     73.288016
     -2.327327     31.432597     31.432597     62.865194
     -2.317317     25.717113     25.717113     51.434227
     -2.307307     20.478878     20.478878     40.957755
     -2.297297     16.602627     16.602627     33.205254
     -2.287287     14.674045     14.674045     29.348091
     -2.277277     14.894102     14.894102     29.788204
     -2.267267     17.103869     17.103869     34.207737
     -2.257257     20.876706     20.876706     41.753412
     -2.247247     25.630682     25.630682     51.261364
     -2.237237     30.729564     30.729564     61.459129
     -2.227227     35.558777     35.558777     71.117554
     -2.217217     39.575731     39.575731     79.151461
     -2.207207     42.342416     42.342416     84.684833
     -2.197197     43.553244     43.553244     87.106489
     -2.187187     43.069511     43.069511     86.139021
     -2.177177     40.959375     40.959375     81.918750
     -2.167167     37.522018     37.522018     75.044036
     -2.157157     33.261331     33.261331     66.522663
     -2.147147     28.785907     28.785907     57.571814
     -2.137137     24.651201     24.651201     49.302402
     -2.127127     21.204601     21.204601     42.409202
     -2.117117     18.509704     18.509704     37.019408
     -2.107107     16.393079     16.393079     32.786157
     -2.097097     14.591151     14.591151     29.182303
     -2.087087     12.918839     12.918839     25.837678
     -2.077077     11.371751     11.371751     22.743502
     -2.067067     10.114404     10.114404     20.228808
     -2.057057      9.369853      9.369853     18.739706
     -2.047047      9.274123      9.274123     18.548247
     -2.037037      9.770068      9.770068     19.540136
     -2.027027     10.590966     10.590966     21.181931
     -2.017017     11.340560     11.340560     22.681120
     -2.007007     11.633163     11.633163     23.266326
     -1.996997     11.232267     11.232267     22.464534
     -1.986987     10.129583     10.129583     20.259166
     -1.976977      8.537240      8.537240     17.074481
     -1.966967      6.807935      6.807935     13.615869
     -1.956957      5.327245      5.327245     10.654490
     -1.946947      4.423480      4.423480      8.846959
     -1.936937      4.317071      4.317071      8.634141
     -1.926927      5.103582      5.103582     10.207164
     -1.916917      6.751607      6.751607     13.503214
     -1.906907      9.104123      9.104123     18.208246
     -1.896897     11.887891     11.887891     23.775782
     -1.886887     14.743945     14.743945     29.487890
     -1.876877     17.285868     17.285868     34.571736
     -1.866867     19.177275     19.177275     38.354550
     -1.856857     20.207628     20.207628     40.415256
     -1.846847     20.342711     20.342711     40.685422
     -1.836837     19.731353     19.731353     39.462707
     -1.826827     18.659557     18.659557     37.319114
     -1.816817     17.457579     17.457579     34.915158
     -1.806807     16.385447     16.385447     32.770894
     -1.796797     15.540656     15.540656     31.081311
     -1.786787     14.832793     14.832793     29.665586
     -1.776777     14.043393     14.043393     28.086786
     -1.766767     12.945206     12.945206     25.890411
     -1.756757     11.421095     11.421095     22.842191
     -1.746747      9.523662      9.523662     19.047324
     -1.736737      7.453049      7.453049     14.906099
     -1.726727      5.477015      5.477015     10.954030
     -1.716717      3.843348      3.843348      7.686696
     -1.706707      2.726750      2.726750      5.453499
     -1.696697      2.221333      2.221333      4.442666
     -1.686687      2.359532      2.359532      4.719063
     -1.676677      3.126867      3.126867      6.253735
     -1.666667      4.453394      4.453394      8.906788
     -1.656657      6.187079      6.187079     12.374157
     -1.646647      8.075924      8.075924     16.151848
     -1.636637      9.790059      9.790059     19.580118
     -1.626627     10.997169     10.997169     21.994337
