# EIG2DOS: Utility for SIESTA to obtain the electronic density of states
#  E. Artacho, Apr 1999, A. Garcia, Apr 2012
#  Nick R. Papior, Feb 2017
# ------------------------------------------
# Eigenvalues calculated from a non-polarized calculation
# Eigenvalues read from siesta.EIG
# Kpoint weights read from siesta.KP
# Using smearing parameter:   0.0500
# Using 1000 points in the energy range
# Selected bands: 1 to: 2981
# Emin, Emax in file for selected band(s):    -27.1714271    218.3407290
# Nbands, Nspin, Nk   =   2981     1     1
# E_F                 =    -4.2710 eV --> (shifted to ZERO)
# Broadening          =     0.0500 eV
#
#        E            N(up)  (=)   N(down)         Ntot
     -5.000000     35.738786     35.738786     71.477572
     -4.989990     38.645093     38.645093     77.290186
     -4.979980     41.043616     41.043616     82.087232
     -4.969970     42.518877     42.518877     85.037754
     -4.959960     42.798260     42.798260     85.596519
     -4.949950     41.816480     41.816480     83.632960
     -4.939940     39.736015     39.736015     79.472029
     -4.929930     36.929193     36.929193     73.858387
     -4.919920     33.937640     33.937640     67.875280
     -4.909910     31.418882     31.418882     62.837764
     -4.899900     30.071640     30.071640     60.143280
     -4.889890     30.517119     30.517119     61.034238
     -4.879880     33.125429     33.125429     66.250859
     -4.869870     37.821378     37.821378     75.642757
     -4.859860     43.958278     43.958278     87.916557
     -4.849850     50.364771     50.364771    100.729542
     -4.839840     55.613151     55.613151    111.226301
     -4.829830     58.443508     58.443508    116.887015
     -4.819820     58.173979     58.173979    116.347959
     -4.809810     54.909644     54.909644    109.819289
     -4.799800     49.455361     49.455361     98.910723
     -4.789790     42.987747     42.987747     85.975495
     -4.779780     36.653393     36.653393     73.306786
     -4.769770     31.268369     31.268369     62.536737
     -4.759760     27.208055     27.208055     54.416109
     -4.749750     24.466183     24.466183     48.932366
     -4.739740     22.797181     22.797181     45.594363
     -4.729730     21.857212     21.857212     43.714425
     -4.719720     21.299598     21.299598     42.599195
     -4.709710     20.821415     20.821415     41.642830
     -4.699700     20.180801     20.180801     40.361602
     -4.689690     19.209717     19.209717     38.419433
     -4.679680     17.840037     17.840037     35.680074
     -4.669670     16.144883     16.144883     32.289766
     -4.659660     14.377728     14.377728     28.755456
     -4.649650     12.979704     12.979704     25.959407
     -4.639640     12.529286     12.529286     25.058572
     -4.629630     13.626603     13.626603     27.253206
     -4.619620     16.728535     16.728535     33.457070
     -4.609610     21.973612     21.973612     43.947224
     -4.599600     29.053884     29.053884     58.107768
     -4.589590     37.196805     37.196805     74.393610
     -4.579580     45.299727     45.299727     90.599453
     -4.569570     52.205343     52.205343    104.410685
     -4.559560     57.035214     57.035214    114.070428
     -4.549550     59.451093     59.451093    118.902185
     -4.539540     59.728555     59.728555    119.457110
     -4.529530     58.607196     58.607196    117.214392
     -4.519520     56.984794     56.984794    113.969587
     -4.509510     55.590229     55.590229    111.180458
     -4.499499     54.765887     54.765887    109.531773
     -4.489489     54.424786     54.424786    108.849572
     -4.479479     54.164414     54.164414    108.328829
     -4.469469     53.462630     53.462630    106.925260
     -4.459459     51.870412     51.870412    103.740824
     -4.449449     49.142325     49.142325     98.284651
     -4.439439     45.285296     45.285296     90.570591
     -4.429429     40.539236     40.539236     81.078472
     -4.419419     35.318727     35.318727     70.637453
     -4.409409     30.142084     30.142084     60.284168
     -4.399399     25.559042     25.559042     51.118083
     -4.389389     22.073374     22.073374     44.146747
     -4.379379     20.055324     20.055324     40.110647
     -4.369369     19.654448     19.654448     39.308896
     -4.359359     20.744644     20.744644     41.489288
     -4.349349     22.939099     22.939099     45.878198
     -4.339339     25.691112     25.691112     51.382223
     -4.329329     28.455641     28.455641     56.911282
     -4.319319     30.851535     30.851535     61.703070
     -4.309309     32.759417     32.759417     65.518835
     -4.299299     34.318636     34.318636     68.637271
     -4.289289     35.829661     35.829661     71.659322
     -4.279279     37.601129     37.601129     75.202258
     -4.269269     39.792370     39.792370     79.584739
     -4.259259     42.299724     42.299724     84.599448
     -4.249249     44.728317     44.728317     89.456635
     -4.239239     46.477314     46.477314     92.954628
     -4.229229     46.933295     46.933295     93.866591
     -4.219219     45.712980     45.712980     91.425961
     -4.209209     42.850896     42.850896     85.701792
     -4.199199     38.831116     38.831116     77.662232
     -4.189189     34.430716     34.430716     68.861431
     -4.179179     30.442534     30.442534     60.885067
     -4.169169     27.411698     27.411698     54.823396
     -4.159159     25.509025     25.509025     51.018051
     -4.149149     24.584410     24.584410     49.168820
     -4.139139     24.348326     24.348326     48.696653
     -4.129129     24.573764     24.573764     49.147528
     -4.119119     25.214531     25.214531     50.429063
     -4.109109     26.385149     26.385149     52.770298
     -4.099099     28.216013     28.216013     56.432026
     -4.089089     30.660569     30.660569     61.321138
     -4.079079     33.365160     33.365160     66.730321
     -4.069069     35.694641     35.694641     71.389282
     -4.059059     36.932674     36.932674     73.865347
     -4.049049     36.575583     36.575583     73.151167
     -4.039039     34.572619     34.572619     69.145238
     -4.029029     31.383118     31.383118     62.766237
     -4.019019     27.819192     27.819192     55.638383
     -4.009009     24.760153     24.760153     49.520307
     -3.998999     22.885714     22.885714     45.771428
     -3.988989     22.543438     22.543438     45.086876
     -3.978979     23.771902     23.771902     47.543805
     -3.968969     26.413222     26.413222     52.826444
     -3.958959     30.222617     30.222617     60.445235
     -3.948949     34.922929     34.922929     69.845858
     -3.938939     40.215144     40.215144     80.430289
     -3.928929     45.789272     45.789272     91.578543
     -3.918919     51.362258     51.362258    102.724515
     -3.908909     56.724418     56.724418    113.448837
     -3.898899     61.747257     61.747257    123.494514
     -3.888889     66.321415     66.321415    132.642830
     -3.878879     70.244360     70.244360    140.488719
     -3.868869     73.126304     73.126304    146.252607
     -3.858859     74.393043     74.393043    148.786086
     -3.848849     73.423593     73.423593    146.847186
     -3.838839     69.787874     69.787874    139.575748
     -3.828829     63.485212     63.485212    126.970423
     -3.818819     55.067064     55.067064    110.134127
     -3.808809     45.571433     45.571433     91.142867
     -3.798799     36.280536     36.280536     72.561073
     -3.788789     28.391484     28.391484     56.782968
     -3.778779     22.721093     22.721093     45.442186
     -3.768769     19.540138     19.540138     39.080275
     -3.758759     18.572599     18.572599     37.145198
     -3.748749     19.137053     19.137053     38.274107
     -3.738739     20.373291     20.373291     40.746582
     -3.728729     21.489279     21.489279     42.978558
     -3.718719     21.970665     21.970665     43.941330
     -3.708709     21.707380     21.707380     43.414760
     -3.698699     21.007110     21.007110     42.014219
     -3.688689     20.486546     20.486546     40.973091
     -3.678679     20.860648     20.860648     41.721297
     -3.668669     22.684156     22.684156     45.368311
     -3.658659     26.126647     26.126647     52.253293
     -3.648649     30.865648     30.865648     61.731295
     -3.638639     36.148746     36.148746     72.297491
     -3.628629     41.010246     41.010246     82.020492
     -3.618619     44.559169     44.559169     89.118338
     -3.608609     46.223125     46.223125     92.446250
     -3.598599     45.859759     45.859759     91.719519
     -3.588589     43.718038     43.718038     87.436076
     -3.578579     40.299430     40.299430     80.598859
     -3.568569     36.193421     36.193421     72.386841
     -3.558559     31.940087     31.940087     63.880175
     -3.548549     27.936696     27.936696     55.873392
     -3.538539     24.387994     24.387994     48.775989
     -3.528529     21.304096     21.304096     42.608193
     -3.518519     18.553088     18.553088     37.106176
     -3.508509     15.959701     15.959701     31.919402
     -3.498498     13.414600     13.414600     26.829199
     -3.488488     10.946278     10.946278     21.892556
     -3.478478      8.724235      8.724235     17.448471
     -3.468468      6.997239      6.997239     13.994478
     -3.458458      5.998891      5.998891     11.997781
     -3.448448      5.858701      5.858701     11.717401
     -3.438438      6.545496      6.545496     13.090992
     -3.428428      7.856617      7.856617     15.713235
     -3.418418      9.458612      9.458612     18.917225
     -3.408408     10.977201     10.977201     21.954402
     -3.398398     12.117918     12.117918     24.235836
     -3.388388     12.777953     12.777953     25.555906
     -3.378378     13.100871     13.100871     26.201741
     -3.368368     13.443273     13.443273     26.886546
     -3.358358     14.261228     14.261228     28.522455
     -3.348348     15.960695     15.960695     31.921391
     -3.338338     18.765976     18.765976     37.531952
     -3.328328     22.639898     22.639898     45.279796
     -3.318318     27.260151     27.260151     54.520303
     -3.308308     32.043995     32.043995     64.087990
     -3.298298     36.224057     36.224057     72.448115
     -3.288288     38.988622     38.988622     77.977245
     -3.278278     39.682660     39.682660     79.365319
     -3.268268     38.020067     38.020067     76.040133
     -3.258258     34.218546     34.218546     68.437091
     -3.248248     28.978450     28.978450     57.956899
     -3.238238     23.292982     23.292982     46.585964
     -3.228228     18.159502     18.159502     36.319003
     -3.218218     14.306249     14.306249     28.612498
     -3.208208     12.031872     12.031872     24.063743
     -3.198198     11.197452     11.197452     22.394904
     -3.188188     11.352099     11.352099     22.704197
     -3.178178     11.938151     11.938151     23.876303
     -3.168168     12.510298     12.510298     25.020595
     -3.158158     12.904366     12.904366     25.808732
     -3.148148     13.303064     13.303064     26.606128
     -3.138138     14.171245     14.171245     28.342491
     -3.128128     16.072417     16.072417     32.144835
     -3.118118     19.421107     19.421107     38.842215
     -3.108108     24.256575     24.256575     48.513150
     -3.098098     30.127910     30.127910     60.255819
     -3.088088     36.151068     36.151068     72.302135
     -3.078078     41.237605     41.237605     82.475209
     -3.068068     44.421234     44.421234     88.842468
     -3.058058     45.155614     45.155614     90.311229
     -3.048048     43.458960     43.458960     86.917919
     -3.038038     39.847679     39.847679     79.695358
     -3.028028     35.102239     35.102239     70.204477
     -3.018018     29.987158     29.987158     59.974317
     -3.008008     25.056798     25.056798     50.113597
     -2.997998     20.616173     20.616173     41.232345
     -2.987988     16.814279     16.814279     33.628557
     -2.977978     13.783642     13.783642     27.567284
     -2.967968     11.735215     11.735215     23.470430
     -2.957958     10.960978     10.960978     21.921957
     -2.947948     11.750858     11.750858     23.501715
     -2.937938     14.265706     14.265706     28.531412
     -2.927928     18.418043     18.418043     36.836086
     -2.917918     23.806905     23.806905     47.613811
     -2.907908     29.740451     29.740451     59.480902
     -2.897898     35.357878     35.357878     70.715755
     -2.887888     39.828077     39.828077     79.656154
     -2.877878     42.564990     42.564990     85.129980
     -2.867868     43.379322     43.379322     86.758645
     -2.857858     42.501423     42.501423     85.002845
     -2.847848     40.460636     40.460636     80.921271
     -2.837838     37.870177     37.870177     75.740354
     -2.827828     35.210468     35.210468     70.420936
     -2.817818     32.703477     32.703477     65.406953
     -2.807808     30.324429     30.324429     60.648858
     -2.797798     27.928472     27.928472     55.856945
     -2.787788     25.414274     25.414274     50.828548
     -2.777778     22.833406     22.833406     45.666811
     -2.767768     20.390461     20.390461     40.780921
     -2.757758     18.343944     18.343944     36.687889
     -2.747748     16.875371     16.875371     33.750742
     -2.737738     16.010284     16.010284     32.020569
     -2.727728     15.639904     15.639904     31.279807
     -2.717718     15.626138     15.626138     31.252275
     -2.707708     15.916795     15.916795     31.833591
     -2.697698     16.588883     16.588883     33.177766
     -2.687688     17.784308     17.784308     35.568615
     -2.677678     19.575946     19.575946     39.151892
     -2.667668     21.854217     21.854217     43.708435
     -2.657658     24.317600     24.317600     48.635201
     -2.647648     26.585598     26.585598     53.171195
     -2.637638     28.370911     28.370911     56.741822
     -2.627628     29.605379     29.605379     59.210758
     -2.617618     30.442873     30.442873     60.885746
     -2.607608     31.143072     31.143072     62.286144
     -2.597598     31.914952     31.914952     63.829905
     -2.587588     32.814182     32.814182     65.628365
     -2.577578     33.737761     33.737761     67.475523
     -2.567568     34.487605     34.487605     68.975210
     -2.557558     34.840889     34.840889     69.681778
     -2.547548     34.589812     34.589812     69.179623
     -2.537538     33.564424     33.564424     67.128848
     -2.527528     31.676052     31.676052     63.352104
     -2.517518     28.992322     28.992322     57.984643
     -2.507508     25.804657     25.804657     51.609313
     -2.497497     22.625052     22.625052     45.250104
     -2.487487     20.077254     20.077254     40.154508
     -2.477477     18.709796     18.709796     37.419592
     -2.467467     18.810511     18.810511     37.621021
     -2.457457     20.310049     20.310049     40.620099
     -2.447447     22.822511     22.822511     45.645022
     -2.437437     25.807387     25.807387     51.614774
     -2.427427     28.780442     28.780442     57.560884
     -2.417417     31.477600     31.477600     62.955200
     -2.407407     33.896530     33.896530     67.793060
     -2.397397     36.197618     36.197618     72.395236
     -2.387387     38.514195     38.514195     77.028389
     -2.377377     40.768974     40.768974     81.537948
     -2.367367     42.595799     42.595799     85.191598
     -2.357357     43.419501     43.419501     86.839003
     -2.347347     42.671318     42.671318     85.342635
     -2.337337     40.048014     40.048014     80.096027
     -2.327327     35.695659     35.695659     71.391319
     -2.317317     30.231216     30.231216     60.462432
     -2.307307     24.591442     24.591442     49.182884
     -2.297297     19.776792     19.776792     39.553584
     -2.287287     16.595160     16.595160     33.190320
     -2.277277     15.492402     15.492402     30.984804
     -2.267267     16.504530     16.504530     33.009060
     -2.257257     19.315729     19.315729     38.631459
     -2.247247     23.379265     23.379265     46.758531
     -2.237237     28.054920     28.054920     56.109840
     -2.227227     32.725399     32.725399     65.450799
     -2.217217     36.868010     36.868010     73.736020
     -2.207207     40.076790     40.076790     80.153579
     -2.197197     42.052657     42.052657     84.105314
     -2.187187     42.594871     42.594871     85.189743
     -2.177177     41.622149     41.622149     83.244298
     -2.167167     39.222522     39.222522     78.445044
     -2.157157     35.694173     35.694173     71.388346
     -2.147147     31.524528     31.524528     63.049056
     -2.137137     27.281370     27.281370     54.562739
     -2.127127     23.446234     23.446234     46.892468
     -2.117117     20.267894     20.267894     40.535789
     -2.107107     17.714089     17.714089     35.428179
     -2.097097     15.547463     15.547463     31.094926
     -2.087087     13.481089     13.481089     26.962178
     -2.077077     11.327819     11.327819     22.655637
     -2.067067      9.071158      9.071158     18.142316
     -2.057057      6.838987      6.838987     13.677975
     -2.047047      4.815861      4.815861      9.631722
     -2.037037      3.152028      3.152028      6.304056
     -2.027027      1.912324      1.912324      3.824648
     -2.017017      1.074975      1.074975      2.149950
     -2.007007      0.563558      0.563558      1.127116
     -1.996997      0.287368      0.287368      0.574736
     -1.986987      0.173043      0.173043      0.346087
     -1.976977      0.182620      0.182620      0.365240
     -1.966967      0.321197      0.321197      0.642393
     -1.956957      0.638236      0.638236      1.276472
     -1.946947      1.222506      1.222506      2.445013
     -1.936937      2.186460      2.186460      4.372920
     -1.926927      3.635797      3.635797      7.271593
     -1.916917      5.626152      5.626152     11.252305
     -1.906907      8.118952      8.118952     16.237904
     -1.896897     10.956020     10.956020     21.912039
     -1.886887     13.870584     13.870584     27.741168
     -1.876877     16.539407     16.539407     33.078815
     -1.866867     18.663527     18.663527     37.327054
     -1.856857     20.053305     20.053305     40.106611
     -1.846847     20.691712     20.691712     41.383424
     -1.836837     20.754442     20.754442     41.508884
     -1.826827     20.572054     20.572054     41.144107
     -1.816817     20.530096     20.530096     41.060193
     -1.806807     20.924884     20.924884     41.849769
     -1.796797     21.822680     21.822680     43.645359
     -1.786787     22.989551     22.989551     45.979102
     -1.776777     23.943913     23.943913     47.887826
     -1.766767     24.128995     24.128995     48.257990
     -1.756757     23.135721     23.135721     46.271442
     -1.746747     20.872112     20.872112     41.744224
     -1.736737     17.600406     17.600406     35.200811
     -1.726727     13.833926     13.833926     27.667853
     -1.716717     10.156766     10.156766     20.313532
     -1.706707      7.057056      7.057056     14.114112
     -1.696697      4.838312      4.838312      9.676624
     -1.686687      3.617861      3.617861      7.235722
     -1.676677      3.374948      3.374948      6.749895
     -1.666667      3.998430      3.998430      7.996859
     -1.656657      5.304802      5.304802     10.609604
     -1.646647      7.032452      7.032452     14.064904
     -1.636637      8.843625      8.843625     17.687249
     -1.626627     10.365839     10.365839     20.731678
