# EIG2DOS: Utility for SIESTA to obtain the electronic density of states
#  E. Artacho, Apr 1999, A. Garcia, Apr 2012
#  Nick R. Papior, Feb 2017
# ------------------------------------------
# Eigenvalues calculated from a non-polarized calculation
# Eigenvalues read from siesta.EIG
# Kpoint weights read from siesta.KP
# Using smearing parameter:   0.0500
# Using 1000 points in the energy range
# Selected bands: 1 to: 2981
# Emin, Emax in file for selected band(s):    -27.1441624    218.3723490
# Nbands, Nspin, Nk   =   2981     1     1
# E_F                 =    -4.2253 eV --> (shifted to ZERO)
# Broadening          =     0.0500 eV
#
#        E            N(up)  (=)   N(down)         Ntot
     -5.000000     36.075400     36.075400     72.150799
     -4.989990     39.914420     39.914420     79.828841
     -4.979980     42.829543     42.829543     85.659086
     -4.969970     44.364472     44.364472     88.728943
     -4.959960     44.284850     44.284850     88.569699
     -4.949950     42.654158     42.654158     85.308316
     -4.939940     39.826773     39.826773     79.653546
     -4.929930     36.379513     36.379513     72.759026
     -4.919920     33.020781     33.020781     66.041561
     -4.909910     30.501351     30.501351     61.002703
     -4.899900     29.518950     29.518950     59.037900
     -4.889890     30.591184     30.591184     61.182369
     -4.879880     33.892101     33.892101     67.784202
     -4.869870     39.100091     39.100091     78.200182
     -4.859860     45.349383     45.349383     90.698766
     -4.849850     51.367093     51.367093    102.734186
     -4.839840     55.798957     55.798957    111.597913
     -4.829830     57.618590     57.618590    115.237180
     -4.819820     56.448450     56.448450    112.896901
     -4.809810     52.647544     52.647544    105.295088
     -4.799800     47.132477     47.132477     94.264954
     -4.789790     41.027672     41.027672     82.055343
     -4.779780     35.309471     35.309471     70.618942
     -4.769770     30.583470     30.583470     61.166941
     -4.759760     27.044347     27.044347     54.088695
     -4.749750     24.576245     24.576245     49.152491
     -4.739740     22.907782     22.907782     45.815563
     -4.729730     21.745069     21.745069     43.490139
     -4.719720     20.844101     20.844101     41.688203
     -4.709710     20.023430     20.023430     40.046860
     -4.699700     19.145524     19.145524     38.291047
     -4.689690     18.105540     18.105540     36.211081
     -4.679680     16.856473     16.856473     33.712945
     -4.669670     15.471746     15.471746     30.943493
     -4.659660     14.213910     14.213910     28.427821
     -4.649650     13.560477     13.560477     27.120955
     -4.639640     14.146546     14.146546     28.293093
     -4.629630     16.613768     16.613768     33.227536
     -4.619620     21.393112     21.393112     42.786224
     -4.609610     28.483382     28.483382     56.966764
     -4.599600     37.309814     37.309814     74.619628
     -4.589590     46.744640     46.744640     93.489279
     -4.579580     55.329984     55.329984    110.659969
     -4.569570     61.664210     61.664210    123.328419
     -4.559560     64.826797     64.826797    129.653594
     -4.549550     64.674297     64.674297    129.348593
     -4.539540     61.876229     61.876229    123.752457
     -4.529530     57.666123     57.666123    115.332246
     -4.519520     53.406451     53.406451    106.812902
     -4.509510     50.143205     50.143205    100.286410
     -4.499499     48.319472     48.319472     96.638943
     -4.489489     47.736555     47.736555     95.473110
     -4.479479     47.741136     47.741136     95.482272
     -4.469469     47.531593     47.531593     95.063186
     -4.459459     46.450511     46.450511     92.901022
     -4.449449     44.164893     44.164893     88.329786
     -4.439439     40.703563     40.703563     81.407126
     -4.429429     36.384987     36.384987     72.769975
     -4.419419     31.699381     31.699381     63.398763
     -4.409409     27.199119     27.199119     54.398237
     -4.399399     23.416579     23.416579     46.833159
     -4.389389     20.797080     20.797080     41.594160
     -4.379379     19.629303     19.629303     39.258606
     -4.369369     19.977718     19.977718     39.955435
     -4.359359     21.648816     21.648816     43.297632
     -4.349349     24.227828     24.227828     48.455656
     -4.339339     27.194460     27.194460     54.388920
     -4.329329     30.081788     30.081788     60.163575
     -4.319319     32.612873     32.612873     65.225746
     -4.309309     34.756295     34.756295     69.512591
     -4.299299     36.679847     36.679847     73.359695
     -4.289289     38.626127     38.626127     77.252255
     -4.279279     40.760642     40.760642     81.521285
     -4.269269     43.046742     43.046742     86.093485
     -4.259259     45.192002     45.192002     90.384004
     -4.249249     46.695279     46.695279     93.390557
     -4.239239     46.998037     46.998037     93.996074
     -4.229229     45.701730     45.701730     91.403460
     -4.219219     42.767697     42.767697     85.535393
     -4.209209     38.599973     38.599973     77.199946
     -4.199199     33.951299     33.951299     67.902597
     -4.189189     29.678231     29.678231     59.356461
     -4.179179     26.453471     26.453471     52.906943
     -4.169169     24.568891     24.568891     49.137781
     -4.159159     23.914404     23.914404     47.828808
     -4.149149     24.126610     24.126610     48.253220
     -4.139139     24.819789     24.819789     49.639578
     -4.129129     25.779646     25.779646     51.559293
     -4.119119     27.025315     27.025315     54.050630
     -4.109109     28.711586     28.711586     57.423172
     -4.099099     30.923772     30.923772     61.847545
     -4.089089     33.479504     33.479504     66.959009
     -4.079079     35.862207     35.862207     71.724413
     -4.069069     37.352444     37.352444     74.704888
     -4.059059     37.315319     37.315319     74.630638
     -4.049049     35.504000     35.504000     71.008000
     -4.039039     32.217072     32.217072     64.434145
     -4.029029     28.222842     28.222842     56.445684
     -4.019019     24.492054     24.492054     48.984108
     -4.009009     21.879316     21.879316     43.758633
     -3.998999     20.902948     20.902948     41.805896
     -3.988989     21.696878     21.696878     43.393756
     -3.978979     24.105281     24.105281     48.210561
     -3.968969     27.827836     27.827836     55.655672
     -3.958959     32.530629     32.530629     65.061257
     -3.948949     37.893456     37.893456     75.786913
     -3.938939     43.618640     43.618640     87.237280
     -3.928929     49.439916     49.439916     98.879833
     -3.918919     55.141863     55.141863    110.283725
     -3.908909     60.564589     60.564589    121.129178
     -3.898899     65.562792     65.562792    131.125584
     -3.888889     69.921372     69.921372    139.842744
     -3.878879     73.275164     73.275164    146.550327
     -3.868869     75.099471     75.099471    150.198941
     -3.858859     74.811797     74.811797    149.623594
     -3.848849     71.966543     71.966543    143.933085
     -3.838839     66.468009     66.468009    132.936017
     -3.828829     58.705611     58.705611    117.411223
     -3.818819     49.541121     49.541121     99.082243
     -3.808809     40.138022     40.138022     80.276044
     -3.798799     31.687643     31.687643     63.375285
     -3.788789     25.125213     25.125213     50.250427
     -3.778779     20.926676     20.926676     41.853351
     -3.768769     19.040902     19.040902     38.081805
     -3.758759     18.963225     18.963225     37.926450
     -3.748749     19.915947     19.915947     39.831894
     -3.738739     21.080172     21.080172     42.160343
     -3.728729     21.819498     21.819498     43.638995
     -3.718719     21.843650     21.843650     43.687301
     -3.708709     21.273952     21.273952     42.547905
     -3.698699     20.591730     20.591730     41.183459
     -3.688689     20.476268     20.476268     40.952537
     -3.678679     21.569839     21.569839     43.139679
     -3.668669     24.236710     24.236710     48.473421
     -3.658659     28.397578     28.397578     56.795155
     -3.648649     33.506176     33.506176     67.012352
     -3.638639     38.686895     38.686895     77.373790
     -3.628629     42.986797     42.986797     85.973594
     -3.618619     45.645169     45.645169     91.290339
     -3.608609     46.279277     46.279277     92.558553
     -3.598599     44.930775     44.930775     89.861550
     -3.588589     41.984474     41.984474     83.968949
     -3.578579     38.017775     38.017775     76.035549
     -3.568569     33.642986     33.642986     67.285973
     -3.558559     29.378948     29.378948     58.757897
     -3.548549     25.564003     25.564003     51.128005
     -3.538539     22.317194     22.317194     44.634389
     -3.528529     19.558393     19.558393     39.116787
     -3.518519     17.089717     17.089717     34.179435
     -3.508509     14.714858     14.714858     29.429715
     -3.498498     12.348351     12.348351     24.696701
     -3.488488     10.066955     10.066955     20.133910
     -3.478478      8.083939      8.083939     16.167877
     -3.468468      6.664469      6.664469     13.328939
     -3.458458      6.021978      6.021978     12.043955
     -3.448448      6.233507      6.233507     12.467013
     -3.438438      7.197639      7.197639     14.395277
     -3.428428      8.645798      8.645798     17.291596
     -3.418418     10.209074     10.209074     20.418148
     -3.408408     11.530430     11.530430     23.060859
     -3.398398     12.392450     12.392450     24.784900
     -3.388388     12.813456     12.813456     25.626913
     -3.378378     13.066820     13.066820     26.133640
     -3.368368     13.606234     13.606234     27.212469
     -3.358358     14.920225     14.920225     29.840450
     -3.348348     17.367467     17.367467     34.734934
     -3.338338     21.044914     21.044914     42.089828
     -3.328328     25.719636     25.719636     51.439272
     -3.318318     30.833697     30.833697     61.667394
     -3.308308     35.583613     35.583613     71.167226
     -3.298298     39.074808     39.074808     78.149616
     -3.288288     40.537124     40.537124     81.074249
     -3.278278     39.552761     39.552761     79.105523
     -3.268268     36.214648     36.214648     72.429297
     -3.258258     31.136770     31.136770     62.273540
     -3.248248     25.292554     25.292554     50.585108
     -3.238238     19.735876     19.735876     39.471751
     -3.228228     15.311828     15.311828     30.623656
     -3.218218     12.460217     12.460217     24.920433
     -3.208208     11.164465     11.164465     22.328931
     -3.198198     11.039326     11.039326     22.078651
     -3.188188     11.511945     11.511945     23.023889
     -3.178178     12.036935     12.036935     24.073870
     -3.168168     12.286601     12.286601     24.573203
     -3.158158     12.265509     12.265509     24.531018
     -3.148148     12.315797     12.315797     24.631593
     -3.138138     13.007468     13.007468     26.014937
     -3.128128     14.940118     14.940118     29.880236
     -3.118118     18.509444     18.509444     37.018887
     -3.108108     23.707536     23.707536     47.415072
     -3.098098     30.027615     30.027615     60.055230
     -3.088088     36.525800     36.525800     73.051600
     -3.078078     42.047152     42.047152     84.094305
     -3.068068     45.555447     45.555447     91.110893
     -3.058058     46.445403     46.445403     92.890805
     -3.048048     44.705411     44.705411     89.410822
     -3.038038     40.860736     40.860736     81.721471
     -3.028028     35.735607     35.735607     71.471213
     -3.018018     30.161990     30.161990     60.323980
     -3.008008     24.775191     24.775191     49.550382
     -2.997998     19.967360     19.967360     39.934719
     -2.987988     15.971335     15.971335     31.942669
     -2.977978     12.984396     12.984396     25.968792
     -2.967968     11.244071     11.244071     22.488142
     -2.957958     11.016552     11.016552     22.033104
     -2.947948     12.511203     12.511203     25.022405
     -2.937938     15.764686     15.764686     31.529373
     -2.927928     20.544301     20.544301     41.088602
     -2.917918     26.313368     26.313368     52.626736
     -2.907908     32.287166     32.287166     64.574332
     -2.897898     37.582746     37.582746     75.165491
     -2.887888     41.429567     41.429567     82.859135
     -2.877878     43.372835     43.372835     86.745670
     -2.867868     43.388960     43.388960     86.777921
     -2.857858     41.858188     41.858188     83.716375
     -2.847848     39.397987     39.397987     78.795973
     -2.837838     36.625530     36.625530     73.251060
     -2.827828     33.953203     33.953203     67.906407
     -2.817818     31.505114     31.505114     63.010228
     -2.807808     29.180549     29.180549     58.361098
     -2.797798     26.815054     26.815054     53.630108
     -2.787788     24.342973     24.342973     48.685945
     -2.777778     21.872907     21.872907     43.745815
     -2.767768     19.644143     19.644143     39.288286
     -2.757758     17.903752     17.903752     35.807504
     -2.747748     16.788256     16.788256     33.576512
     -2.737738     16.284287     16.284287     32.568574
     -2.727728     16.286122     16.286122     32.572243
     -2.717718     16.700782     16.700782     33.401564
     -2.707708     17.518588     17.518588     35.037175
     -2.697698     18.792617     18.792617     37.585235
     -2.687688     20.539032     20.539032     41.078064
     -2.677678     22.634129     22.634129     45.268257
     -2.667668     24.795320     24.795320     49.590640
     -2.657658     26.679174     26.679174     53.358348
     -2.647648     28.045553     28.045553     56.091106
     -2.637638     28.883503     28.883503     57.767005
     -2.627628     29.413467     29.413467     58.826935
     -2.617618     29.960413     29.960413     59.920827
     -2.607608     30.775905     30.775905     61.551810
     -2.597598     31.913566     31.913566     63.827133
     -2.587588     33.216168     33.216168     66.432337
     -2.577578     34.394611     34.394611     68.789221
     -2.567568     35.131094     35.131094     70.262188
     -2.557558     35.151641     35.151641     70.303282
     -2.547548     34.263604     34.263604     68.527209
     -2.537538     32.389858     32.389858     64.779715
     -2.527528     29.620931     29.620931     59.241861
     -2.517518     26.264332     26.264332     52.528664
     -2.507508     22.840685     22.840685     45.681370
     -2.497497     19.990200     19.990200     39.980400
     -2.487487     18.302730     18.302730     36.605459
     -2.477477     18.134357     18.134357     36.268714
     -2.467467     19.490143     19.490143     38.980286
     -2.457457     22.027861     22.027861     44.055723
     -2.447447     25.186187     25.186187     50.372373
     -2.437437     28.387557     28.387557     56.775114
     -2.427427     31.232911     31.232911     62.465821
     -2.417417     33.606250     33.606250     67.212500
     -2.407407     35.642741     35.642741     71.285481
     -2.397397     37.572442     37.572442     75.144884
     -2.387387     39.510053     39.510053     79.020105
     -2.377377     41.293521     41.293521     82.587042
     -2.367367     42.462072     42.462072     84.924144
     -2.357357     42.404556     42.404556     84.809111
     -2.347347     40.623973     40.623973     81.247947
     -2.337337     36.996957     36.996957     73.993914
     -2.327327     31.900715     31.900715     63.801430
     -2.317317     26.144600     26.144600     52.289201
     -2.307307     20.742102     20.742102     41.484204
     -2.297297     16.630844     16.630844     33.261689
     -2.287287     14.453440     14.453440     28.906880
     -2.277277     14.459789     14.459789     28.919578
     -2.267267     16.525496     16.525496     33.050992
     -2.257257     20.241473     20.241473     40.482947
     -2.247247     25.026429     25.026429     50.052859
     -2.237237     30.230844     30.230844     60.461688
     -2.227227     35.218747     35.218747     70.437493
     -2.217217     39.424702     39.424702     78.849404
     -2.207207     42.390903     42.390903     84.781806
     -2.197197     43.795733     43.795733     87.591465
     -2.187187     43.486301     43.486301     86.972603
     -2.177177     41.516692     41.516692     83.033385
     -2.167167     38.172757     38.172757     76.345514
     -2.157157     33.948744     33.948744     67.897487
     -2.147147     29.450378     29.450378     58.900755
     -2.137137     25.237618     25.237618     50.475237
     -2.127127     21.666189     21.666189     43.332377
     -2.117117     18.804228     18.804228     37.608457
     -2.107107     16.468846     16.468846     32.937693
     -2.097097     14.362982     14.362982     28.725965
     -2.087087     12.238571     12.238571     24.477141
     -2.077077     10.003980     10.003980     20.007960
     -2.067067      7.734354      7.734354     15.468707
     -2.057057      5.601532      5.601532     11.203064
     -2.047047      3.777419      3.777419      7.554838
     -2.037037      2.363427      2.363427      4.726853
     -2.027027      1.369816      1.369816      2.739632
     -2.017017      0.737060      0.737060      1.474120
     -2.007007      0.375374      0.375374      0.750747
     -1.996997      0.200948      0.200948      0.401896
     -1.986987      0.159198      0.159198      0.318397
     -1.976977      0.235845      0.235845      0.471690
     -1.966967      0.460439      0.460439      0.920878
     -1.956957      0.904527      0.904527      1.809053
     -1.946947      1.672090      1.672090      3.344179
     -1.936937      2.877887      2.877887      5.755774
     -1.926927      4.613049      4.613049      9.226097
     -1.916917      6.906046      6.906046     13.812093
     -1.906907      9.695435      9.695435     19.390870
     -1.896897     12.830558     12.830558     25.661115
     -1.886887     16.103896     16.103896     32.207792
     -1.876877     19.300111     19.300111     38.600223
     -1.866867     22.235880     22.235880     44.471760
     -1.856857     24.771832     24.771832     49.543663
     -1.846847     26.798938     26.798938     53.597875
     -1.836837     28.219536     28.219536     56.439072
     -1.826827     28.942892     28.942892     57.885784
     -1.816817     28.898760     28.898760     57.797520
     -1.806807     28.056506     28.056506     56.113012
     -1.796797     26.436346     26.436346     52.872692
     -1.786787     24.110996     24.110996     48.221992
     -1.776777     21.205419     21.205419     42.410839
     -1.766767     17.898716     17.898716     35.797431
     -1.756757     14.420817     14.420817     28.841635
     -1.746747     11.032085     11.032085     22.064170
     -1.736737      7.983752      7.983752     15.967503
     -1.726727      5.473542      5.473542     10.947084
     -1.716717      3.618444      3.618444      7.236887
     -1.706707      2.457815      2.457815      4.915630
     -1.696697      1.980901      1.980901      3.961801
     -1.686687      2.157187      2.157187      4.314374
     -1.676677      2.946329      2.946329      5.892659
     -1.666667      4.277851      4.277851      8.555701
     -1.656657      6.012210      6.012210     12.024420
     -1.646647      7.912501      7.912501     15.825003
     -1.636637      9.658441      9.658441     19.316882
     -1.626627     10.916518     10.916518     21.833036
