# EIG2DOS: Utility for SIESTA to obtain the electronic density of states
#  E. Artacho, Apr 1999, A. Garcia, Apr 2012
#  Nick R. Papior, Feb 2017
# ------------------------------------------
# Eigenvalues calculated from a non-polarized calculation
# Eigenvalues read from siesta.EIG
# Kpoint weights read from siesta.KP
# Using smearing parameter:   0.0500
# Using 1000 points in the energy range
# Selected bands: 1 to: 2981
# Emin, Emax in file for selected band(s):    -27.3652547    218.4051650
# Nbands, Nspin, Nk   =   2981     1     1
# E_F                 =    -4.1891 eV --> (shifted to ZERO)
# Broadening          =     0.0500 eV
#
#        E            N(up)  (=)   N(down)         Ntot
     -5.000000     30.886528     30.886528     61.773056
     -4.989990     36.237430     36.237430     72.474861
     -4.979980     41.428965     41.428965     82.857929
     -4.969970     45.550890     45.550890     91.101781
     -4.959960     47.804967     47.804967     95.609935
     -4.949950     47.771748     47.771748     95.543496
     -4.939940     45.555665     45.555665     91.111330
     -4.929930     41.763005     41.763005     83.526010
     -4.919920     37.344567     37.344567     74.689135
     -4.909910     33.376975     33.376975     66.753950
     -4.899900     30.846333     30.846333     61.692665
     -4.889890     30.460890     30.460890     60.921780
     -4.879880     32.498328     32.498328     64.996655
     -4.869870     36.707540     36.707540     73.415080
     -4.859860     42.312003     42.312003     84.624007
     -4.849850     48.160191     48.160191     96.320383
     -4.839840     53.017802     53.017802    106.035604
     -4.829830     55.920074     55.920074    111.840148
     -4.819820     56.451336     56.451336    112.902671
     -4.809810     54.833295     54.833295    109.666589
     -4.799800     51.783063     51.783063    103.566127
     -4.789790     48.205418     48.205418     96.410836
     -4.779780     44.855917     44.855917     89.711834
     -4.769770     42.115413     42.115413     84.230825
     -4.759760     39.953437     39.953437     79.906875
     -4.749750     38.064108     38.064108     76.128216
     -4.739740     36.082660     36.082660     72.165320
     -4.729730     33.768951     33.768951     67.537903
     -4.719720     31.080998     31.080998     62.161997
     -4.709710     28.131680     28.131680     56.263359
     -4.699700     25.085138     25.085138     50.170276
     -4.689690     22.072895     22.072895     44.145789
     -4.679680     19.184194     19.184194     38.368389
     -4.669670     16.530249     16.530249     33.060499
     -4.659660     14.333018     14.333018     28.666036
     -4.649650     12.973182     12.973182     25.946363
     -4.639640     12.952154     12.952154     25.904307
     -4.629630     14.762075     14.762075     29.524151
     -4.619620     18.696502     18.696502     37.393004
     -4.609610     24.663743     24.663743     49.327486
     -4.599600     32.080691     32.080691     64.161382
     -4.589590     39.917710     39.917710     79.835420
     -4.579580     46.921883     46.921883     93.843767
     -4.569570     51.969838     51.969838    103.939677
     -4.559560     54.425349     54.425349    108.850699
     -4.549550     54.349691     54.349691    108.699381
     -4.539540     52.462522     52.462522    104.925044
     -4.529530     49.859348     49.859348     99.718695
     -4.519520     47.601478     47.601478     95.202957
     -4.509510     46.348004     46.348004     92.696008
     -4.499499     46.172612     46.172612     92.345224
     -4.489489     46.620087     46.620087     93.240174
     -4.479479     46.953786     46.953786     93.907571
     -4.469469     46.473325     46.473325     92.946651
     -4.459459     44.768937     44.768937     89.537873
     -4.449449     41.824737     41.824737     83.649474
     -4.439439     37.961191     37.961191     75.922382
     -4.429429     33.678139     33.678139     67.356277
     -4.419419     29.490402     29.490402     58.980803
     -4.409409     25.826510     25.826510     51.653020
     -4.399399     23.005025     23.005025     46.010051
     -4.389389     21.250163     21.250163     42.500326
     -4.379379     20.693783     20.693783     41.387566
     -4.369369     21.341378     21.341378     42.682756
     -4.359359     23.028375     23.028375     46.056750
     -4.349349     25.419290     25.419290     50.838581
     -4.339339     28.083741     28.083741     56.167482
     -4.329329     30.633250     30.633250     61.266500
     -4.319319     32.857812     32.857812     65.715624
     -4.309309     34.791913     34.791913     69.583826
     -4.299299     36.670159     36.670159     73.340318
     -4.289289     38.782745     38.782745     77.565491
     -4.279279     41.285738     41.285738     82.571477
     -4.269269     44.044852     44.044852     88.089703
     -4.259259     46.588148     46.588148     93.176296
     -4.249249     48.210259     48.210259     96.420519
     -4.239239     48.211140     48.211140     96.422280
     -4.229229     46.184434     46.184434     92.368869
     -4.219219     42.229626     42.229626     84.459253
     -4.209209     36.980963     36.980963     73.961927
     -4.199199     31.426057     31.426057     62.852113
     -4.189189     26.588122     26.588122     53.176244
     -4.179179     23.210282     23.210282     46.420564
     -4.169169     21.572652     21.572652     43.145305
     -4.159159     21.502368     21.502368     43.004737
     -4.149149     22.546264     22.546264     45.092527
     -4.139139     24.210877     24.210877     48.421754
     -4.129129     26.157826     26.157826     52.315652
     -4.119119     28.272570     28.272570     56.545140
     -4.109109     30.585258     30.585258     61.170516
     -4.099099     33.092696     33.092696     66.185392
     -4.089089     35.584294     35.584294     71.168589
     -4.079079     37.583803     37.583803     75.167607
     -4.069069     38.466416     38.466416     76.932831
     -4.059059     37.714499     37.714499     75.428997
     -4.049049     35.187557     35.187557     70.375113
     -4.039039     31.261450     31.261450     62.522900
     -4.029029     26.757590     26.757590     53.515180
     -4.019019     22.694942     22.694942     45.389884
     -4.009009     19.984937     19.984937     39.969874
     -3.998999     19.201694     19.201694     38.403389
     -3.988989     20.501225     20.501225     41.002450
     -3.978979     23.680603     23.680603     47.361207
     -3.968969     28.312686     28.312686     56.625372
     -3.958959     33.886191     33.886191     67.772383
     -3.948949     39.911590     39.911590     79.823180
     -3.938939     45.988111     45.988111     91.976223
     -3.928929     51.840507     51.840507    103.681015
     -3.918919     57.324287     57.324287    114.648573
     -3.908909     62.385771     62.385771    124.771542
     -3.898899     66.971756     66.971756    133.943513
     -3.888889     70.915387     70.915387    141.830774
     -3.878879     73.856907     73.856907    147.713815
     -3.868869     75.259973     75.259973    150.519947
     -3.858859     74.545385     74.545385    149.090769
     -3.848849     71.303458     71.303458    142.606915
     -3.838839     65.499508     65.499508    130.999016
     -3.828829     57.581455     57.581455    115.162910
     -3.818819     48.436950     48.436950     96.873901
     -3.808809     39.208411     39.208411     78.416821
     -3.798799     31.027809     31.027809     62.055619
     -3.788789     24.757115     24.757115     49.514229
     -3.778779     20.810316     20.810316     41.620632
     -3.768769     19.099831     19.099831     38.199662
     -3.758759     19.110585     19.110585     38.221170
     -3.748749     20.072691     20.072691     40.145382
     -3.738739     21.184260     21.184260     42.368519
     -3.728729     21.829304     21.829304     43.658608
     -3.718719     21.739319     21.739319     43.478638
     -3.708709     21.058760     21.058760     42.117520
     -3.698699     20.293446     20.293446     40.586891
     -3.688689     20.146742     20.146742     40.293484
     -3.678679     21.279792     21.279792     42.559584
     -3.668669     24.062796     24.062796     48.125592
     -3.658659     28.401470     28.401470     56.802939
     -3.648649     33.710755     33.710755     67.421510
     -3.638639     39.059744     39.059744     78.119489
     -3.628629     43.441662     43.441662     86.883324
     -3.618619     46.065315     46.065315     92.130630
     -3.608609     46.555437     46.555437     93.110874
     -3.598599     44.997595     44.997595     89.995190
     -3.588589     41.839224     41.839224     83.678448
     -3.578579     37.714279     37.714279     75.428559
     -3.568569     33.266522     33.266522     66.533044
     -3.558559     29.016540     29.016540     58.033080
     -3.548549     25.284952     25.284952     50.569905
     -3.538539     22.172116     22.172116     44.344233
     -3.528529     19.596680     19.596680     39.193360
     -3.518519     17.389362     17.389362     34.778725
     -3.508509     15.415439     15.415439     30.830878
     -3.498498     13.675491     13.675491     27.350982
     -3.488488     12.333618     12.333618     24.667235
     -3.478478     11.653597     11.653597     23.307194
     -3.468468     11.869358     11.869358     23.738717
     -3.458458     13.049013     13.049013     26.098026
     -3.448448     15.014476     15.014476     30.028951
     -3.438438     17.353572     17.353572     34.707144
     -3.428428     19.523699     19.523699     39.047399
     -3.418418     21.012023     21.012023     42.024045
     -3.408408     21.497752     21.497752     42.995504
     -3.398398     20.961637     20.961637     41.923274
     -3.388388     19.705589     19.705589     39.411178
     -3.378378     18.275765     18.275765     36.551531
     -3.368368     17.315306     17.315306     34.630611
     -3.358358     17.395068     17.395068     34.790136
     -3.348348     18.871871     18.871871     37.743742
     -3.338338     21.804185     21.804185     43.608369
     -3.328328     25.928994     25.928994     51.857987
     -3.318318     30.690265     30.690265     61.380530
     -3.308308     35.316519     35.316519     70.633038
     -3.298298     38.957169     38.957169     77.914338
     -3.288288     40.877534     40.877534     81.755068
     -3.278278     40.671500     40.671500     81.342999
     -3.268268     38.406125     38.406125     76.812251
     -3.258258     34.611116     34.611116     69.222233
     -3.248248     30.090265     30.090265     60.180530
     -3.238238     25.629608     25.629608     51.259216
     -3.228228     21.740594     21.740594     43.481188
     -3.218218     18.557596     18.557596     37.115192
     -3.208208     15.919093     15.919093     31.838186
     -3.198198     13.562662     13.562662     27.125323
     -3.188188     11.318481     11.318481     22.636962
     -3.178178      9.213156      9.213156     18.426313
     -3.168168      7.463524      7.463524     14.927048
     -3.158158      6.397514      6.397514     12.795028
     -3.148148      6.354556      6.354556     12.709112
     -3.138138      7.596809      7.596809     15.193618
     -3.128128     10.234656     10.234656     20.469312
     -3.118118     14.162385     14.162385     28.324771
     -3.108108     19.016247     19.016247     38.032494
     -3.098098     24.186932     24.186932     48.373863
     -3.088088     28.915914     28.915914     57.831828
     -3.078078     32.470327     32.470327     64.940653
     -3.068068     34.341422     34.341422     68.682845
     -3.058058     34.381992     34.381992     68.763984
     -3.048048     32.815775     32.815775     65.631550
     -3.038038     30.114004     30.114004     60.228008
     -3.028028     26.804729     26.804729     53.609457
     -3.018018     23.313700     23.313700     46.627400
     -3.008008     19.909193     19.909193     39.818387
     -2.997998     16.755991     16.755991     33.511983
     -2.987988     14.021405     14.021405     28.042810
     -2.977978     11.956386     11.956386     23.912772
     -2.967968     10.901441     10.901441     21.802881
     -2.957958     11.213861     11.213861     22.427722
     -2.947948     13.148960     13.148960     26.297919
     -2.937938     16.740911     16.740911     33.481821
     -2.927928     21.724946     21.724946     43.449891
     -2.917918     27.532292     27.532292     55.064584
     -2.907908     33.374094     33.374094     66.748189
     -2.897898     38.406322     38.406322     76.812643
     -2.887888     41.935421     41.935421     83.870842
     -2.877878     43.597223     43.597223     87.194446
     -2.867868     43.438170     43.438170     86.876341
     -2.857858     41.859149     41.859149     83.718299
     -2.847848     39.439604     39.439604     78.879207
     -2.837838     36.716245     36.716245     73.432490
     -2.827828     34.014551     34.014551     68.029103
     -2.817818     31.405334     31.405334     62.810668
     -2.807808     28.793720     28.793720     57.587440
     -2.797798     26.079065     26.079065     52.158131
     -2.787788     23.290590     23.290590     46.581179
     -2.777778     20.624051     20.624051     41.248101
     -2.767768     18.366682     18.366682     36.733365
     -2.757758     16.763970     16.763970     33.527940
     -2.747748     15.913450     15.913450     31.826900
     -2.737738     15.749193     15.749193     31.498385
     -2.727728     16.119426     16.119426     32.238852
     -2.717718     16.897536     16.897536     33.795073
     -2.707708     18.044799     18.044799     36.089597
     -2.697698     19.578556     19.578556     39.157111
     -2.687688     21.470572     21.470572     42.941143
     -2.677678     23.557384     23.557384     47.114768
     -2.667668     25.543772     25.543772     51.087544
     -2.657658     27.117450     27.117450     54.234901
     -2.647648     28.110400     28.110400     56.220800
     -2.637638     28.600878     28.600878     57.201756
     -2.627628     28.883314     28.883314     57.766627
     -2.617618     29.318715     29.318715     58.637429
     -2.607608     30.153867     30.153867     60.307734
     -2.597598     31.409751     31.409751     62.819502
     -2.587588     32.884677     32.884677     65.769355
     -2.577578     34.242844     34.242844     68.485687
     -2.567568     35.121209     35.121209     70.242419
     -2.557558     35.206881     35.206881     70.413762
     -2.547548     34.284593     34.284593     68.569187
     -2.537538     32.281516     32.281516     64.563032
     -2.527528     29.321846     29.321846     58.643692
     -2.517518     25.766037     25.766037     51.532074
     -2.507508     22.189092     22.189092     44.378185
     -2.497497     19.271674     19.271674     38.543347
     -2.487487     17.624600     17.624600     35.249199
     -2.477477     17.608871     17.608871     35.217741
     -2.467467     19.224010     19.224010     38.448021
     -2.457457     22.113443     22.113443     44.226886
     -2.447447     25.690056     25.690056     51.380112
     -2.437437     29.336719     29.336719     58.673438
     -2.427427     32.603178     32.603178     65.206356
     -2.417417     35.316956     35.316956     70.633913
     -2.407407     37.558181     37.558181     75.116361
     -2.397397     39.508263     39.508263     79.016526
     -2.387387     41.245647     41.245647     82.491294
     -2.377377     42.596367     42.596367     85.192735
     -2.367367     43.129423     43.129423     86.258846
     -2.357357     42.317703     42.317703     84.635407
     -2.347347     39.796003     39.796003     79.592006
     -2.337337     35.588815     35.588815     71.177631
     -2.327327     30.190836     30.190836     60.381672
     -2.317317     24.459611     24.459611     48.919223
     -2.307307     19.375429     19.375429     38.750858
     -2.297297     15.779770     15.779770     31.559540
     -2.287287     14.192879     14.192879     28.385757
     -2.277277     14.752959     14.752959     29.505917
     -2.267267     17.258664     17.258664     34.517327
     -2.257257     21.265923     21.265923     42.531846
     -2.247247     26.193269     26.193269     52.386538
     -2.237237     31.409847     31.409847     62.819695
     -2.227227     36.299765     36.299765     72.599529
     -2.217217     40.308232     40.308232     80.616464
     -2.207207     42.980104     42.980104     85.960208
     -2.197197     44.001484     44.001484     88.002968
     -2.187187     43.248643     43.248643     86.497286
     -2.177177     40.834216     40.834216     81.668432
     -2.167167     37.123876     37.123876     74.247752
     -2.157157     32.691318     32.691318     65.382636
     -2.147147     28.198781     28.198781     56.397563
     -2.137137     24.231380     24.231380     48.462760
     -2.127127     21.150887     21.150887     42.301774
     -2.117117     19.036554     19.036554     38.073108
     -2.107107     17.736978     17.736978     35.473955
     -2.097097     16.993768     16.993768     33.987535
     -2.087087     16.559935     16.559935     33.119870
     -2.077077     16.251671     16.251671     32.503342
     -2.067067     15.928501     15.928501     31.857002
     -2.057057     15.449339     15.449339     30.898678
     -2.047047     14.661271     14.661271     29.322542
     -2.037037     13.441058     13.441058     26.882117
     -2.027027     11.760001     11.760001     23.520002
     -2.017017      9.721194      9.721194     19.442387
     -2.007007      7.538180      7.538180     15.076360
     -1.996997      5.465606      5.465606     10.931212
     -1.986987      3.722323      3.722323      7.444647
     -1.976977      2.446706      2.446706      4.893412
     -1.966967      1.698939      1.698939      3.397878
     -1.956957      1.496432      1.496432      2.992864
     -1.946947      1.853399      1.853399      3.706799
     -1.936937      2.798396      2.798396      5.596792
     -1.926927      4.358545      4.358545      8.717089
     -1.916917      6.517772      6.517772     13.035544
     -1.906907      9.170917      9.170917     18.341835
     -1.896897     12.100146     12.100146     24.200292
     -1.886887     14.991927     14.991927     29.983854
     -1.876877     17.495185     17.495185     34.990371
     -1.866867     19.303245     19.303245     38.606490
     -1.856857     20.232696     20.232696     40.465393
     -1.846847     20.273694     20.273694     40.547388
     -1.836837     19.593988     19.593988     39.187977
     -1.826827     18.489552     18.489552     36.979104
     -1.816817     17.289272     17.289272     34.578545
     -1.806807     16.241115     16.241115     32.482230
     -1.796797     15.424480     15.424480     30.848960
     -1.786787     14.732360     14.732360     29.464719
     -1.776777     13.938261     13.938261     27.876522
     -1.766767     12.818389     12.818389     25.636778
     -1.756757     11.267766     11.267766     22.535532
     -1.746747      9.353288      9.353288     18.706576
     -1.736737      7.285188      7.285188     14.570376
     -1.726727      5.334337      5.334337     10.668674
     -1.716717      3.746090      3.746090      7.492180
     -1.706707      2.690653      2.690653      5.381306
     -1.696697      2.258059      2.258059      4.516117
     -1.686687      2.476650      2.476650      4.953299
     -1.676677      3.324993      3.324993      6.649985
     -1.666667      4.720599      4.720599      9.441198
     -1.656657      6.493844      6.493844     12.987688
     -1.646647      8.375495      8.375495     16.750990
     -1.636637     10.027589     10.027589     20.055179
     -1.626627     11.126615     11.126615     22.253231
