# EIG2DOS: Utility for SIESTA to obtain the electronic density of states
#  E. Artacho, Apr 1999, A. Garcia, Apr 2012
#  Nick R. Papior, Feb 2017
# ------------------------------------------
# Eigenvalues calculated from a non-polarized calculation
# Eigenvalues read from siesta.EIG
# Kpoint weights read from siesta.KP
# Using smearing parameter:   0.0500
# Using 1000 points in the energy range
# Selected bands: 1 to: 2981
# Emin, Emax in file for selected band(s):    -27.1928675    218.3486170
# Nbands, Nspin, Nk   =   2981     1     1
# E_F                 =    -4.2558 eV --> (shifted to ZERO)
# Broadening          =     0.0500 eV
#
#        E            N(up)  (=)   N(down)         Ntot
     -5.000000     34.162378     34.162378     68.324756
     -4.989990     38.026088     38.026088     76.052176
     -4.979980     41.436345     41.436345     82.872690
     -4.969970     43.791927     43.791927     87.583854
     -4.959960     44.655721     44.655721     89.311442
     -4.949950     43.878199     43.878199     87.756397
     -4.939940     41.642730     41.642730     83.285460
     -4.929930     38.428931     38.428931     76.857862
     -4.919920     34.923807     34.923807     69.847615
     -4.909910     31.915692     31.915692     63.831385
     -4.899900     30.183179     30.183179     60.366358
     -4.889890     30.365028     30.365028     60.730056
     -4.879880     32.798680     32.798680     65.597361
     -4.869870     37.354508     37.354508     74.709015
     -4.859860     43.343544     43.343544     86.687088
     -4.849850     49.589674     49.589674     99.179348
     -4.839840     54.702073     54.702073    109.404146
     -4.829830     57.479079     57.479079    114.958158
     -4.819820     57.284964     57.284964    114.569928
     -4.809810     54.232109     54.232109    108.464217
     -4.799800     49.089057     49.089057     98.178114
     -4.789790     42.969523     42.969523     85.939046
     -4.779780     36.955785     36.955785     73.911571
     -4.769770     31.816326     31.816326     63.632652
     -4.759760     27.900956     27.900956     55.801912
     -4.749750     25.196907     25.196907     50.393815
     -4.739740     23.467333     23.467333     46.934665
     -4.729730     22.390347     22.390347     44.780694
     -4.719720     21.651782     21.651782     43.303565
     -4.709710     20.985496     20.985496     41.970992
     -4.699700     20.181710     20.181710     40.363419
     -4.689690     19.092588     19.092588     38.185175
     -4.679680     17.657048     17.657048     35.314096
     -4.669670     15.947412     15.947412     31.894823
     -4.659660     14.217667     14.217667     28.435334
     -4.649650     12.919966     12.919966     25.839932
     -4.639640     12.660392     12.660392     25.320785
     -4.629630     14.083747     14.083747     28.167493
     -4.619620     17.700677     17.700677     35.401355
     -4.609610     23.693486     23.693486     47.386972
     -4.599600     31.758062     31.758062     63.516123
     -4.589590     41.051858     41.051858     82.103716
     -4.579580     50.305475     50.305475    100.610949
     -4.569570     58.105659     58.105659    116.211319
     -4.559560     63.281099     63.281099    126.562197
     -4.549550     65.256924     65.256924    130.513848
     -4.539540     64.232580     64.232580    128.465160
     -4.529530     61.097963     61.097963    122.195926
     -4.519520     57.110818     57.110818    114.221635
     -4.509510     53.461481     53.461481    106.922963
     -4.499499     50.897555     50.897555    101.795109
     -4.489489     49.548234     49.548234     99.096467
     -4.479479     48.994085     48.994085     97.988169
     -4.469469     48.521428     48.521428     97.042856
     -4.459459     47.433466     47.433466     94.866932
     -4.449449     45.290405     45.290405     90.580810
     -4.439439     42.008125     42.008125     84.016251
     -4.429429     37.821420     37.821420     75.642841
     -4.419419     33.171523     33.171523     66.343046
     -4.409409     28.585844     28.585844     57.171688
     -4.399399     24.587110     24.587110     49.174220
     -4.389389     21.628564     21.628564     43.257128
     -4.379379     20.032765     20.032765     40.065529
     -4.369369     19.925477     19.925477     39.850954
     -4.359359     21.186956     21.186956     42.373913
     -4.349349     23.460125     23.460125     46.920250
     -4.339339     26.239030     26.239030     52.478060
     -4.329329     29.019114     29.019114     58.038229
     -4.319319     31.452187     31.452187     62.904375
     -4.309309     33.440528     33.440528     66.881057
     -4.299299     35.131121     35.131121     70.262242
     -4.289289     36.813988     36.813988     73.627976
     -4.279279     38.763735     38.763735     77.527471
     -4.269269     41.079360     41.079360     82.158720
     -4.259259     43.578159     43.578159     87.156319
     -4.249249     45.790683     45.790683     91.581365
     -4.239239     47.080503     47.080503     94.161005
     -4.229229     46.867602     46.867602     93.735203
     -4.219219     44.877027     44.877027     89.754053
     -4.209209     41.299087     41.299087     82.598173
     -4.199199     36.769963     36.769963     73.539925
     -4.189189     32.164688     32.164688     64.329375
     -4.179179     28.293580     28.293580     56.587160
     -4.169169     25.645326     25.645326     51.290652
     -4.159159     24.291242     24.291242     48.582484
     -4.149149     23.976303     23.976303     47.952605
     -4.139139     24.329204     24.329204     48.658408
     -4.129129     25.075311     25.075311     50.150621
     -4.119119     26.147919     26.147919     52.295837
     -4.109109     27.649401     27.649401     55.298802
     -4.099099     29.687488     29.687488     59.374976
     -4.089089     32.176235     32.176235     64.352471
     -4.079079     34.719367     34.719367     69.438733
     -4.069069     36.664031     36.664031     73.328063
     -4.059059     37.327499     37.327499     74.654997
     -4.049049     36.297498     36.297498     72.594996
     -4.039039     33.651847     33.651847     67.303693
     -4.029029     29.977249     29.977249     59.954498
     -4.019019     26.175362     26.175362     52.350724
     -4.009009     23.158341     23.158341     46.316682
     -3.998999     21.583921     21.583921     43.167842
     -3.988989     21.737383     21.737383     43.474766
     -3.978979     23.571827     23.571827     47.143654
     -3.968969     26.836087     26.836087     53.672174
     -3.958959     31.199098     31.199098     62.398196
     -3.948949     36.319680     36.319680     72.639359
     -3.938939     41.869586     41.869586     83.739173
     -3.928929     47.547805     47.547805     95.095611
     -3.918919     53.108208     53.108208    106.216415
     -3.908909     58.383783     58.383783    116.767565
     -3.898899     63.269529     63.269529    126.539058
     -3.888889     67.645971     67.645971    135.291941
     -3.878879     71.273291     71.273291    142.546582
     -3.868869     73.724794     73.724794    147.449587
     -3.858859     74.425454     74.425454    148.850908
     -3.848849     72.812567     72.812567    145.625135
     -3.838839     68.567154     68.567154    137.134308
     -3.828829     61.816332     61.816332    123.632664
     -3.818819     53.207490     53.207490    106.414980
     -3.808809     43.806663     43.806663     87.613325
     -3.798799     34.849398     34.849398     69.698797
     -3.788789     27.433237     27.433237     54.866475
     -3.778779     22.258274     22.258274     44.516548
     -3.768769     19.494098     19.494098     38.988196
     -3.758759     18.799010     18.799010     37.598020
     -3.748749     19.468144     19.468144     38.936287
     -3.738739     20.657617     20.657617     41.315233
     -3.728729     21.623272     21.623272     43.246544
     -3.718719     21.917660     21.917660     43.835320
     -3.708709     21.500752     21.500752     43.001504
     -3.698699     20.736446     20.736446     41.472893
     -3.688689     20.269610     20.269610     40.539220
     -3.678679     20.808000     20.808000     41.616001
     -3.668669     22.866034     22.866034     45.732068
     -3.658659     26.551684     26.551684     53.103368
     -3.648649     31.477649     31.477649     62.955297
     -3.638639     36.841878     36.841878     73.683755
     -3.628629     41.656766     41.656766     83.313532
     -3.618619     45.040170     45.040170     90.080340
     -3.608609     46.453417     46.453417     92.906835
     -3.598599     45.801939     45.801939     91.603877
     -3.588589     43.385122     43.385122     86.770244
     -3.578579     39.747709     39.747709     79.495417
     -3.568569     35.507509     35.507509     71.015018
     -3.558559     31.212642     31.212642     62.425283
     -3.548549     27.247114     27.247114     54.494228
     -3.538539     23.786387     23.786387     47.572775
     -3.528529     20.806221     20.806221     41.612443
     -3.518519     18.147714     18.147714     36.295427
     -3.508509     15.624122     15.624122     31.248245
     -3.498498     13.130476     13.130476     26.260953
     -3.488488     10.708897     10.708897     21.417794
     -3.478478      8.542663      8.542663     17.085326
     -3.468468      6.887430      6.887430     13.774861
     -3.458458      5.974039      5.974039     11.948078
     -3.448448      5.920759      5.920759     11.841518
     -3.438438      6.680419      6.680419     13.360837
     -3.428428      8.034867      8.034867     16.069735
     -3.418418      9.641706      9.641706     19.283413
     -3.408408     11.129516     11.129516     22.259033
     -3.398398     12.220486     12.220486     24.440972
     -3.388388     12.838930     12.838930     25.677861
     -3.378378     13.157782     13.157782     26.315563
     -3.368368     13.555348     13.555348     27.110696
     -3.358358     14.494334     14.494334     28.988667
     -3.348348     16.369543     16.369543     32.739086
     -3.338338     19.377433     19.377433     38.754867
     -3.328328     23.439230     23.439230     46.878460
     -3.318318     28.182033     28.182033     56.364065
     -3.308308     32.973094     32.973094     65.946188
     -3.298298     37.012415     37.012415     74.024830
     -3.288288     39.493759     39.493759     78.987519
     -3.278278     39.819819     39.819819     79.639637
     -3.268268     37.809631     37.809631     75.619263
     -3.258258     33.804634     33.804634     67.609269
     -3.248248     28.602452     28.602452     57.204904
     -3.238238     23.223420     23.223420     46.446841
     -3.228228     18.598383     18.598383     37.196765
     -3.218218     15.304035     15.304035     30.608070
     -3.208208     13.444650     13.444650     26.889300
     -3.198198     12.709719     12.709719     25.419437
     -3.188188     12.567038     12.567038     25.134076
     -3.178178     12.508987     12.508987     25.017974
     -3.168168     12.263401     12.263401     24.526802
     -3.158158     11.902514     11.902514     23.805028
     -3.148148     11.821608     11.821608     23.643215
     -3.138138     12.599503     12.599503     25.199006
     -3.128128     14.784488     14.784488     29.568975
     -3.118118     18.667160     18.667160     37.334320
     -3.108108     24.108096     24.108096     48.216193
     -3.098098     30.483578     30.483578     60.967156
     -3.088088     36.789489     36.789489     73.578978
     -3.078078     41.894285     41.894285     83.788570
     -3.068068     44.866098     44.866098     89.732197
     -3.058058     45.249763     45.249763     90.499525
     -3.048048     43.175570     43.175570     86.351140
     -3.038038     39.254020     39.254020     78.508040
     -3.028028     34.315140     34.315140     68.630280
     -3.018018     29.124992     29.124992     58.249984
     -3.008008     24.209607     24.209607     48.419214
     -2.997998     19.842433     19.842433     39.684865
     -2.987988     16.156691     16.156691     32.313383
     -2.977978     13.287578     13.287578     26.575155
     -2.967968     11.455876     11.455876     22.911752
     -2.957958     10.954840     10.954840     21.909679
     -2.947948     12.056167     12.056167     24.112333
     -2.937938     14.881367     14.881367     29.762734
     -2.927928     19.290061     19.290061     38.580122
     -2.917918     24.828791     24.828791     49.657583
     -2.907908     30.769808     30.769808     61.539616
     -2.897898     36.246242     36.246242     72.492484
     -2.887888     40.455878     40.455878     80.911756
     -2.877878     42.870323     42.870323     85.740646
     -2.867868     43.370120     43.370120     86.740240
     -2.857858     42.245897     42.245897     84.491794
     -2.847848     40.058920     40.058920     80.117841
     -2.837838     37.417728     37.417728     74.835456
     -2.827828     34.767713     34.767713     69.535426
     -2.817818     32.284032     32.284032     64.568064
     -2.807808     29.906004     29.906004     59.812008
     -2.797798     27.479680     27.479680     54.959361
     -2.787788     24.922652     24.922652     49.845304
     -2.777778     22.319863     22.319863     44.639726
     -2.767768     19.903796     19.903796     39.807591
     -2.757758     17.941183     17.941183     35.882366
     -2.747748     16.601930     16.601930     33.203860
     -2.737738     15.892863     15.892863     31.785727
     -2.727728     15.694967     15.694967     31.389933
     -2.717718     15.874424     15.874424     31.748848
     -2.707708     16.388179     16.388179     32.776358
     -2.697698     17.307307     17.307307     34.614614
     -2.687688     18.737196     18.737196     37.474392
     -2.677678     20.687128     20.687128     41.374256
     -2.667668     22.983021     22.983021     45.966041
     -2.657658     25.294370     25.294370     50.588739
     -2.647648     27.271426     27.271426     54.542852
     -2.637638     28.711536     28.711536     57.423071
     -2.627628     29.649500     29.649500     59.299000
     -2.617618     30.315088     30.315088     60.630175
     -2.607608     30.987864     30.987864     61.975728
     -2.597598     31.842220     31.842220     63.684441
     -2.587588     32.869785     32.869785     65.739570
     -2.577578     33.902497     33.902497     67.804994
     -2.567568     34.692299     34.692299     69.384599
     -2.557558     34.984912     34.984912     69.969825
     -2.547548     34.560959     34.560959     69.121919
     -2.537538     33.265629     33.265629     66.531258
     -2.527528     31.059719     31.059719     62.119438
     -2.517518     28.090767     28.090767     56.181533
     -2.507508     24.738419     24.738419     49.476838
     -2.497497     21.578186     21.578186     43.156373
     -2.487487     19.245991     19.245991     38.491982
     -2.477477     18.245751     18.245751     36.491502
     -2.467467     18.782065     18.782065     37.564129
     -2.457457     20.695404     20.695404     41.390808
     -2.447447     23.532580     23.532580     47.065160
     -2.437437     26.724669     26.724669     53.449338
     -2.427427     29.795932     29.795932     59.591865
     -2.417417     32.511683     32.511683     65.023366
     -2.407407     34.898571     34.898571     69.797142
     -2.397397     37.128470     37.128470     74.256939
     -2.387387     39.322558     39.322558     78.645116
     -2.377377     41.374927     41.374927     82.749853
     -2.367367     42.892592     42.892592     85.785183
     -2.357357     43.298023     43.298023     86.596047
     -2.347347     42.061173     42.061173     84.122346
     -2.337337     38.958490     38.958490     77.916981
     -2.327327     34.235575     34.235575     68.471151
     -2.317317     28.593829     28.593829     57.187657
     -2.307307     23.007340     23.007340     46.014680
     -2.297297     18.454144     18.454144     36.908288
     -2.287287     15.672410     15.672410     31.344819
     -2.277277     15.020385     15.020385     30.040769
     -2.267267     16.459236     16.459236     32.918472
     -2.257257     19.629127     19.629127     39.258253
     -2.247247     23.970253     23.970253     47.940507
     -2.237237     28.846266     28.846266     57.692531
     -2.227227     33.642289     33.642289     67.284577
     -2.217217     37.824829     37.824829     75.649658
     -2.207207     40.965933     40.965933     81.931867
     -2.197197     42.748759     42.748759     85.497518
     -2.187187     42.979282     42.979282     85.958565
     -2.177177     41.619735     41.619735     83.239470
     -2.167167     38.832995     38.832995     77.665990
     -2.157157     34.999588     34.999588     69.999176
     -2.147147     30.664923     30.664923     61.329845
     -2.137137     26.406878     26.406878     52.813755
     -2.127127     22.667142     22.667142     45.334284
     -2.117117     19.625778     19.625778     39.251555
     -2.107107     17.185775     17.185775     34.371550
     -2.097097     15.075883     15.075883     30.151766
     -2.087087     13.013944     13.013944     26.027888
     -2.077077     10.843930     10.843930     21.687860
     -2.067067      8.584607      8.584607     17.169214
     -2.057057      6.384794      6.384794     12.769589
     -2.047047      4.429374      4.429374      8.858749
     -2.037037      2.853782      2.853782      5.707564
     -2.027027      1.703625      1.703625      3.407249
     -2.017017      0.942454      0.942454      1.884909
     -2.007007      0.487467      0.487467      0.974934
     -1.996997      0.248940      0.248940      0.497880
     -1.986987      0.158833      0.158833      0.317666
     -1.976977      0.186036      0.186036      0.372072
     -1.966967      0.342389      0.342389      0.684779
     -1.956957      0.683205      0.683205      1.366410
     -1.946947      1.301528      1.301528      2.603055
     -1.936937      2.311440      2.311440      4.622879
     -1.926927      3.816414      3.816414      7.632828
     -1.916917      5.865661      5.865661     11.731321
     -1.906907      8.411772      8.411772     16.823543
     -1.896897     11.289948     11.289948     22.579896
     -1.886887     14.235890     14.235890     28.471780
     -1.876877     16.945027     16.945027     33.890053
     -1.866867     19.157189     19.157189     38.314377
     -1.856857     20.737972     20.737972     41.475943
     -1.846847     21.726155     21.726155     43.452310
     -1.836837     22.324089     22.324089     44.648178
     -1.826827     22.822504     22.822504     45.645009
     -1.816817     23.473581     23.473581     46.947161
     -1.806807     24.354833     24.354833     48.709665
     -1.796797     25.287993     25.287993     50.575986
     -1.786787     25.869118     25.869118     51.738235
     -1.776777     25.617940     25.617940     51.235881
     -1.766767     24.186703     24.186703     48.373406
     -1.756757     21.526263     21.526263     43.052527
     -1.746747     17.924935     17.924935     35.849870
     -1.736737     13.905776     13.905776     27.811552
     -1.726727     10.044280     10.044280     20.088560
     -1.716717      6.801165      6.801165     13.602330
     -1.706707      4.439334      4.439334      8.878668
     -1.696697      3.035628      3.035628      6.071256
     -1.686687      2.547586      2.547586      5.095172
     -1.676677      2.879141      2.879141      5.758282
     -1.666667      3.907184      3.907184      7.814369
     -1.656657      5.465718      5.465718     10.931435
     -1.646647      7.315328      7.315328     14.630656
     -1.636637      9.137831      9.137831     18.275662
     -1.626627     10.583432     10.583432     21.166864
